Energy (eV)          EEDF (eV^-(3/2))     First Anisotropy
4.77083333333333e-04 2.32519246791868e+01 1.13069888662374e-02
1.43125000000000e-03 2.30853617384382e+01 1.86669328188404e-02
2.38541666666667e-03 2.29199919555922e+01 2.46315556791679e-02
3.33958333333333e-03 2.27558067832007e+01 2.91562913370216e-02
4.29375000000000e-03 2.25927977354568e+01 3.29244902225962e-02
5.24791666666667e-03 2.24309563876685e+01 3.61946260583574e-02
6.20208333333333e-03 2.22702743748305e+01 3.91005121386438e-02
7.15625000000000e-03 2.21107433921658e+01 4.17229854492706e-02
8.11041666666667e-03 2.19523551945740e+01 4.41156788621778e-02
9.06458333333333e-03 2.17951015956505e+01 4.63165132319934e-02
1.00187500000000e-02 2.16389744678098e+01 4.83535699795255e-02
1.09729166666667e-02 2.14839657421486e+01 5.02483913928158e-02
1.19270833333333e-02 2.13300674063127e+01 5.20179705198360e-02
1.28812500000000e-02 2.11772715061508e+01 5.36760183367564e-02
1.38354166666667e-02 2.10255701454582e+01 5.52338071023060e-02
1.47895833333333e-02 2.08749554826797e+01 5.67007514083407e-02
1.57437500000000e-02 2.07254197333719e+01 5.80848208661544e-02
1.66979166666667e-02 2.05769551696257e+01 5.93928412804333e-02
1.76520833333333e-02 2.04295541173618e+01 6.06307184747257e-02
1.86062500000000e-02 2.02832089582270e+01 6.18036081248783e-02
1.95604166666667e-02 2.01379121290776e+01 6.29160472634588e-02
2.05145833333333e-02 1.99936561196846e+01 6.39720568575813e-02
2.14687500000000e-02 1.98504334742425e+01 6.49752231830398e-02
2.24229166666667e-02 1.97082367908930e+01 6.59287635756042e-02
2.33770833333333e-02 1.95670587197302e+01 6.68355794149987e-02
2.43312500000000e-02 1.94268919640288e+01 6.76982995258572e-02
2.52854166666667e-02 1.92877292797970e+01 6.85193164390586e-02
2.62395833333333e-02 1.91495634740110e+01 6.93008162626723e-02
2.71937500000000e-02 1.90123874056322e+01 7.00448037497989e-02
2.81479166666667e-02 1.88761939851816e+01 7.07531238451033e-02
2.91020833333333e-02 1.87409761731570e+01 7.14274796892145e-02
3.00562500000000e-02 1.86067269808846e+01 7.20694480166247e-02
3.10104166666667e-02 1.84734394701123e+01 7.26804927358121e-02
3.19645833333333e-02 1.83411067515738e+01 7.32619763679073e-02
3.29187500000000e-02 1.82097219857097e+01 7.38151699789402e-02
3.38729166666667e-02 1.80792783822753e+01 7.43412621593623e-02
3.48270833333333e-02 1.79497691990281e+01 7.48413666067484e-02
3.57812500000000e-02 1.78211877423413e+01 7.53165287921704e-02
3.67354166666667e-02 1.76935273668254e+01 7.57677321396899e-02
3.76895833333333e-02 1.75667814741195e+01 7.61959032316212e-02
3.86437500000000e-02 1.74409435134158e+01 7.66019164322832e-02
3.95979166666667e-02 1.73160069810937e+01 7.69865982873767e-02
4.05520833333333e-02 1.71919654195996e+01 7.73507312029068e-02
4.15062500000000e-02 1.70688124178975e+01 7.76950567416648e-02
4.24604166666667e-02 1.69465416111143e+01 7.80202788484187e-02
4.34145833333333e-02 1.68251466794962e+01 7.83270665148437e-02
4.43687500000000e-02 1.67046213487970e+01 7.86160561851577e-02
4.53229166666667e-02 1.65849593899331e+01 7.88878541819372e-02
4.62770833333333e-02 1.64661546180078e+01 7.91430386774344e-02
4.72312500000000e-02 1.63482008926461e+01 7.93821614844344e-02
4.81854166666667e-02 1.62310921176590e+01 7.96057499226780e-02
4.91395833333333e-02 1.61148222401272e+01 7.98143083035792e-02
5.00937500000000e-02 1.59993852506906e+01 8.00083192864657e-02
5.10479166666667e-02 1.58847751832210e+01 8.01882453439823e-02
5.20020833333333e-02 1.57709861139590e+01 8.03545298978342e-02
5.29562500000000e-02 1.56580121617640e+01 8.05075983612136e-02
5.39104166666667e-02 1.55458474877949e+01 8.06478593104649e-02
5.48645833333333e-02 1.54344862946952e+01 8.07757053656714e-02
5.58187500000000e-02 1.53239228268077e+01 8.08915140022270e-02
5.67729166666667e-02 1.52141513698639e+01 8.09956485031924e-02
5.77270833333333e-02 1.51051662502120e+01 8.10884586500843e-02
5.86812500000000e-02 1.49969618350010e+01 8.11702813618116e-02
5.96354166666667e-02 1.48895325318779e+01 8.12414414804064e-02
6.05895833333333e-02 1.47828727882551e+01 8.13022523184515e-02
6.15437500000000e-02 1.46769770914677e+01 8.13530161670182e-02
6.24979166666667e-02 1.45718399684777e+01 8.13940249527991e-02
6.34520833333333e-02 1.44674559851779e+01 8.14255606757597e-02
6.44062500000000e-02 1.43638197465248e+01 8.14478958163322e-02
6.53604166666667e-02 1.42609258962509e+01 8.14612938918767e-02
6.63145833333333e-02 1.41587691162001e+01 8.14660098092331e-02
6.72687500000000e-02 1.40573441264412e+01 8.14622901935182e-02
6.82229166666667e-02 1.39566456849859e+01 8.14503738647110e-02
6.91770833333333e-02 1.38566685871550e+01 8.14304921235089e-02
7.01312500000000e-02 1.37574076656733e+01 8.14028690184719e-02
7.10854166666667e-02 1.36588577903939e+01 8.13677217584365e-02
7.20395833333333e-02 1.35610138676929e+01 8.13252609455907e-02
7.29937500000000e-02 1.34638708405470e+01 8.12756907936477e-02
7.39479166666667e-02 1.33674236882653e+01 8.12192094881286e-02
7.49020833333333e-02 1.32716674259088e+01 8.11560093772699e-02
7.58562500000000e-02 1.31765971043542e+01 8.10862771509718e-02
7.68104166666667e-02 1.30822078100312e+01 8.10101941582824e-02
7.77645833333333e-02 1.29884946643665e+01 8.09279365643297e-02
7.87187500000000e-02 1.28954528238345e+01 8.08396754976073e-02
7.96729166666667e-02 1.28030774797003e+01 8.07455773319637e-02
8.06270833333333e-02 1.27113638574865e+01 8.06458038159740e-02
8.15812500000000e-02 1.26203072170121e+01 8.05405121944536e-02
8.25354166666667e-02 1.25299028521409e+01 8.04298554607619e-02
8.34895833333333e-02 1.24401460902703e+01 8.03139824636401e-02
8.44437500000000e-02 1.23510322923586e+01 8.01930380076306e-02
8.53979166666667e-02 1.22625568526798e+01 8.00671630803256e-02
8.63520833333333e-02 1.21747151983318e+01 7.99364949406781e-02
8.73062500000000e-02 1.20875027892546e+01 7.98011672020482e-02
8.82604166666667e-02 1.20009151179901e+01 7.96613100381093e-02
8.92145833333333e-02 1.19149477092092e+01 7.95170502558698e-02
9.01687500000000e-02 1.18295961197214e+01 7.93685113643149e-02
9.11229166666667e-02 1.17448559382401e+01 7.92158137620142e-02
9.20770833333333e-02 1.16607227849274e+01 7.90590747974301e-02
9.30312500000000e-02 1.15771923113952e+01 7.88984088255765e-02
9.39854166666667e-02 1.14942602004769e+01 7.87339273798315e-02
9.49395833333333e-02 1.14119221657876e+01 7.85657392216126e-02
9.58937500000000e-02 1.13301739517194e+01 7.83939503870327e-02
9.68479166666667e-02 1.12490113332173e+01 7.82186643449656e-02
9.78020833333333e-02 1.11684301153555e+01 7.80399820378197e-02
9.87562500000000e-02 1.10884261333265e+01 7.78580019197766e-02
9.97104166666667e-02 1.10089952522217e+01 7.76728201028290e-02
1.00664583333333e-01 1.09301333666230e+01 7.74845304248699e-02
1.01618750000000e-01 1.08518364003981e+01 7.72932243074140e-02
1.02572916666667e-01 1.07741003074204e+01 7.70989912014039e-02
1.03527083333333e-01 1.06969210693150e+01 7.69019184795615e-02
1.04481250000000e-01 1.06202946971089e+01 7.67020911140956e-02
1.05435416666667e-01 1.05442172309896e+01 7.64995924188235e-02
1.06389583333333e-01 1.04686847383372e+01 7.62945037660375e-02
1.07343750000000e-01 1.03936933152900e+01 7.60869043060489e-02
1.08297916666667e-01 1.03192390865089e+01 7.58768716796045e-02
1.09252083333333e-01 1.02453182032982e+01 7.56644817407477e-02
1.10206250000000e-01 1.01719268450914e+01 7.54498082823869e-02
1.11160416666667e-01 1.00990612192216e+01 7.52329237208341e-02
1.12114583333333e-01 1.00267175591256e+01 7.50138988248628e-02
1.13068750000000e-01 9.95489212575473e+00 7.47928024474904e-02
1.14022916666667e-01 9.88358120735161e+00 7.45697021842618e-02
1.14977083333333e-01 9.81278111773192e+00 7.43446641086642e-02
1.15931250000000e-01 9.74248819762554e+00 7.41177525102308e-02
1.16885416666667e-01 9.67269881445919e+00 7.38890305280637e-02
1.17839583333333e-01 9.60340936071154e+00 7.36585598926663e-02
1.18793750000000e-01 9.53461625518887e+00 7.34264006704186e-02
1.19747916666667e-01 9.46631594281323e+00 7.31926118737071e-02
1.20702083333333e-01 9.39850489304708e+00 7.29572512091765e-02
1.21656250000000e-01 9.33117960110723e+00 7.27203748286032e-02
1.22610416666667e-01 9.26433658775836e+00 7.24820379168624e-02
1.23564583333333e-01 9.19797239780337e+00 7.22422944465903e-02
1.24518750000000e-01 9.13208360123924e+00 7.20011969354168e-02
1.25472916666667e-01 9.06666679305580e+00 7.17587970129028e-02
1.26427083333333e-01 9.00171859178814e+00 7.15151451815706e-02
1.27381250000000e-01 8.93723564061791e+00 7.12702905804329e-02
1.28335416666667e-01 8.87321460717698e+00 7.10242815319542e-02
1.29289583333333e-01 8.80965218215884e+00 7.07771653093664e-02
1.30243750000000e-01 8.74654508036825e+00 7.05289879064308e-02
1.31197916666667e-01 8.68389004052984e+00 7.02797945653803e-02
1.32152083333333e-01 8.62168382395524e+00 7.00296295504289e-02
1.33106250000000e-01 8.55992321554416e+00 6.97785359236554e-02
1.34060416666667e-01 8.49860502359764e+00 6.95265560548372e-02
1.35014583333333e-01 8.43772607853817e+00 6.92737314010538e-02
1.35968750000000e-01 8.37728323386482e+00 6.90201022885744e-02
1.36922916666667e-01 8.31727336597102e+00 6.87657084054158e-02
1.37877083333333e-01 8.25769337291504e+00 6.85105885869134e-02
1.38831250000000e-01 8.19854017533160e+00 6.82547806035179e-02
1.39785416666667e-01 8.13981071625418e+00 6.79983216368330e-02
1.40739583333333e-01 8.08150195993318e+00 6.77412480710249e-02
1.41693750000000e-01 8.02361089270660e+00 6.74835952864224e-02
1.42647916666667e-01 7.96613452282648e+00 6.72253981197436e-02
1.43602083333333e-01 7.90906987932265e+00 6.69666906612194e-02
1.44556250000000e-01 7.85241401283443e+00 6.67075060538503e-02
1.45510416666667e-01 7.79616399544134e+00 6.64478769385191e-02
1.46464583333333e-01 7.74031691957004e+00 6.61878352566960e-02
1.47418750000000e-01 7.68486989878923e+00 6.59274120552063e-02
1.48372916666667e-01 7.62982006764440e+00 6.56666379168665e-02
1.49327083333333e-01 7.57516458060599e+00 6.54055427686312e-02
1.50281250000000e-01 7.52090061282940e+00 6.51441556917463e-02
1.51235416666667e-01 7.46702535999362e+00 6.48825053384986e-02
1.52189583333333e-01 7.41353603728871e+00 6.46206197456728e-02
1.53143750000000e-01 7.36042988014271e+00 6.43585261499399e-02
1.54097916666667e-01 7.30770414406407e+00 6.40962513912948e-02
1.55052083333333e-01 7.25535610366660e+00 6.38338217316851e-02
1.56006250000000e-01 7.20338305336497e+00 6.35712626754968e-02
1.56960416666667e-01 7.15178230722082e+00 6.33085993602099e-02
1.57914583333333e-01 7.10055119800351e+00 6.30458563800510e-02
1.58868750000000e-01 7.04968707785576e+00 6.27830576114559e-02
1.59822916666667e-01 6.99918731814337e+00 6.25202265914422e-02
1.60777083333333e-01 6.94904930855013e+00 6.22573863461534e-02
1.61731250000000e-01 6.89927045771509e+00 6.19945592211518e-02
1.62685416666667e-01 6.84984819308577e+00 6.17317672479768e-02
1.63639583333333e-01 6.80077996004579e+00 6.14690319774612e-02
1.64593750000000e-01 6.75206322252506e+00 6.12063743147179e-02
1.65547916666667e-01 6.70369546285653e+00 6.09438148743468e-02
1.66502083333333e-01 6.65567418093490e+00 6.06813738183677e-02
1.67456250000000e-01 6.60799689480127e+00 6.04190706957829e-02
1.68410416666667e-01 6.56066114050314e+00 6.01569247868495e-02
1.69364583333333e-01 6.51366447128300e+00 5.98949549455060e-02
1.70318750000000e-01 6.46700445813859e+00 5.96331794433853e-02
1.71272916666667e-01 6.42067868968608e+00 5.93716163035511e-02
1.72227083333333e-01 6.37468477137729e+00 5.91102831473032e-02
1.73181250000000e-01 6.32902032603666e+00 5.88491970425036e-02
1.74135416666667e-01 6.28368299372761e+00 5.85883748271660e-02
1.75089583333333e-01 6.23867043099711e+00 5.83278329605049e-02
1.76043750000000e-01 6.19398031139051e+00 5.80675873754626e-02
1.76997916666667e-01 6.14961032532096e+00 5.78076537925290e-02
1.77952083333333e-01 6.10555817934018e+00 5.75480475749042e-02
1.78906250000000e-01 6.06182159663221e+00 5.72887835850931e-02
1.79860416666667e-01 6.01839831688582e+00 5.70298764893129e-02
1.80814583333333e-01 5.97528609559039e+00 5.67713406166579e-02
1.81768750000000e-01 5.93248270450952e+00 5.65131898196423e-02
1.82722916666667e-01 5.88998593155638e+00 5.62554377695253e-02
1.83677083333333e-01 5.84779358011367e+00 5.59980978193623e-02
1.84631250000000e-01 5.80590346948805e+00 5.57411828683908e-02
1.85585416666667e-01 5.76431343478830e+00 5.54847056485783e-02
1.86539583333333e-01 5.72302132626840e+00 5.52286785914534e-02
1.87493750000000e-01 5.68202500976364e+00 5.49731136962220e-02
1.88447916666667e-01 5.64132236657159e+00 5.47180228078471e-02
1.89402083333333e-01 5.60091129281728e+00 5.44634174875438e-02
1.90356250000000e-01 5.56078969987187e+00 5.42093088845230e-02
1.91310416666667e-01 5.52095551423633e+00 5.39557080058960e-02
1.92264583333333e-01 5.48140667692788e+00 5.37026255907171e-02
1.93218750000000e-01 5.44214114388198e+00 5.34500719852582e-02
1.94172916666667e-01 5.40315688583862e+00 5.31980574050100e-02
1.95127083333333e-01 5.36445188774924e+00 5.29465918121785e-02
1.96081250000000e-01 5.32602414916275e+00 5.26956847943732e-02
1.97035416666667e-01 5.28787168411437e+00 5.24453458189841e-02
1.97989583333333e-01 5.24999252055224e+00 5.21955841140383e-02
1.98943750000000e-01 5.21238470070814e+00 5.19464085501901e-02
1.99897916666667e-01 5.17504628098888e+00 5.16978278877247e-02
2.00852083333333e-01 5.13797533142177e+00 5.14498506606784e-02
2.01806250000000e-01 5.10116993601075e+00 5.12024850620493e-02
2.02760416666667e-01 5.06462819263028e+00 5.09557391836686e-02
2.03714583333333e-01 5.02834821248887e+00 5.07096209034803e-02
2.04668750000000e-01 4.99232812047137e+00 5.04641377738756e-02
2.05622916666667e-01 4.95656605503518e+00 5.02192972546777e-02
2.06577083333333e-01 4.92106016769129e+00 4.99751066034925e-02
2.07531250000000e-01 4.88580862333316e+00 4.97315727670660e-02
2.08485416666667e-01 4.85080960013536e+00 4.94887026076097e-02
2.09439583333333e-01 4.81606128905129e+00 4.92465027961303e-02
2.10393750000000e-01 4.78156189412942e+00 4.90049797067367e-02
2.11347916666667e-01 4.74730963241412e+00 4.87641396365074e-02
2.12302083333333e-01 4.71330273345957e+00 4.85239887017155e-02
2.13256250000000e-01 4.67953943963380e+00 4.82845327350052e-02
2.14210416666667e-01 4.64601800602172e+00 4.80457774990102e-02
2.15164583333333e-01 4.61273669995459e+00 4.78077285853830e-02
2.16118750000000e-01 4.57969380130239e+00 4.75703913147576e-02
2.17072916666667e-01 4.54688760237899e+00 4.73337709443248e-02
2.18027083333333e-01 4.51431640748662e+00 4.70978725695865e-02
2.18981250000000e-01 4.48197853319703e+00 4.68627010270144e-02
2.19935416666667e-01 4.44987230825880e+00 4.66282610957785e-02
2.20889583333333e-01 4.41799607315622e+00 4.63945574021559e-02
2.21843750000000e-01 4.38634818037972e+00 4.61615943247998e-02
2.22797916666667e-01 4.35492699433526e+00 4.59293761908116e-02
2.23752083333333e-01 4.32373089091711e+00 4.56979071827144e-02
2.24706250000000e-01 4.29275825776801e+00 4.54671912462762e-02
2.25660416666667e-01 4.26200749419055e+00 4.52372322810851e-02
2.26614583333333e-01 4.23147701073339e+00 4.50080340500233e-02
2.27568750000000e-01 4.20116522944153e+00 4.47796000895719e-02
2.28522916666667e-01 4.17107058376971e+00 4.45519338950565e-02
2.29477083333333e-01 4.14119151818149e+00 4.43250388325621e-02
2.30431250000000e-01 4.11152648839010e+00 4.40989180516325e-02
2.31385416666667e-01 4.08207396127380e+00 4.38735746653609e-02
2.32339583333333e-01 4.05283241448736e+00 4.36490116646626e-02
2.33293750000000e-01 4.02380033669388e+00 4.34252318333138e-02
2.34247916666667e-01 3.99497622748204e+00 4.32022379230501e-02
2.35202083333333e-01 3.96635859698957e+00 4.29800325701245e-02
2.36156250000000e-01 3.93794596612643e+00 4.27586182126099e-02
2.37110416666667e-01 3.90973686649382e+00 4.25379972606625e-02
2.38064583333333e-01 3.88172984001932e+00 4.23181720153127e-02
2.39018750000000e-01 3.85392343917167e+00 4.20991445879554e-02
2.39972916666667e-01 3.82631622688165e+00 4.18809170659281e-02
2.40927083333333e-01 3.79890677618830e+00 4.16634914334620e-02
2.41881250000000e-01 3.77169367044584e+00 4.14468694933183e-02
2.42835416666667e-01 3.74467550324616e+00 4.12310530278112e-02
2.43789583333333e-01 3.71785087807595e+00 4.10160437218556e-02
2.44743750000000e-01 3.69121840851586e+00 4.08018430866902e-02
2.45697916666667e-01 3.66477671816477e+00 4.05884526164843e-02
2.46652083333333e-01 3.63852444030729e+00 4.03758737134277e-02
2.47606250000000e-01 3.61246021810560e+00 4.01641076134712e-02
2.48560416666667e-01 3.58658270452537e+00 3.99531555386608e-02
2.49514583333333e-01 3.56089056201330e+00 3.97430186242052e-02
2.50468750000000e-01 3.53538246268190e+00 3.95336978461799e-02
2.51422916666667e-01 3.51005708823710e+00 3.93251941697138e-02
2.52377083333333e-01 3.48491312966542e+00 3.91175084779827e-02
2.53331250000000e-01 3.45994928741203e+00 3.89106415018178e-02
2.54285416666667e-01 3.43516427130989e+00 3.87045939638647e-02
2.55239583333333e-01 3.41055680027639e+00 3.84993665094560e-02
2.56193750000000e-01 3.38612560248481e+00 3.82949596380698e-02
2.57147916666667e-01 3.36186941529509e+00 3.80913738435826e-02
2.58102083333333e-01 3.33778698495945e+00 3.78886095469617e-02
2.59056250000000e-01 3.31387706678769e+00 3.76866670295267e-02
2.60010416666667e-01 3.29013842507940e+00 3.74855465694094e-02
2.60964583333333e-01 3.26656983283840e+00 3.72852483760119e-02
2.61918750000000e-01 3.24317007193199e+00 3.70857725250285e-02
2.62872916666667e-01 3.21993793302463e+00 3.68871190912205e-02
2.63827083333333e-01 3.19687221530094e+00 3.66892880845905e-02
2.64781250000000e-01 3.17397172661903e+00 3.64922793871118e-02
2.65735416666667e-01 3.15123528344579e+00 3.62960928819277e-02
2.66689583333333e-01 3.12866171058793e+00 3.61007283912025e-02
2.67643750000000e-01 3.10624984133988e+00 3.59061856145016e-02
2.68597916666667e-01 3.08399851742040e+00 3.57124642545246e-02
2.69552083333333e-01 3.06190658871160e+00 3.55195639565837e-02
2.70506250000000e-01 3.03997291340149e+00 3.53274842485881e-02
2.71460416666667e-01 3.01819635792195e+00 3.51362246634139e-02
2.72414583333333e-01 2.99657579669544e+00 3.49457846799588e-02
2.73368750000000e-01 2.97511011227238e+00 3.47561636646954e-02
2.74322916666667e-01 2.95379819527053e+00 3.45673609907713e-02
2.75277083333333e-01 2.93263894412904e+00 3.43793759805972e-02
2.76231250000000e-01 2.91163126524094e+00 3.41922078489243e-02
2.77185416666667e-01 2.89077407289385e+00 3.40058558187660e-02
2.78139583333333e-01 2.87006628903116e+00 3.38203190654824e-02
2.79093750000000e-01 2.84950684337978e+00 3.36355966613359e-02
2.80047916666667e-01 2.82909467339218e+00 3.34516876883328e-02
2.81002083333333e-01 2.80882872401446e+00 3.32685911837575e-02
2.81956250000000e-01 2.78870794780956e+00 3.30863060861637e-02
2.82910416666667e-01 2.76873130490053e+00 3.29048313452227e-02
2.83864583333333e-01 2.74889776274538e+00 3.27241658686735e-02
2.84818750000000e-01 2.72920629625583e+00 3.25443084697115e-02
2.85772916666667e-01 2.70965588774185e+00 3.23652579739242e-02
2.86727083333333e-01 2.69024552669296e+00 3.21870131676194e-02
2.87681250000000e-01 2.67097420989283e+00 3.20095727465706e-02
2.88635416666667e-01 2.65184094136496e+00 3.18329354201281e-02
2.89589583333333e-01 2.63284473216033e+00 3.16570998608804e-02
2.90543750000000e-01 2.61398460046784e+00 3.14820646547282e-02
2.91497916666667e-01 2.59525957156128e+00 3.13078284022464e-02
2.92452083333333e-01 2.57666867759298e+00 3.11343896696424e-02
2.93406250000000e-01 2.55821095770040e+00 3.09617469401203e-02
2.94360416666667e-01 2.53988545795420e+00 3.07898987125752e-02
2.95314583333333e-01 2.52169123115782e+00 3.06188434538154e-02
2.96268750000000e-01 2.50362733695030e+00 3.04485795511724e-02
2.97222916666667e-01 2.48569284175546e+00 3.02791054086079e-02
2.98177083333333e-01 2.46788681858721e+00 3.01104194001645e-02
2.99131250000000e-01 2.45020834714872e+00 2.99425198237950e-02
3.00085416666667e-01 2.43265651378274e+00 2.97754049949460e-02
3.01039583333333e-01 2.41523041128239e+00 2.96090732012079e-02
