Energy (eV)          EEDF (eV^-(3/2))     First Anisotropy
3.26000000000000e-03 3.76474929798763e+01 5.22978295762990e-02
9.78000000000000e-03 3.51301825721494e+01 8.37529466036526e-02
1.63000000000000e-02 3.27811928462867e+01 1.03868902260469e-01
2.28200000000000e-02 3.05892689916552e+01 1.15556013262913e-01
2.93400000000000e-02 2.85439087537606e+01 1.22643884509974e-01
3.58600000000000e-02 2.66353121143653e+01 1.26717764133021e-01
4.23800000000000e-02 2.48543343362596e+01 1.28659666759101e-01
4.89000000000000e-02 2.31924421477084e+01 1.29033334925987e-01
5.54200000000000e-02 2.16416728566366e+01 1.28228948613783e-01
6.19400000000000e-02 2.01945961986569e+01 1.26530592449972e-01
6.84600000000000e-02 1.88442787361396e+01 1.24152307869061e-01
7.49800000000000e-02 1.75842506377494e+01 1.21259280096907e-01
8.15000000000000e-02 1.64084746792773e+01 1.17981196250765e-01
8.80200000000000e-02 1.53113173172413e+01 1.14421135417356e-01
9.45400000000000e-02 1.42875216966589e+01 1.10661743578857e-01
1.01060000000000e-01 1.33321824636627e+01 1.06769673062797e-01
1.07580000000000e-01 1.24407222622773e+01 1.02798865608783e-01
1.14100000000000e-01 1.16088698027467e+01 9.87930376318367e-02
1.20620000000000e-01 1.08326393963283e+01 9.47875985965573e-02
1.27140000000000e-01 1.01083118584998e+01 9.08111562814761e-02
1.33660000000000e-01 9.43241668907762e+00 8.68867143675763e-02
1.40180000000000e-01 8.80171544386787e+00 8.30326365017709e-02
1.46700000000000e-01 8.21318621817563e+00 7.92634301679818e-02
1.53220000000000e-01 7.66400916782953e+00 7.55903894959893e-02
1.59740000000000e-01 7.15155299834687e+00 7.20221262316121e-02
1.66260000000000e-01 6.67336235750465e+00 6.85650110424784e-02
1.72780000000000e-01 6.22714607090996e+00 6.52235422263216e-02
1.79300000000000e-01 5.81076616420230e+00 6.20006551274018e-02
1.85820000000000e-01 5.42222761928954e+00 5.88979827550175e-02
1.92340000000000e-01 5.05966881553603e+00 5.59160759675515e-02
1.98860000000000e-01 4.72135261010347e+00 5.30545899508406e-02
2.05380000000000e-01 4.40565801470729e+00 5.03124424510107e-02
2.11900000000000e-01 4.11107242890914e+00 4.76879482269458e-02
2.18420000000000e-01 3.83618439273248e+00 4.51789333996016e-02
2.24940000000000e-01 3.57967682387664e+00 4.27828327457833e-02
2.31460000000000e-01 3.34032070712643e+00 4.04967724767988e-02
2.37980000000000e-01 3.11696920572127e+00 3.83176406306617e-02
2.44500000000000e-01 2.90855216646925e+00 3.62421468699503e-02
2.51020000000000e-01 2.71407099227835e+00 3.42668732005108e-02
2.57540000000000e-01 2.53259385753728e+00 3.23883168970004e-02
2.64060000000000e-01 2.36325124342133e+00 3.06029267305192e-02
2.70580000000000e-01 2.20523177173119e+00 2.89071334340412e-02
2.77100000000000e-01 2.05777831730338e+00 2.72973752072702e-02
2.83620000000000e-01 1.92018438036549e+00 2.57701189493926e-02
2.90140000000000e-01 1.79179070145485e+00 2.43218778123135e-02
2.96660000000000e-01 1.67198210268171e+00 2.29492255854244e-02
3.03180000000000e-01 1.56018454020221e+00 2.16488083533746e-02
3.09700000000000e-01 1.45586235377867e+00 2.04173538087765e-02
3.16220000000000e-01 1.35851570024867e+00 1.92516785506633e-02
3.22740000000000e-01 1.26767815860614e+00 1.81486936555475e-02
3.29260000000000e-01 1.18291449521922e+00 1.71054087699979e-02
3.35780000000000e-01 1.10381857847762e+00 1.61189349408755e-02
3.42300000000000e-01 1.03001143287753e+00 1.51864863709828e-02
3.48820000000000e-01 9.61139423220830e-01 1.43053812632576e-02
3.55340000000000e-01 8.96872560228285e-01 1.34730418952523e-02
3.61860000000000e-01 8.36902919448373e-01 1.26869940470288e-02
3.68380000000000e-01 7.80943165886281e-01 1.19448658893923e-02
3.74900000000000e-01 7.28725177283969e-01 1.12443864252516e-02
3.81420000000000e-01 6.79998759455027e-01 1.05833835645634e-02
3.87940000000000e-01 6.34530447519022e-01 9.95978190254351e-03
3.94460000000000e-01 5.92102387291662e-01 9.37160026141678e-03
4.00980000000000e-01 5.52511291471124e-01 8.81694904774851e-03
4.07500000000000e-01 5.15567465619284e-01 8.29402747020350e-03
4.14020000000000e-01 4.81093899270986e-01 7.80112065628357e-03
4.20540000000000e-01 4.48925417816558e-01 7.33659670108909e-03
4.27060000000000e-01 4.18907891093945e-01 6.89890367633488e-03
4.33580000000000e-01 3.90897494898548e-01 6.48656662364047e-03
4.40100000000000e-01 3.64760021872428e-01 6.09818455243428e-03
4.46620000000000e-01 3.40370238471100e-01 5.73242745959863e-03
4.53140000000000e-01 3.17611284926921e-01 5.38803338517665e-03
4.59660000000000e-01 2.96374115334102e-01 5.06380551601692e-03
4.66180000000000e-01 2.76556975172598e-01 4.75860934710147e-03
4.72700000000000e-01 2.58064913767511e-01 4.47136990845041e-03
4.79220000000000e-01 2.40809329348028e-01 4.20106906388843e-03
4.85740000000000e-01 2.24707544526139e-01 3.94674288656474e-03
4.92260000000000e-01 2.09682410161075e-01 3.70747911491292e-03
4.98780000000000e-01 1.95661935711478e-01 3.48241469169820e-03
5.05300000000000e-01 1.82578944304167e-01 3.27073338790639e-03
5.11820000000000e-01 1.70370750866841e-01 3.07166351246409e-03
5.18340000000000e-01 1.58978861782524e-01 2.88447570812616e-03
5.24860000000000e-01 1.48348694626701e-01 2.70848083331336e-03
5.31380000000000e-01 1.38429316644318e-01 2.54302792921498e-03
5.37900000000000e-01 1.29173200713583e-01 2.38750227108013e-03
5.44420000000000e-01 1.20535997627324e-01 2.24132350229527e-03
5.50940000000000e-01 1.12476323600816e-01 2.10394384957881e-03
5.57460000000000e-01 1.04955561987963e-01 1.97484641740612e-03
5.63980000000000e-01 9.79376782557753e-02 1.85354355960565e-03
5.70500000000000e-01 9.13890473306386e-02 1.73957532593172e-03
5.77020000000000e-01 8.52782924891238e-02 1.63250798131851e-03
5.83540000000000e-01 7.95761350214059e-02 1.53193259544627e-03
5.90060000000000e-01 7.42552539469835e-02 1.43746370020285e-03
5.96580000000000e-01 6.92901551105465e-02 1.34873801259644e-03
6.03100000000000e-01 6.46570490307862e-02 1.26541322066651e-03
6.09620000000000e-01 6.03337369168796e-02 1.18716682994657e-03
6.16140000000000e-01 5.62995043065140e-02 1.11369506805148e-03
6.22660000000000e-01 5.25350218158362e-02 1.04471184499318e-03
6.29180000000000e-01 4.90222525257838e-02 9.79947766867554e-04
6.35700000000000e-01 4.57443655610571e-02 9.19149200603083e-04
6.42220000000000e-01 4.26856554476566e-02 8.62077387514463e-04
6.48740000000000e-01 3.98314668626034e-02 8.08507603462989e-04
6.55260000000000e-01 3.71681244152892e-02 7.58228363487228e-04
6.61780000000000e-01 3.46828671240185e-02 7.11040668832488e-04
6.68300000000000e-01 3.23637872737938e-02 6.66757294374453e-04
6.74820000000000e-01 3.01997733623938e-02 6.25202114500751e-04
6.81340000000000e-01 2.81804568613777e-02 5.86209465583368e-04
6.87860000000000e-01 2.62961625369304e-02 5.49623543244294e-04
6.94380000000000e-01 2.45378620925189e-02 5.15297832686039e-04
7.00900000000000e-01 2.28971309112451e-02 4.83094570427465e-04
7.07420000000000e-01 2.13661076906345e-02 4.52884235853355e-04
7.13940000000000e-01 1.99374567764555e-02 4.24545071052997e-04
7.20460000000000e-01 1.86043330150988e-02 3.97962627488604e-04
7.26980000000000e-01 1.73603489561135e-02 3.73029338098505e-04
7.33500000000000e-01 1.61995442477533e-02 3.49644113502520e-04
7.40020000000000e-01 1.51163570788998e-02 3.27711961037610e-04
7.46540000000000e-01 1.41055975305290e-02 3.07143625410878e-04
7.53060000000000e-01 1.31624227090399e-02 2.87855249814009e-04
7.59580000000000e-01 1.22823135422999e-02 2.69768056398323e-04
7.66100000000000e-01 1.14610531272299e-02 2.52808045062861e-04
7.72620000000000e-01 1.06947065251836e-02 2.36905709559071e-04
7.79140000000000e-01 9.97960190831522e-03 2.21995769964971e-04
7.85660000000000e-01 9.31231296659997e-03 2.08016920628952e-04
7.92180000000000e-01 8.68964249121496e-03 1.94911592728818e-04
7.98700000000000e-01 8.10860705562155e-03 1.82625730635136e-04
8.05220000000000e-01 7.56642272095163e-03 1.71108581309647e-04
8.11740000000000e-01 7.06049169720737e-03 1.60312496009308e-04
8.18260000000000e-01 6.58838989636367e-03 1.50192743604626e-04
8.24780000000000e-01 6.14785531773595e-03 1.40707334857244e-04
8.31300000000000e-01 5.73677720996370e-03 1.31816857036476e-04
8.37820000000000e-01 5.35318595768106e-03 1.23484318287466e-04
8.44340000000000e-01 4.99524364441808e-03 1.15675001195191e-04
8.50860000000000e-01 4.66123524651633e-03 1.08356325018474e-04
8.57380000000000e-01 4.34956041586581e-03 1.01497716096670e-04
8.63900000000000e-01 4.05872581209155e-03 9.50704859588563e-05
8.70420000000000e-01 3.78733794745075e-03 8.90477166910566e-05
8.76940000000000e-01 3.53409651015788e-03 8.34041531415561e-05
8.83460000000000e-01 3.29778813414762e-03 7.81161015675679e-05
8.89980000000000e-01 3.07728058542437e-03 7.31613343485587e-05
8.96500000000000e-01 2.87151733714311e-03 6.85190004124596e-05
9.03020000000000e-01 2.67951250742915e-03 6.41695410407974e-05
9.09540000000000e-01 2.50034613568186e-03 6.00946107375732e-05
9.16060000000000e-01 2.33315977472985e-03 5.62770028645052e-05
9.22580000000000e-01 2.17715237771786e-03 5.27005797621038e-05
9.29100000000000e-01 2.03157646001821e-03 4.93502070919947e-05
9.35620000000000e-01 1.89573451777705e-03 4.62116921510000e-05
9.42140000000000e-01 1.76897568593562e-03 4.32717259217615e-05
9.48660000000000e-01 1.65069261971386e-03 4.05178286381948e-05
9.55180000000000e-01 1.54031858461450e-03 3.79382986568256e-05
9.61700000000000e-01 1.43732474100484e-03 3.55221644371214e-05
9.68220000000000e-01 1.34121761026577e-03 3.32591394453317e-05
9.74740000000000e-01 1.25153671036751e-03 3.11395798071177e-05
9.81260000000000e-01 1.16785234954315e-03 2.91544445444171e-05
9.87780000000000e-01 1.08976356748893e-03 2.72952582415923e-05
9.94300000000000e-01 1.01689621422671e-03 2.55540759949698e-05
1.00082000000000e+00 9.48901157423870e-04 2.39234505084323e-05
1.00734000000000e+00 8.85452609581279e-04 2.23964012057898e-05
1.01386000000000e+00 8.26246567074294e-04 2.09663852382690e-05
1.02038000000000e+00 7.70999353567764e-04 1.96272702726374e-05
1.02690000000000e+00 7.19446260825988e-04 1.83733089522467e-05
1.03342000000000e+00 6.71340280405310e-04 1.71991149296577e-05
1.03994000000000e+00 6.26450920152451e-04 1.60996403755273e-05
1.04646000000000e+00 5.84563099838019e-04 1.50701548741035e-05
1.05298000000000e+00 5.45476120633800e-04 1.41062256210114e-05
1.05950000000000e+00 5.09002703496251e-04 1.32036988440509e-05
1.06602000000000e+00 4.74968091848745e-04 1.23586823724583e-05
1.07254000000000e+00 4.43209214263239e-04 1.15675292845528e-05
1.07906000000000e+00 4.13573903129461e-04 1.08268225678871e-05
1.08558000000000e+00 3.85920165568010e-04 1.01333607299793e-05
1.09210000000000e+00 3.60115503094061e-04 9.48414430142958e-06
1.09862000000000e+00 3.36036276771950e-04 8.87636317672801e-06
1.10514000000000e+00 3.13567114818881e-04 8.30738474136086e-06
1.11166000000000e+00 2.92600359819380e-04 7.77474273692764e-06
1.11818000000000e+00 2.73035552901912e-04 7.27612681890121e-06
1.12470000000000e+00 2.54778952406180e-04 6.80937276441159e-06
1.13122000000000e+00 2.37743084734867e-04 6.37245329001974e-06
1.13774000000000e+00 2.21846325237811e-04 5.96346944187781e-06
1.14426000000000e+00 2.07012507120476e-04 5.58064252295940e-06
1.15078000000000e+00 1.93170556502872e-04 5.22230652419307e-06
1.15730000000000e+00 1.80254151880364e-04 4.88690102835375e-06
1.16382000000000e+00 1.68201406354733e-04 4.57296455746737e-06
1.17034000000000e+00 1.56954571112944e-04 4.27912833627027e-06
1.17686000000000e+00 1.46459758732897e-04 4.00411044594407e-06
1.18338000000000e+00 1.36666684990414e-04 3.74671034392508e-06
1.18990000000000e+00 1.27528427930381e-04 3.50580372707041e-06
1.19642000000000e+00 1.19001203047656e-04 3.28033771685614e-06
1.20294000000000e+00 1.11044153500584e-04 3.06932634659294e-06
1.20946000000000e+00 1.03619154351938e-04 2.87184633187463e-06
1.21598000000000e+00 9.66906298993421e-05 2.68703310663036e-06
1.22250000000000e+00 9.02253832199576e-05 2.51407710823762e-06
1.22902000000000e+00 8.41924371127051e-05 2.35222029617215e-06
1.23554000000000e+00 7.85628856759334e-05 2.20075288962914e-06
1.24206000000000e+00 7.33097558093893e-05 2.05901031044912e-06
1.24858000000000e+00 6.84078779768987e-05 1.92637031852679e-06
1.25510000000000e+00 6.38337656105370e-05 1.80225032767391e-06
1.26162000000000e+00 5.95655025784752e-05 1.68610489065218e-06
1.26814000000000e+00 5.55826381773201e-05 1.57742334279107e-06
1.27466000000000e+00 5.18660891458219e-05 1.47572759426166e-06
1.28118000000000e+00 4.83980482304636e-05 1.38057006169403e-06
1.28770000000000e+00 4.51618988648380e-05 1.29153173040365e-06
1.29422000000000e+00 4.21421355540130e-05 1.20822033903525e-06
1.30074000000000e+00 3.93242895824190e-05 1.13026867894198e-06
1.30726000000000e+00 3.66948596892995e-05 1.05733300109576e-06
1.31378000000000e+00 3.42412473795679e-05 9.89091523773369e-07
1.32030000000000e+00 3.19516965601225e-05 9.25243034683885e-07
1.32682000000000e+00 2.98152372123958e-05 8.65505581598071e-07
1.33334000000000e+00 2.78216328312559e-05 8.09615245910866e-07
1.33986000000000e+00 2.59613313784203e-05 7.57324993916037e-07
1.34638000000000e+00 2.42254195153839e-05 7.08403600898160e-07
1.35290000000000e+00 2.26055798965751e-05 6.62634643453156e-07
1.35942000000000e+00 2.10940513181178e-05 6.19815555735753e-07
1.36594000000000e+00 1.96835915312574e-05 5.79756745601445e-07
1.37246000000000e+00 1.83674425422777e-05 5.42280766863132e-07
1.37898000000000e+00 1.71392982326495e-05 5.07221544119558e-07
1.38550000000000e+00 1.59932741442660e-05 4.74423646834774e-07
1.39202000000000e+00 1.49238792849984e-05 4.43741609556249e-07
1.39854000000000e+00 1.39259898194803e-05 4.15039295354656e-07
1.40506000000000e+00 1.29948245190652e-05 3.88189299751548e-07
1.41158000000000e+00 1.21259218533309e-05 3.63072392573014e-07
1.41810000000000e+00 1.13151186133651e-05 3.39576995328441e-07
1.42462000000000e+00 1.05585299644127e-05 3.17598691864571e-07
1.43114000000000e+00 9.85253083230787e-06 2.97039770186707e-07
1.43766000000000e+00 9.19373853450792e-06 2.77808793471605e-07
1.44418000000000e+00 8.57899657250772e-06 2.59820198421134e-07
1.45070000000000e+00 8.00535950797936e-06 2.42993919222420e-07
1.45722000000000e+00 7.47007885017288e-06 2.27255035489604e-07
1.46374000000000e+00 6.97058988696002e-06 2.12533442664827e-07
1.47026000000000e+00 6.50449939642402e-06 1.98763543452227e-07
1.47678000000000e+00 6.06957418011746e-06 1.85883958948740e-07
1.48330000000000e+00 5.66373036304714e-06 1.73837258219969e-07
1.48982000000000e+00 5.28502340911852e-06 1.62569705148504e-07
1.49634000000000e+00 4.93163880420030e-06 1.52031021456219e-07
1.50286000000000e+00 4.60188336216861e-06 1.42174164871597e-07
1.50938000000000e+00 4.29417711227503e-06 1.32955121478224e-07
1.51590000000000e+00 4.00704572896801e-06 1.24332711341675e-07
1.52242000000000e+00 3.73911346789657e-06 1.16268406569144e-07
1.52894000000000e+00 3.48909657425004e-06 1.08726161009830e-07
1.53546000000000e+00 3.25579713185107e-06 1.01672250854231e-07
1.54198000000000e+00 3.03809732353083e-06 9.50751254376129e-08
1.54850000000000e+00 2.83495407528586e-06 8.89052675969381e-08
1.55502000000000e+00 2.64539405855487e-06 8.31350629719052e-08
1.56154000000000e+00 2.46850902666977e-06 7.77386776793834e-08
1.56806000000000e+00 2.30345146313625e-06 7.26919438268141e-08
1.57458000000000e+00 2.14943052089325e-06 6.79722523641000e-08
1.58110000000000e+00 2.00570823309515e-06 6.35584528053091e-08
1.58762000000000e+00 1.87159597726093e-06 5.94307593813349e-08
1.59414000000000e+00 1.74645117584913e-06 5.55706632125599e-08
1.60066000000000e+00 1.62967421744974e-06 5.19608501167262e-08
1.60718000000000e+00 1.52070558384156e-06 4.85851236917066e-08
1.61370000000000e+00 1.41902316914959e-06 4.54283333358138e-08
1.62022000000000e+00 1.32413977825778e-06 4.24763068897777e-08
1.62674000000000e+00 1.23560079249118e-06 3.97157876046400e-08
1.63326000000000e+00 1.15298199138279e-06 3.71343751586725e-08
1.63978000000000e+00 1.07588752008875e-06 3.47204704640773e-08
1.64630000000000e+00 1.00394799271276e-06 3.24632240207598e-08
1.65282000000000e+00 9.36818722452368e-07 3.03524875899538e-08
1.65934000000000e+00 8.74178070086926e-07 2.83787689749748e-08
1.66586000000000e+00 8.15725902894471e-07 2.65331897099596e-08
1.67238000000000e+00 7.61182156613507e-07 2.48074454701660e-08
1.67890000000000e+00 7.10285493559649e-07 2.31937690293156e-08
1.68542000000000e+00 6.62792050467677e-07 2.16848956006115e-08
1.69194000000000e+00 6.18474270059488e-07 2.02740304085056e-08
1.69846000000000e+00 5.77119810739599e-07 1.89548183480665e-08
1.70498000000000e+00 5.38530529194164e-07 1.77213155979515e-08
1.71150000000000e+00 5.02521531018805e-07 1.65679630615611e-08
1.71802000000000e+00 4.68920284826483e-07 1.54895615189748e-08
1.72454000000000e+00 4.37565795590799e-07 1.44812483797853e-08
1.73106000000000e+00 4.08307833263936e-07 1.35384759339796e-08
1.73758000000000e+00 3.81006212973278e-07 1.26569910046026e-08
1.74410000000000e+00 3.55530123347896e-07 1.18328159121056e-08
1.75062000000000e+00 3.31757499756664e-07 1.10622306660528e-08
1.75714000000000e+00 3.09574439455003e-07 1.03417563052657e-08
1.76366000000000e+00 2.88874655837993e-07 9.66813931253992e-09
1.77018000000000e+00 2.69558969185014e-07 9.03833703481043e-09
1.77670000000000e+00 2.51534831455888e-07 8.44950404406899e-09
1.78322000000000e+00 2.34715882861668e-07 7.89897937849181e-09
1.78974000000000e+00 2.19021538085448e-07 7.38427460711797e-09
1.79626000000000e+00 2.04376600170629e-07 6.90306266505591e-09
1.80278000000000e+00 1.90710900226667e-07 6.45316740959943e-09
1.80930000000000e+00 1.77958961225996e-07 6.03255385082017e-09
1.81582000000000e+00 1.66059684281261e-07 5.63931901318600e-09
1.82234000000000e+00 1.54956055899724e-07 5.27168338754592e-09
1.82886000000000e+00 1.44594874812175e-07 4.92798293543408e-09
1.83538000000000e+00 1.34926497067520e-07 4.60666161009170e-09
1.84190000000000e+00 1.25904598171682e-07 4.30626436089324e-09
1.84842000000000e+00 1.17485951131156e-07 4.02543059000556e-09
1.85494000000000e+00 1.09630219337747e-07 3.76288803211343e-09
1.86146000000000e+00 1.02299763302126e-07 3.51744702992057e-09
1.86798000000000e+00 9.54594603102084e-08 3.28799517989172e-09
1.87450000000000e+00 8.90765361382498e-08 3.07349232434358e-09
1.88102000000000e+00 8.31204080203709e-08 2.87296586753113e-09
1.88754000000000e+00 7.75625381160975e-08 2.68550639481433e-09
1.89406000000000e+00 7.23762967758376e-08 2.51026357533695e-09
1.90058000000000e+00 6.75368349491511e-08 2.34644232990982e-09
1.90710000000000e+00 6.30209651244773e-08 2.19329924696972e-09
1.91362000000000e+00 5.88070502298614e-08 2.05013923058896e-09
1.92014000000000e+00 5.48748999623659e-08 1.91631236554327e-09
1.92666000000000e+00 5.12056740494457e-08 1.79121098541188e-09
1.93318000000000e+00 4.77817919787790e-08 1.67426693058787e-09
1.93970000000000e+00 4.45868487640390e-08 1.56494898392307e-09
1.94622000000000e+00 4.16055363430111e-08 1.46276047252325e-09
1.95274000000000e+00 3.88235702314480e-08 1.36723702495008e-09
1.95926000000000e+00 3.62276210812354e-08 1.27794447377973e-09
1.96578000000000e+00 3.38052508149409e-08 1.19447689411605e-09
1.97230000000000e+00 3.15448530307442e-08 1.11645476926333e-09
1.97882000000000e+00 2.94355973922092e-08 1.04352327533118e-09
1.98534000000000e+00 2.74673777364494e-08 9.75350677075367e-10
1.99186000000000e+00 2.56307636520562e-08 9.11626827775173e-10
1.99838000000000e+00 2.39169552947826e-08 8.52061766413046e-10
2.00490000000000e+00 2.23177412244890e-08 7.96384405857012e-10
2.01142000000000e+00 2.08254590613342e-08 7.44341306153520e-10
2.01794000000000e+00 1.94329587727011e-08 6.95695527419005e-10
2.02446000000000e+00 1.81335684149527e-08 6.50225557174621e-10
2.03098000000000e+00 1.69210621658755e-08 6.07724307301890e-10
2.03750000000000e+00 1.57896304946425e-08 5.67998176108714e-10
2.04402000000000e+00 1.47338523263705e-08 5.30866171286833e-10
2.05054000000000e+00 1.37486690679019e-08 4.96159089814612e-10
2.05706000000000e+00 1.28293603703607e-08 4.63718751114322e-10
