Energy (eV)          EEDF (eV^-(3/2))     First Anisotropy
3.62903225806452e-02 6.72749435025990e-02 4.51604861916684e-05
1.08870967741935e-01 6.65310792075708e-02 7.44106740795945e-05
1.81451612903226e-01 6.57954398799187e-02 9.78019616419984e-05
2.54032258064516e-01 6.50679345737640e-02 1.15313845410496e-04
3.26612903225806e-01 6.43484733481269e-02 1.29706482918838e-04
3.99193548387097e-01 6.36369672619795e-02 1.42030026385038e-04
4.71774193548387e-01 6.29333283544736e-02 1.52831180987510e-04
5.44354838709677e-01 6.22374696374342e-02 1.62442008058793e-04
6.16935483870968e-01 6.15493050846247e-02 1.71083997583929e-04
6.89516129032258e-01 6.08687496210364e-02 1.78914578839667e-04
7.62096774193548e-01 6.01957191114426e-02 1.86050939226350e-04
8.34677419354839e-01 5.95301303528401e-02 1.92583438181295e-04
9.07258064516129e-01 5.88719010611722e-02 1.98583712842434e-04
9.79838709677419e-01 5.82209498622048e-02 2.04109850408694e-04
1.05241935483871e+00 5.75771962826681e-02 2.09209836952754e-04
1.12500000000000e+00 5.69405607337211e-02 2.13923938614137e-04
1.19758064516129e+00 5.63109645165620e-02 2.18286398677363e-04
1.27016129032258e+00 5.56883297913471e-02 2.22326675223280e-04
1.34274193548387e+00 5.50725795893051e-02 2.26070365100105e-04
1.41532258064516e+00 5.44636377830612e-02 2.29539906882371e-04
1.48790322580645e+00 5.38614290959947e-02 2.32755124179877e-04
1.56048387096774e+00 5.32658790753972e-02 2.35733652374445e-04
1.63306451612903e+00 5.26769140997013e-02 2.38491277716392e-04
1.70564516129032e+00 5.20944613539359e-02 2.41042210492691e-04
1.77822580645161e+00 5.15184488352727e-02 2.43399306979925e-04
1.85080645161290e+00 5.09488053303879e-02 2.45574251994587e-04
1.92338709677419e+00 5.03854604196554e-02 2.47577709946936e-04
1.99596774193548e+00 4.98283444561207e-02 2.49419451258083e-04
2.06854838709677e+00 4.92773885685894e-02 2.51108458564902e-04
2.14112903225806e+00 4.87325246419868e-02 2.52653016931503e-04
2.21370967741935e+00 4.81936853195344e-02 2.54060790612407e-04
2.28629032258065e+00 4.76608039843149e-02 2.55338889368335e-04
2.35887096774194e+00 4.71338147584429e-02 2.56493924204290e-04
2.43145161290323e+00 4.66126524947011e-02 2.57532058409289e-04
2.50403225806452e+00 4.60972527617102e-02 2.58459049483697e-04
2.57661290322581e+00 4.55875518448227e-02 2.59280287000159e-04
2.64919354838710e+00 4.50834867297599e-02 2.60000825788987e-04
2.72177419354839e+00 4.45849951029584e-02 2.60625415079054e-04
2.79435483870968e+00 4.40920153360578e-02 2.61158524463365e-04
2.86693548387097e+00 4.36044864857821e-02 2.61604366847175e-04
2.93951612903226e+00 4.31223482791955e-02 2.61966919057907e-04
3.01209677419355e+00 4.26455411131873e-02 2.62249940161780e-04
3.08467741935484e+00 4.21740060404257e-02 2.62456988034489e-04
3.15725806451613e+00 4.17076847685040e-02 2.62591434159362e-04
3.22983870967742e+00 4.12465196465311e-02 2.62656477105864e-04
3.30241935483871e+00 4.07904536639888e-02 2.62655154616746e-04
3.37500000000000e+00 4.03394304379071e-02 2.62590354687461e-04
3.44758064516129e+00 3.98933942114729e-02 2.62464825537546e-04
3.52016129032258e+00 3.94522898417458e-02 2.62281184805646e-04
3.59274193548387e+00 3.90160627980534e-02 2.62041927850432e-04
3.66532258064516e+00 3.85846591502077e-02 2.61749435448853e-04
3.73790322580645e+00 3.81580255667180e-02 2.61405980764034e-04
3.81048387096774e+00 3.77361093034724e-02 2.61013735842454e-04
3.88306451612903e+00 3.73188582017944e-02 2.60574777507578e-04
3.95564516129032e+00 3.69062206775596e-02 2.60091092884137e-04
4.02822580645161e+00 3.64981457191180e-02 2.59564584418230e-04
4.10080645161290e+00 3.60945828768177e-02 2.58997074606591e-04
4.17338709677419e+00 3.56954822608140e-02 2.58390310300475e-04
4.24596774193548e+00 3.53007945309746e-02 2.57745966780014e-04
4.31854838709677e+00 3.49104708945929e-02 2.57065651466267e-04
4.39112903225806e+00 3.45244630966525e-02 2.56350907452059e-04
4.46370967741935e+00 3.41427234174598e-02 2.55603216721500e-04
4.53629032258065e+00 3.37652046632477e-02 2.54824003362225e-04
4.60887096774194e+00 3.33918601629321e-02 2.54014635828091e-04
4.68145161290323e+00 3.30226437622795e-02 2.53176430443670e-04
4.75403225806452e+00 3.26575098157735e-02 2.52310653349448e-04
4.82661290322581e+00 3.22964131841736e-02 2.51418522951965e-04
4.89919354838710e+00 3.19393092258203e-02 2.50501212152808e-04
4.97177419354839e+00 3.15861537941466e-02 2.49559850380706e-04
5.04435483870968e+00 3.12369032292708e-02 2.48595525565886e-04
5.11693548387097e+00 3.08915143554709e-02 2.47609285939440e-04
5.18951612903226e+00 3.05499444730498e-02 2.46602141789209e-04
5.26209677419355e+00 3.02121513557813e-02 2.45575067059214e-04
5.33467741935484e+00 2.98780932430352e-02 2.44529000917128e-04
5.40725806451613e+00 2.95477288372015e-02 2.43464849181071e-04
5.47983870967742e+00 2.92210172960635e-02 2.42383485723917e-04
5.55241935483871e+00 2.88979182302067e-02 2.41285753750392e-04
5.62500000000000e+00 2.85783916956290e-02 2.40172467059363e-04
5.69758064516129e+00 2.82623981911398e-02 2.39044411190600e-04
5.77016129032258e+00 2.79498986511966e-02 2.37902344562970e-04
5.84274193548387e+00 2.76408544433003e-02 2.36746999507238e-04
5.91532258064516e+00 2.73352273610481e-02 2.35579083295445e-04
5.98790322580645e+00 2.70329796215290e-02 2.34399279073686e-04
6.06048387096774e+00 2.67340738585848e-02 2.33208246795637e-04
6.13306451612903e+00 2.64384731202097e-02 2.32006624067245e-04
6.20564516129032e+00 2.61461408620106e-02 2.30795026995632e-04
6.27822580645161e+00 2.58570409446145e-02 2.29574050955891e-04
6.35080645161290e+00 2.55711376273203e-02 2.28344271364912e-04
6.42338709677419e+00 2.52883955655172e-02 2.27106244379164e-04
6.49596774193548e+00 2.50087798045207e-02 2.25860507601769e-04
6.56854838709677e+00 2.47322557770050e-02 2.24607580718896e-04
6.64112903225806e+00 2.44587892970151e-02 2.23347966147244e-04
6.71370967741935e+00 2.41883465574167e-02 2.22082149615679e-04
6.78629032258065e+00 2.39208941240782e-02 2.20810600838118e-04
6.85887096774194e+00 2.36563989329555e-02 2.19533773730569e-04
6.93145161290323e+00 2.33948282859773e-02 2.18252107427804e-04
7.00403225806452e+00 2.31361498458526e-02 2.16966026472384e-04
7.07661290322581e+00 2.28803316335944e-02 2.15675941366852e-04
7.14919354838710e+00 2.26273420230779e-02 2.14382249057566e-04
7.22177419354839e+00 2.23771497385872e-02 2.13085333365287e-04
7.29435483870968e+00 2.21297238495234e-02 2.11785565432135e-04
7.36693548387097e+00 2.18850337679757e-02 2.10483304118324e-04
7.43951612903226e+00 2.16430492435748e-02 2.09178896415726e-04
7.51209677419355e+00 2.14037403610891e-02 2.07872677814048e-04
7.58467741935484e+00 2.11670775354193e-02 2.06564972684047e-04
7.65725806451613e+00 2.09330315092198e-02 2.05256094615998e-04
7.72983870967742e+00 2.07015733480301e-02 2.03946346775369e-04
7.80241935483871e+00 2.04726744379231e-02 2.02636022216089e-04
7.87500000000000e+00 2.02463064807677e-02 2.01325404211145e-04
7.94758064516129e+00 2.00224414919060e-02 2.00014766542909e-04
8.02016129032258e+00 1.98010517955418e-02 1.98704373810813e-04
8.09274193548387e+00 1.95821100224474e-02 1.97394481700798e-04
8.16532258064516e+00 1.93655891054754e-02 1.96085337272002e-04
8.23790322580645e+00 1.91514622772942e-02 1.94777179207133e-04
8.31048387096774e+00 1.89397030660190e-02 1.93470238079959e-04
8.38306451612903e+00 1.87302852929782e-02 1.92164736588175e-04
8.45564516129032e+00 1.85231830684584e-02 1.90860889803276e-04
8.52822580645161e+00 1.83183707895021e-02 1.89558905387421e-04
8.60080645161290e+00 1.81158231357643e-02 1.88258983827078e-04
8.67338709677419e+00 1.79155150673409e-02 1.86961318635190e-04
8.74596774193548e+00 1.77174218207334e-02 1.85666096569880e-04
8.81854838709677e+00 1.75215189067086e-02 1.84373497823106e-04
8.89112903225807e+00 1.73277821063683e-02 1.83083696225580e-04
8.96370967741936e+00 1.71361874690403e-02 1.81796859422955e-04
9.03629032258065e+00 1.69467113084495e-02 1.80513149116403e-04
9.10887096774194e+00 1.67593302004362e-02 1.79232721033389e-04
9.18145161290323e+00 1.65740209800464e-02 1.77955725397213e-04
9.25403225806452e+00 1.63907607380552e-02 1.76682306896415e-04
9.32661290322581e+00 1.62095268189464e-02 1.75412604885238e-04
9.39919354838710e+00 1.60302968173158e-02 1.74146753548208e-04
9.47177419354839e+00 1.58530485758820e-02 1.72884882039606e-04
9.54435483870968e+00 1.56777601819809e-02 1.71627114638262e-04
9.61693548387097e+00 1.55044099656088e-02 1.70373570878327e-04
9.68951612903226e+00 1.53329764960058e-02 1.69124365695007e-04
9.76209677419355e+00 1.51634385797298e-02 1.67879609547197e-04
9.83467741935484e+00 1.49957752573266e-02 1.66639408554797e-04
9.90725806451613e+00 1.48299658014353e-02 1.65403864613824e-04
9.97983870967742e+00 1.46659897135428e-02 1.64173075407050e-04
1.00524193548387e+01 1.45038267225981e-02 1.62947135067660e-04
1.01250000000000e+01 1.43434567796127e-02 1.61726133312498e-04
1.01975806451613e+01 1.41848600602923e-02 1.60510156354452e-04
1.02701612903226e+01 1.40280169564202e-02 1.59299286752325e-04
1.03427419354839e+01 1.38729080796570e-02 1.58093603478450e-04
1.04153225806452e+01 1.37195142530263e-02 1.56893182096566e-04
1.04879032258065e+01 1.35678165145568e-02 1.55698094424166e-04
1.05604838709677e+01 1.34177961104398e-02 1.54508410144753e-04
1.06330645161290e+01 1.32694344928553e-02 1.53324194674390e-04
1.07056451612903e+01 1.31227133218557e-02 1.52145510703523e-04
1.07782258064516e+01 1.29776144575390e-02 1.50972417973218e-04
1.08508064516129e+01 1.28341199632719e-02 1.49804973289773e-04
1.09233870967742e+01 1.26922120980987e-02 1.48643230676048e-04
1.09959677419355e+01 1.25518733198313e-02 1.47487241383416e-04
1.10685483870968e+01 1.24130862776859e-02 1.46337054036654e-04
1.11411290322581e+01 1.22758338152460e-02 1.45192714643381e-04
1.12137096774194e+01 1.21400989633182e-02 1.44054266732843e-04
1.12862903225806e+01 1.20058649427744e-02 1.42921751056240e-04
1.13588709677419e+01 1.18731151587811e-02 1.41795206950567e-04
1.14314516129032e+01 1.17418331988641e-02 1.40674670506840e-04
1.15040322580645e+01 1.16120028343183e-02 1.39560175875544e-04
1.15766129032258e+01 1.14836080136230e-02 1.38451755064639e-04
1.16491935483871e+01 1.13566328649609e-02 1.37349437942405e-04
1.17217741935484e+01 1.12310616898264e-02 1.36253252356584e-04
1.17943548387097e+01 1.11068789654419e-02 1.35163224135516e-04
1.18669354838710e+01 1.09840693385531e-02 1.34079377202437e-04
1.19395161290323e+01 1.08626176277464e-02 1.33001733575073e-04
1.20120967741935e+01 1.07425088174253e-02 1.31930313475470e-04
1.20846774193548e+01 1.06237280600335e-02 1.30865135065382e-04
1.21572580645161e+01 1.05062606711674e-02 1.29806215605016e-04
1.22298387096774e+01 1.03900921278533e-02 1.28753569878315e-04
1.23024193548387e+01 1.02752080695982e-02 1.27707211302142e-04
1.23750000000000e+01 1.01615942928255e-02 1.26667151746052e-04
1.24475806451613e+01 1.00492367528470e-02 1.25633401527950e-04
1.25201612903226e+01 9.93812155845900e-03 1.24605969508944e-04
1.25927419354839e+01 9.82823497383365e-03 1.23584863087957e-04
1.26653225806452e+01 9.71956341326968e-03 1.22570088292914e-04
1.27379032258065e+01 9.61209344300759e-03 1.21561649543236e-04
1.28104838709677e+01 9.50581177695400e-03 1.20559550664864e-04
1.28830645161290e+01 9.40070527511691e-03 1.19563793499262e-04
1.29556451612903e+01 9.29676094442327e-03 1.18574378875361e-04
1.30282258064516e+01 9.19396593386231e-03 1.17591306446486e-04
1.31008064516129e+01 9.09230753609564e-03 1.16614574682390e-04
1.31733870967742e+01 8.99177318273797e-03 1.15644180948437e-04
1.32459677419355e+01 8.89235044590204e-03 1.14680121496999e-04
1.33185483870968e+01 8.79402703361223e-03 1.13722391543683e-04
1.33911290322581e+01 8.69679079128706e-03 1.12770985258090e-04
1.34637096774194e+01 8.60062969728156e-03 1.11825895837216e-04
1.35362903225806e+01 8.50553186430979e-03 1.10887115297173e-04
1.36088709677419e+01 8.41148553579867e-03 1.09954635340167e-04
1.36814516129032e+01 8.31847908449838e-03 1.09028446155763e-04
1.37540322580645e+01 8.22650101308020e-03 1.08108537251575e-04
1.38266129032258e+01 8.13553995000557e-03 1.07194897308857e-04
1.38991935483871e+01 8.04558465078785e-03 1.06287514171921e-04
1.39717741935484e+01 7.95662399397596e-03 1.05386374912160e-04
1.40443548387097e+01 7.86864698236508e-03 1.04491465817077e-04
1.41169354838710e+01 7.78164273909149e-03 1.03602772451969e-04
1.41895161290323e+01 7.69560050879419e-03 1.02720279648604e-04
1.42620967741935e+01 7.61050965381770e-03 1.01843971564749e-04
1.43346774193548e+01 7.52635965532633e-03 1.00973831501630e-04
1.44072580645161e+01 7.44314011018619e-03 1.00109842646448e-04
1.44798387096774e+01 7.36084072973078e-03 9.92519870380890e-05
1.45524193548387e+01 7.27945134019180e-03 9.84002462784881e-05
1.46250000000000e+01 7.19896187917480e-03 9.75546014053348e-05
1.46975806451613e+01 7.11936239664719e-03 9.67150328801211e-05
1.47701612903226e+01 7.04064305151022e-03 9.58815206402121e-05
1.48427419354839e+01 6.96279411254683e-03 9.50540440867147e-05
1.49153225806452e+01 6.88580595508710e-03 9.42325821347111e-05
1.49879032258065e+01 6.80966906191748e-03 9.34171130499464e-05
1.50604838709677e+01 6.73437402053354e-03 9.26076151030524e-05
1.51330645161290e+01 6.65991152202038e-03 9.18040656531081e-05
1.52056451612903e+01 6.58627236137464e-03 9.10064417745356e-05
1.52782258064516e+01 6.51344743440617e-03 9.02147201426235e-05
1.53508064516129e+01 6.44142773854317e-03 8.94288770211252e-05
1.54233870967742e+01 6.37020436981768e-03 8.86488883063670e-05
1.54959677419355e+01 6.29976852363774e-03 8.78747295147775e-05
1.55685483870968e+01 6.23011149185419e-03 8.71063758254771e-05
1.56411290322581e+01 6.16122466350109e-03 8.63438020677395e-05
1.57137096774194e+01 6.09309952194151e-03 8.55869827621023e-05
1.57862903225806e+01 6.02572764557749e-03 8.48358919775489e-05
1.58588709677419e+01 5.95910070548971e-03 8.40905038936600e-05
1.59314516129032e+01 5.89321046444438e-03 8.33507920082304e-05
1.60040322580645e+01 5.82804877711317e-03 8.26167296761655e-05
1.60766129032258e+01 5.76360758741782e-03 8.18882900087137e-05
1.61491935483871e+01 5.69987892915810e-03 8.11654458610296e-05
1.62217741935484e+01 5.63685492342721e-03 8.04481698683607e-05
1.62943548387097e+01 5.57452777921373e-03 7.97364344336109e-05
1.63669354838710e+01 5.51288979088589e-03 7.90302117622961e-05
1.64395161290323e+01 5.45193333876848e-03 7.83294738501161e-05
1.65120967741935e+01 5.39165088669401e-03 7.76341925167553e-05
1.65846774193548e+01 5.33203498255546e-03 7.69443392809312e-05
1.66572580645161e+01 5.27307825627438e-03 7.62598858443060e-05
1.67298387096774e+01 5.21477341891974e-03 7.55808034056774e-05
1.68024193548387e+01 5.15711326285085e-03 7.49070631248399e-05
1.68750000000000e+01 5.10009065943663e-03 7.42386360340575e-05
1.69475806451613e+01 5.04369855954354e-03 7.35754930259313e-05
1.70201612903226e+01 4.98792999131506e-03 7.29176048831981e-05
1.70927419354839e+01 4.93277806063903e-03 7.22649422666588e-05
1.71653225806452e+01 4.87823594898563e-03 7.16174757439698e-05
1.72379032258065e+01 4.82429691385495e-03 7.09751756778794e-05
1.73104838709677e+01 4.77095428697775e-03 7.03380126542534e-05
1.73830645161290e+01 4.71820147351688e-03 6.97059568728824e-05
1.74556451612903e+01 4.66603195216045e-03 6.90789785578045e-05
1.75282258064516e+01 4.61443927310646e-03 6.84570478778425e-05
1.76008064516129e+01 4.56341705845690e-03 6.78401349349185e-05
1.76733870967742e+01 4.51295900025521e-03 6.72282097894804e-05
1.77459677419355e+01 4.46305886086342e-03 6.66212424489203e-05
1.78185483870968e+01 4.41371047105084e-03 6.60192028921715e-05
1.78911290322581e+01 4.36490773035503e-03 6.54220610582126e-05
1.79637096774194e+01 4.31664460522029e-03 6.48297868698479e-05
1.80362903225806e+01 4.26891512934301e-03 6.42423501359947e-05
1.81088709677419e+01 4.22171340211745e-03 6.36597209209645e-05
1.81814516129032e+01 4.17503358792792e-03 6.30818690163035e-05
1.82540322580645e+01 4.12886991619606e-03 6.25087642949429e-05
1.83266129032258e+01 4.08321667964414e-03 6.19403766413566e-05
1.83991935483871e+01 4.03806823459805e-03 6.13766759405468e-05
1.84717741935484e+01 3.99341899929559e-03 6.08176320990850e-05
1.85443548387097e+01 3.94926345417608e-03 6.02632150341986e-05
1.86169354838710e+01 3.90559614023245e-03 5.97133946941173e-05
1.86895161290323e+01 3.86241165928803e-03 5.91681410472782e-05
1.87620967741935e+01 3.81970467239122e-03 5.86274241020199e-05
1.88346774193548e+01 3.77746990007992e-03 5.80912138210803e-05
1.89072580645161e+01 3.73570212103709e-03 5.75594804406461e-05
1.89798387096774e+01 3.69439617146325e-03 5.70321940120633e-05
1.90524193548387e+01 3.65354694509001e-03 5.65093247077660e-05
1.91250000000000e+01 3.61314939168100e-03 5.59908427599844e-05
1.91975806451613e+01 3.57319851726296e-03 5.54767184504491e-05
1.92701612903226e+01 3.53368938266515e-03 5.49669221278299e-05
1.93427419354839e+01 3.49461710373990e-03 5.44614241975655e-05
1.94153225806452e+01 3.45597684993951e-03 5.39601951387254e-05
1.94879032258065e+01 3.41776384452667e-03 5.34632054274922e-05
1.95604838709677e+01 3.37997336337959e-03 5.29704258201502e-05
1.96330645161290e+01 3.34260073442354e-03 5.24818269451511e-05
1.97056451612903e+01 3.30564133762309e-03 5.19973795744937e-05
1.97782258064516e+01 3.26909060365248e-03 5.15170545687105e-05
1.98508064516129e+01 3.23294401407845e-03 5.10408228672005e-05
1.99233870967742e+01 3.19719710006454e-03 5.05686555031778e-05
1.99959677419355e+01 3.16184544254525e-03 5.01005235941441e-05
2.00685483870968e+01 3.12688467096339e-03 4.96363983563583e-05
2.01411290322581e+01 3.09231046343602e-03 4.91762510954273e-05
2.02137096774194e+01 3.05811854552384e-03 4.87200532203044e-05
2.02862903225806e+01 3.02430469038925e-03 4.82677761763506e-05
2.03588709677419e+01 2.99086471776004e-03 4.78193916902192e-05
2.04314516129032e+01 2.95779449342580e-03 4.73748714153991e-05
2.05040322580645e+01 2.92508992921141e-03 4.69341871671225e-05
2.05766129032258e+01 2.89274698182654e-03 4.64973108740363e-05
2.06491935483871e+01 2.86076165300183e-03 4.60642145693101e-05
2.07217741935484e+01 2.82912998836750e-03 4.56348704030534e-05
2.07943548387097e+01 2.79784807758278e-03 4.52092506335444e-05
2.08669354838710e+01 2.76691205324290e-03 4.47873276392480e-05
2.09395161290323e+01 2.73631809100198e-03 4.43690739101747e-05
2.10120967741935e+01 2.70606240850769e-03 4.39544620595252e-05
2.10846774193548e+01 2.67614126551789e-03 4.35434647650651e-05
2.11572580645161e+01 2.64655096300105e-03 4.31360549812749e-05
2.12298387096774e+01 2.61728784268993e-03 4.27322056311533e-05
2.13024193548387e+01 2.58834828704217e-03 4.23318898096794e-05
2.13750000000000e+01 2.55972871824357e-03 4.19350807413959e-05
2.14475806451613e+01 2.53142559830761e-03 4.15417517722568e-05
2.15201612903226e+01 2.50343542810374e-03 4.11518763799526e-05
2.15927419354839e+01 2.47575474745173e-03 4.07654281658759e-05
2.16653225806452e+01 2.44838013417429e-03 4.03823808651221e-05
2.17379032258065e+01 2.42130820418635e-03 4.00027082939788e-05
2.18104838709677e+01 2.39453561069333e-03 3.96263845385001e-05
2.18830645161290e+01 2.36805904378690e-03 3.92533836797048e-05
2.19556451612903e+01 2.34187523039803e-03 3.88836799744498e-05
2.20282258064516e+01 2.31598093341025e-03 3.85172478173454e-05
2.21008064516129e+01 2.29037295173484e-03 3.81540617331795e-05
2.21733870967742e+01 2.26504811944633e-03 3.77940963858009e-05
2.22459677419355e+01 2.24000330585335e-03 3.74373265706690e-05
2.23185483870968e+01 2.21523541465574e-03 3.70837272234492e-05
2.23911290322581e+01 2.19074138401138e-03 3.67332734126853e-05
2.24637096774194e+01 2.16651818571423e-03 3.63859403481200e-05
2.25362903225806e+01 2.14256282525725e-03 3.60417033347169e-05
2.26088709677419e+01 2.11887234113497e-03 3.57005379362230e-05
2.26814516129032e+01 2.09544380448550e-03 3.53624197359514e-05
2.27540322580645e+01 2.07227431903769e-03 3.50273244937025e-05
2.28266129032258e+01 2.04936102034143e-03 3.46952281123037e-05
2.28991935483871e+01 2.02670107581951e-03 3.43661066307146e-05
