Energy (eV)          EEDF (eV^-(3/2))     First Anisotropy
7.04098360655738e-03 2.86679856321443e-01 1.37228687934717e-04
2.11229508196721e-02 2.85061945301772e-01 2.26726346142546e-04
3.52049180327869e-02 2.83453165150669e-01 2.99629904638917e-04
4.92868852459016e-02 2.81853464337010e-01 3.55213845257882e-04
6.33688524590164e-02 2.80262791617604e-01 4.01736186894788e-04
7.74508196721312e-02 2.78681096044920e-01 4.42313584161496e-04
9.15327868852459e-02 2.77108326955107e-01 4.78556168629358e-04
1.05614754098361e-01 2.75544433970377e-01 5.11434639223712e-04
1.19696721311475e-01 2.73989366992801e-01 5.41591723863431e-04
1.33778688524590e-01 2.72443076219445e-01 5.69480948194596e-04
1.47860655737705e-01 2.70905512119812e-01 5.95437489950820e-04
1.61942622950820e-01 2.69376625443340e-01 6.19717962894460e-04
1.76024590163934e-01 2.67856367208825e-01 6.42524385938868e-04
1.90106557377049e-01 2.66344688730197e-01 6.64019438608867e-04
2.04188524590164e-01 2.64841541586255e-01 6.84336602059359e-04
2.18270491803279e-01 2.63346877629007e-01 7.03587141106847e-04
2.32352459016393e-01 2.61860648982405e-01 7.21865063830155e-04
2.46434426229508e-01 2.60382808034604e-01 7.39250728782615e-04
2.60516393442623e-01 2.58913307455029e-01 7.55813532191985e-04
2.74598360655738e-01 2.57452100173653e-01 7.71613946043796e-04
2.88680327868853e-01 2.55999139386085e-01 7.86705086086707e-04
3.02762295081967e-01 2.54554378552175e-01 8.01133942080834e-04
3.16844262295082e-01 2.53117771389918e-01 8.14942350229956e-04
3.30926229508197e-01 2.51689271887844e-01 8.28167776201354e-04
3.45008196721311e-01 2.50268834289304e-01 8.40843950307077e-04
3.59090163934426e-01 2.48856413095904e-01 8.53001385171635e-04
3.73172131147541e-01 2.47451963062285e-01 8.64667803470544e-04
3.87254098360656e-01 2.46055439206203e-01 8.75868496212374e-04
4.01336065573771e-01 2.44666796795283e-01 8.86626623506250e-04
4.15418032786885e-01 2.43285991349580e-01 8.96963465887735e-04
4.29500000000000e-01 2.41912978640212e-01 9.06898640610974e-04
4.43581967213115e-01 2.40547714684847e-01 9.16450284155422e-04
4.57663934426230e-01 2.39190155755666e-01 9.25635211513122e-04
4.71745901639344e-01 2.37840258368403e-01 9.34469053991961e-04
4.85827868852459e-01 2.36497979284192e-01 9.42966376424606e-04
4.99909836065574e-01 2.35163275508217e-01 9.51140781782447e-04
5.13991803278689e-01 2.33836104285746e-01 9.59005000589234e-04
5.28073770491803e-01 2.32516423108578e-01 9.66570971702818e-04
5.42155737704918e-01 2.31204189705728e-01 9.73849913732011e-04
5.56237704918033e-01 2.29899362044774e-01 9.80852386504901e-04
5.70319672131148e-01 2.28601898328252e-01 9.87588345784462e-04
5.84401639344262e-01 2.27311756999218e-01 9.94067193654259e-04
5.98483606557377e-01 2.26028896732898e-01 1.00029782366740e-03
6.12565573770492e-01 2.24753276437730e-01 1.00628865925532e-03
6.26647540983607e-01 2.23484855254069e-01 1.01204769029007e-03
6.40729508196721e-01 2.22223592550913e-01 1.01758250413866e-03
6.54811475409836e-01 2.20969447930551e-01 1.02290031558765e-03
6.68893442622951e-01 2.19722381221233e-01 1.02800799403042e-03
6.82975409836066e-01 2.18482352477914e-01 1.03291208623823e-03
6.97057377049180e-01 2.17249321980996e-01 1.03761883894352e-03
7.11139344262295e-01 2.16023250233336e-01 1.04213421766631e-03
7.25221311475410e-01 2.14804097964172e-01 1.04646392563111e-03
7.39303278688525e-01 2.13591826122602e-01 1.05061342114626e-03
7.53385245901639e-01 2.12386395878111e-01 1.05458793211170e-03
7.67467213114754e-01 2.11187768617782e-01 1.05839246940887e-03
7.81549180327869e-01 2.09995905949770e-01 1.06203184051213e-03
7.95631147540984e-01 2.08810769697299e-01 1.06551066208674e-03
8.09713114754098e-01 2.07632321899040e-01 1.06883336994542e-03
8.23795081967213e-01 2.06460524807910e-01 1.07200422988346e-03
8.37877049180328e-01 2.05295340888477e-01 1.07502734615540e-03
8.51959016393443e-01 2.04136732819948e-01 1.07790667085137e-03
8.66040983606557e-01 2.02984663490730e-01 1.08064601264969e-03
8.80122950819672e-01 2.01839095998672e-01 1.08324904339344e-03
8.94204918032787e-01 2.00699993649889e-01 1.08571930573384e-03
9.08286885245902e-01 1.99567319956348e-01 1.08806021880135e-03
9.22368852459016e-01 1.98441038638446e-01 1.09027508491262e-03
9.36450819672131e-01 1.97321113620055e-01 1.09236709587726e-03
9.50532786885246e-01 1.96207509028647e-01 1.09433933744044e-03
9.64614754098361e-01 1.95100189194151e-01 1.09619479486398e-03
9.78696721311476e-01 1.93999118646689e-01 1.09793635679525e-03
9.92778688524590e-01 1.92904262118816e-01 1.09956682022548e-03
1.00686065573771e+00 1.91815584540980e-01 1.10108889544438e-03
1.02094262295082e+00 1.90733051040490e-01 1.10250520907729e-03
1.03502459016393e+00 1.89656626940476e-01 1.10381830438511e-03
1.04910655737705e+00 1.88586277772102e-01 1.10503065303740e-03
1.06318852459016e+00 1.87521969240592e-01 1.10614465398329e-03
1.07727049180328e+00 1.86463667254982e-01 1.10716263070881e-03
1.09135245901639e+00 1.85411337916717e-01 1.10808683955542e-03
1.10543442622951e+00 1.84364947528012e-01 1.10891947725063e-03
1.11951639344262e+00 1.83324462562240e-01 1.10966267855246e-03
1.13359836065574e+00 1.82289849691510e-01 1.11031851129949e-03
1.14768032786885e+00 1.81261075784978e-01 1.11088899339645e-03
1.16176229508197e+00 1.80238107880833e-01 1.11137608775918e-03
1.17584426229508e+00 1.79220913212292e-01 1.11178169957198e-03
1.18992622950820e+00 1.78209459197494e-01 1.11210768323791e-03
1.20400819672131e+00 1.77203713446795e-01 1.11235584866953e-03
1.21809016393443e+00 1.76203643736600e-01 1.11252795853974e-03
1.23217213114754e+00 1.75209218033560e-01 1.11262572317812e-03
1.24625409836066e+00 1.74220404493015e-01 1.11265081568416e-03
1.26033606557377e+00 1.73237171434176e-01 1.11260486678782e-03
1.27441803278689e+00 1.72259487363010e-01 1.11248946188068e-03
1.28850000000000e+00 1.71287320963205e-01 1.11230614698796e-03
1.30258196721311e+00 1.70320641102595e-01 1.11205643417455e-03
1.31666393442623e+00 1.69359416809857e-01 1.11174179863746e-03
1.33074590163934e+00 1.68403617295905e-01 1.11136367566227e-03
1.34482786885246e+00 1.67453211945424e-01 1.11092346617381e-03
1.35890983606557e+00 1.66508170322818e-01 1.11042254176140e-03
1.37299180327869e+00 1.65568462150316e-01 1.10986224172109e-03
1.38707377049180e+00 1.64634057328007e-01 1.10924386805480e-03
1.40115573770492e+00 1.63704925932467e-01 1.10856869840270e-03
1.41523770491803e+00 1.62781038195893e-01 1.10783798105854e-03
1.42931967213115e+00 1.61862364525131e-01 1.10705293192443e-03
1.44340163934426e+00 1.60948875494038e-01 1.10621473942614e-03
1.45748360655738e+00 1.60040541848752e-01 1.10532456896213e-03
1.47156557377049e+00 1.59137334488038e-01 1.10438355997266e-03
1.48564754098361e+00 1.58239224481144e-01 1.10339282111645e-03
1.49972950819672e+00 1.57346183066519e-01 1.10235344208775e-03
1.51381147540984e+00 1.56458181633050e-01 1.10126648882617e-03
1.52789344262295e+00 1.55575191737060e-01 1.10013300053759e-03
1.54197540983607e+00 1.54697185095389e-01 1.09895399410278e-03
1.55605737704918e+00 1.53824133590084e-01 1.09773046806928e-03
1.57013934426230e+00 1.52956009250669e-01 1.09646339979549e-03
1.58422131147541e+00 1.52092784270140e-01 1.09515374251194e-03
1.59830327868852e+00 1.51234430998436e-01 1.09380242949718e-03
1.61238524590164e+00 1.50380921946812e-01 1.09241037786074e-03
1.62646721311475e+00 1.49532229771066e-01 1.09097848572657e-03
1.64054918032787e+00 1.48688327286626e-01 1.08950762774431e-03
1.65463114754098e+00 1.47849187467388e-01 1.08799866548975e-03
1.66871311475410e+00 1.47014783429650e-01 1.08645244301412e-03
1.68279508196721e+00 1.46185088446510e-01 1.08486978401987e-03
1.69687704918033e+00 1.45360075941902e-01 1.08325149566027e-03
1.71095901639344e+00 1.44539719494518e-01 1.08159837198170e-03
1.72504098360656e+00 1.43723992822581e-01 1.07991119122622e-03
1.73912295081967e+00 1.42912869797436e-01 1.07819071156884e-03
1.75320491803279e+00 1.42106324442466e-01 1.07643768074325e-03
1.76728688524590e+00 1.41304330918484e-01 1.07465283182439e-03
1.78136885245902e+00 1.40506863536733e-01 1.07283688053042e-03
1.79545081967213e+00 1.39713896753427e-01 1.07099052870298e-03
1.80953278688525e+00 1.38925405173277e-01 1.06911446746114e-03
1.82361475409836e+00 1.38141363535617e-01 1.06720937462729e-03
1.83769672131148e+00 1.37361746726701e-01 1.06527591069344e-03
1.85177868852459e+00 1.36586529778670e-01 1.06331472775928e-03
1.86586065573771e+00 1.35815687856241e-01 1.06132646553914e-03
1.87994262295082e+00 1.35049196268477e-01 1.05931174879797e-03
1.89402459016393e+00 1.34287030463779e-01 1.05727119055463e-03
1.90810655737705e+00 1.33529166033058e-01 1.05520539498735e-03
1.92218852459016e+00 1.32775578697060e-01 1.05311495498530e-03
1.93627049180328e+00 1.32026244317525e-01 1.05100044964724e-03
1.95035245901639e+00 1.31281138892424e-01 1.04886244735318e-03
1.96443442622951e+00 1.30540238558935e-01 1.04670150854993e-03
1.97851639344262e+00 1.29803519581378e-01 1.04451818336489e-03
1.99259836065574e+00 1.29070958361803e-01 1.04231300790789e-03
2.00668032786885e+00 1.28342531439043e-01 1.04008651228489e-03
2.02076229508197e+00 1.27618215477108e-01 1.03783921694091e-03
2.03484426229508e+00 1.26897987275334e-01 1.03557163028831e-03
2.04892622950820e+00 1.26181823763991e-01 1.03328425155235e-03
2.06300819672131e+00 1.25469702006976e-01 1.03097757335291e-03
2.07709016393443e+00 1.24761599190745e-01 1.02865207944300e-03
2.09117213114754e+00 1.24057492633956e-01 1.02630824121667e-03
2.10525409836066e+00 1.23357359786571e-01 1.02394652519515e-03
2.11933606557377e+00 1.22661178219196e-01 1.02156738957292e-03
2.13341803278689e+00 1.21968925632344e-01 1.01917128197331e-03
2.14750000000000e+00 1.21280579852374e-01 1.01675864209218e-03
2.16158196721311e+00 1.20596118833929e-01 1.01432990409853e-03
2.17566393442623e+00 1.19915520649759e-01 1.01188549449286e-03
2.18974590163934e+00 1.19238763499526e-01 1.00942582992410e-03
2.20382786885246e+00 1.18565825705927e-01 1.00695131973497e-03
2.21790983606557e+00 1.17896685716994e-01 1.00446236827389e-03
2.23199180327869e+00 1.17231322096373e-01 1.00195937281147e-03
2.24607377049180e+00 1.16569713531704e-01 9.99442720345201e-04
2.26015573770492e+00 1.15911838833797e-01 9.96912794362453e-04
2.27423770491803e+00 1.15257676927251e-01 9.94369971680179e-04
2.28831967213115e+00 1.14607206858510e-01 9.91814620379801e-04
2.30240163934426e+00 1.13960407792276e-01 9.89247102181743e-04
2.31648360655738e+00 1.13317259013591e-01 9.86667774602775e-04
2.33056557377049e+00 1.12677739918874e-01 9.84076988985755e-04
2.34464754098361e+00 1.12041830023593e-01 9.81475087481994e-04
2.35872950819672e+00 1.11409508961485e-01 9.78862409394950e-04
2.37281147540984e+00 1.10780756475891e-01 9.76239288195969e-04
2.38689344262295e+00 1.10155552427150e-01 9.73606049571911e-04
2.40097540983607e+00 1.09533876789261e-01 9.70963013644716e-04
2.41505737704918e+00 1.08915709651781e-01 9.68310496988703e-04
2.42913934426230e+00 1.08301031211536e-01 9.65648810766682e-04
2.44322131147541e+00 1.07689821779671e-01 9.62978258833219e-04
2.45730327868852e+00 1.07082061778449e-01 9.60299139877141e-04
2.47138524590164e+00 1.06477731743050e-01 9.57611749369784e-04
2.48546721311475e+00 1.05876812313629e-01 9.54916377752842e-04
2.49954918032787e+00 1.05279284242048e-01 9.52213307676858e-04
2.51363114754098e+00 1.04685128391140e-01 9.49502819761760e-04
2.52771311475410e+00 1.04094325727040e-01 9.46785189864515e-04
2.54179508196721e+00 1.03506857325661e-01 9.44060687285262e-04
2.55587704918033e+00 1.02922704369715e-01 9.41329576775158e-04
2.56995901639344e+00 1.02341848150358e-01 9.38592120362688e-04
2.58404098360656e+00 1.01764270059826e-01 9.35848575640911e-04
2.59812295081967e+00 1.01189951597629e-01 9.33099193157161e-04
2.61220491803279e+00 1.00618874369854e-01 9.30344221832272e-04
2.62628688524590e+00 1.00051020082047e-01 9.27583906379284e-04
2.64036885245902e+00 9.94863705451852e-02 9.24818485606900e-04
2.65445081967213e+00 9.89249076728948e-02 9.22048194303897e-04
2.66853278688525e+00 9.83666134829502e-02 9.19273264953685e-04
2.68261475409836e+00 9.78114700904466e-02 9.16493926113888e-04
2.69669672131148e+00 9.72594597135020e-02 9.13710399949591e-04
2.71077868852459e+00 9.67105646725946e-02 9.10922907336594e-04
2.72486065573771e+00 9.61647673839556e-02 9.08131665420572e-04
2.73894262295082e+00 9.56220503650715e-02 9.05336886013030e-04
2.75302459016393e+00 9.50823962320914e-02 9.02538777361781e-04
2.76710655737705e+00 9.45457877011953e-02 8.99737545762790e-04
2.78118852459016e+00 9.40122075822492e-02 8.96933394026653e-04
2.79527049180328e+00 9.34816387840677e-02 8.94126519919852e-04
2.80935245901639e+00 9.29540643119225e-02 8.91317117878135e-04
2.82343442622951e+00 9.24294672688400e-02 8.88505380566646e-04
2.83751639344262e+00 9.19078308495071e-02 8.85691497389952e-04
2.85159836065574e+00 9.13891383453076e-02 8.82875652230116e-04
2.86568032786885e+00 9.08733731437071e-02 8.80058028104547e-04
2.87976229508197e+00 9.03605187223476e-02 8.77238804927936e-04
2.89384426229508e+00 8.98505586539119e-02 8.74418158037213e-04
2.90792622950820e+00 8.93434766037920e-02 8.71596259804204e-04
2.92200819672131e+00 8.88392563312769e-02 8.68773281104495e-04
2.93609016393443e+00 8.83378816838791e-02 8.65949389907352e-04
2.95017213114754e+00 8.78393366019899e-02 8.63124749135742e-04
2.96425409836066e+00 8.73436051182922e-02 8.60299521061522e-04
2.97833606557377e+00 8.68506713522591e-02 8.57473865187500e-04
2.99241803278689e+00 8.63605195146552e-02 8.54647936851754e-04
3.00650000000000e+00 8.58731339053518e-02 8.51821888746716e-04
3.02058196721312e+00 8.53884989144164e-02 8.48995872303338e-04
3.03466393442623e+00 8.49065990168224e-02 8.46170036356240e-04
3.04874590163934e+00 8.44274187767603e-02 8.43344525787296e-04
3.06282786885246e+00 8.39509428455353e-02 8.40519482997294e-04
3.07690983606557e+00 8.34771559626012e-02 8.37695049247525e-04
3.09099180327869e+00 8.30060429504720e-02 8.34871363362136e-04
3.10507377049180e+00 8.25375887188537e-02 8.32048559763292e-04
3.11915573770492e+00 8.20717782640966e-02 8.29226772493826e-04
3.13323770491803e+00 8.16085966642575e-02 8.26406133272373e-04
3.14731967213115e+00 8.11480290830955e-02 8.23586770208830e-04
3.16140163934426e+00 8.06900607681000e-02 8.20768809192867e-04
3.17548360655738e+00 8.02346770514392e-02 8.17952375159411e-04
3.18956557377049e+00 7.97818633452085e-02 8.15137590859949e-04
3.20364754098361e+00 7.93316051452614e-02 8.12324575001812e-04
3.21772950819672e+00 7.88838880306860e-02 8.09513446049960e-04
3.23181147540984e+00 7.84386976591920e-02 8.06704320385141e-04
3.24589344262295e+00 7.79960197708188e-02 8.03897311087308e-04
3.25997540983607e+00 7.75558401860822e-02 8.01092529246156e-04
3.27405737704918e+00 7.71181448068466e-02 7.98290085156289e-04
3.28813934426230e+00 7.66829196118834e-02 7.95490087152884e-04
3.30222131147541e+00 7.62501506604265e-02 7.92692640429494e-04
3.31630327868853e+00 7.58198240903874e-02 7.89897848308901e-04
3.33038524590164e+00 7.53919261191832e-02 7.87105813402455e-04
3.34446721311475e+00 7.49664430394581e-02 7.84316636477961e-04
3.35854918032787e+00 7.45433612224969e-02 7.81530414748823e-04
3.37263114754098e+00 7.41226671177359e-02 7.78747245361732e-04
3.38671311475410e+00 7.37043472486069e-02 7.75967223702744e-04
3.40079508196721e+00 7.32883882158410e-02 7.73190442276540e-04
3.41487704918033e+00 7.28747766957902e-02 7.70416991907412e-04
3.42895901639344e+00 7.24634994411883e-02 7.67646962834956e-04
3.44304098360656e+00 7.20545432771468e-02 7.64880443641406e-04
3.45712295081967e+00 7.16478951043262e-02 7.62117519629618e-04
3.47120491803279e+00 7.12435418984689e-02 7.59358276123947e-04
3.48528688524590e+00 7.08414707065074e-02 7.56602796864675e-04
3.49936885245902e+00 7.04416686496370e-02 7.53851162945679e-04
3.51345081967213e+00 7.00441229217356e-02 7.51103453949821e-04
3.52753278688525e+00 6.96488207900641e-02 7.48359748985198e-04
3.54161475409836e+00 6.92557495915149e-02 7.45620125668095e-04
3.55569672131148e+00 6.88648967355625e-02 7.42884658585257e-04
3.56977868852459e+00 6.84762497038152e-02 7.40153422419452e-04
3.58386065573771e+00 6.80897960463689e-02 7.37426490426530e-04
3.59794262295082e+00 6.77055233846666e-02 7.34703933428469e-04
3.61202459016393e+00 6.73234194100103e-02 7.31985820887422e-04
3.62610655737705e+00 6.69434718842053e-02 7.29272221886272e-04
3.64018852459016e+00 6.65656686360429e-02 7.26563204163893e-04
3.65427049180328e+00 6.61899975640479e-02 7.23858833135936e-04
3.66835245901639e+00 6.58164466350417e-02 7.21159172937231e-04
3.68243442622951e+00 6.54450038847553e-02 7.18464287373847e-04
3.69651639344262e+00 6.50756574144362e-02 7.15774238985175e-04
3.71059836065574e+00 6.47083953934891e-02 7.13089087627338e-04
3.72468032786885e+00 6.43432060590569e-02 7.10408893347315e-04
3.73876229508197e+00 6.39800777127207e-02 7.07733714980295e-04
3.75284426229508e+00 6.36189987230594e-02 7.05063609220844e-04
3.76692622950820e+00 6.32599575242952e-02 7.02398631609764e-04
3.78100819672131e+00 6.29029426168581e-02 6.99738837435485e-04
3.79509016393443e+00 6.25479425642012e-02 6.97084280844286e-04
3.80917213114754e+00 6.21949459952612e-02 6.94435013496026e-04
3.82325409836066e+00 6.18439416040579e-02 6.91791087288613e-04
3.83733606557377e+00 6.14949181465949e-02 6.89152553026803e-04
3.85141803278689e+00 6.11478644432473e-02 6.86519459540680e-04
3.86550000000000e+00 6.08027693774828e-02 6.83891854620572e-04
3.87958196721312e+00 6.04596218963828e-02 6.81269785871115e-04
3.89366393442623e+00 6.01184110076499e-02 6.78653299866450e-04
3.90774590163934e+00 5.97791257819041e-02 6.76042441292847e-04
3.92182786885246e+00 5.94417553514469e-02 6.73437253856612e-04
3.93590983606557e+00 5.91062889107572e-02 6.70837781113907e-04
3.94999180327869e+00 5.87727157136017e-02 6.68244065648922e-04
3.96407377049180e+00 5.84410250752443e-02 6.65656147834361e-04
3.97815573770492e+00 5.81112063720701e-02 6.63074068340655e-04
3.99223770491803e+00 5.77832490387738e-02 6.60497866908270e-04
4.00631967213115e+00 5.74571425705020e-02 6.57927581533790e-04
4.02040163934426e+00 5.71328765216868e-02 6.55363249330384e-04
4.03448360655738e+00 5.68104405065026e-02 6.52804907314303e-04
4.04856557377049e+00 5.64898241961493e-02 6.50252591624835e-04
4.06264754098361e+00 5.61710173209146e-02 6.47706336347130e-04
4.07672950819672e+00 5.58540096698141e-02 6.45166175892806e-04
4.09081147540984e+00 5.55387910879470e-02 6.42632143834094e-04
4.10489344262295e+00 5.52253514784971e-02 6.40104272130973e-04
4.11897540983607e+00 5.49136808016302e-02 6.37582591947124e-04
4.13305737704918e+00 5.46037690749158e-02 6.35067134395690e-04
4.14713934426230e+00 5.42956063707708e-02 6.32557929798260e-04
4.16122131147541e+00 5.39891828183865e-02 6.30055006933243e-04
4.17530327868853e+00 5.36844886026616e-02 6.27558393828643e-04
4.18938524590164e+00 5.33815139646035e-02 6.25068118486811e-04
4.20346721311476e+00 5.30802491988584e-02 6.22584208163462e-04
4.21754918032787e+00 5.27806846555662e-02 6.20106688281270e-04
4.23163114754098e+00 5.24828107400240e-02 6.17635584625221e-04
4.24571311475410e+00 5.21866179102800e-02 6.15170922266137e-04
4.25979508196721e+00 5.18920966789344e-02 6.12712724846374e-04
4.27387704918033e+00 5.15992376121308e-02 6.10261015332022e-04
4.28795901639344e+00 5.13080313299262e-02 6.07815816700663e-04
4.30204098360656e+00 5.10184685039653e-02 6.05377151256496e-04
4.31612295081967e+00 5.07305398592145e-02 6.02945039597772e-04
4.33020491803279e+00 5.04442361736396e-02 6.00519502701326e-04
4.34428688524590e+00 5.01595482759395e-02 5.98100560899731e-04
4.35836885245902e+00 4.98764670472310e-02 5.95688233202597e-04
4.37245081967213e+00 4.95949834200938e-02 5.93282538010460e-04
4.38653278688525e+00 4.93150883789124e-02 5.90883493767406e-04
4.40061475409836e+00 4.90367729576850e-02 5.88491118310284e-04
4.41469672131148e+00 4.87600282416456e-02 5.86105427887437e-04
4.42877868852459e+00 4.84848453669542e-02 5.83726439138541e-04
4.44286065573771e+00 4.82112155185623e-02 5.81354168122170e-04
