Energy (eV)          EEDF (eV^-(3/2))     First Anisotropy
2.15000000000000e-02 4.68717168657780e+00 9.32024649413950e-03
6.45000000000000e-02 4.17512634894611e+00 1.45988013211329e-02
1.07500000000000e-01 3.71901888714286e+00 1.72829176229342e-02
1.50500000000000e-01 3.31273842441118e+00 1.83543277906978e-02
1.93500000000000e-01 2.95084166055452e+00 1.85954308933197e-02
2.36500000000000e-01 2.62847994320948e+00 1.83405462108605e-02
2.79500000000000e-01 2.34133430614375e+00 1.77759001298910e-02
3.22500000000000e-01 2.08555760422965e+00 1.70178823411299e-02
3.65500000000000e-01 1.85772296982398e+00 1.61437376553412e-02
4.08500000000000e-01 1.65477789997863e+00 1.52064545029890e-02
4.51500000000000e-01 1.47400335934757e+00 1.42430053611134e-02
4.94500000000000e-01 1.31297735085536e+00 1.32793323854457e-02
5.37500000000000e-01 1.16954246605122e+00 1.23335604468226e-02
5.80500000000000e-01 1.04177698039200e+00 1.14181656599867e-02
6.23500000000000e-01 9.27969106191596e-01 1.05414902305669e-02
6.66500000000000e-01 8.26594058281079e-01 9.70882851183334e-03
7.09500000000000e-01 7.36293625107508e-01 8.92322111503526e-03
7.52500000000000e-01 6.55857971567474e-01 8.18604423266642e-03
7.95500000000000e-01 5.84209429771709e-01 7.49745182677973e-03
8.38500000000000e-01 5.20388060571240e-01 6.85671003789147e-03
8.81500000000000e-01 4.63538792400044e-01 6.26245139964936e-03
9.24500000000000e-01 4.12899965121848e-01 5.71286862914143e-03
9.67500000000000e-01 3.67793125392815e-01 5.20586242972006e-03
1.01050000000000e+00 3.27613936819530e-01 4.73915401677582e-03
1.05350000000000e+00 2.91824083127595e-01 4.31037041883168e-03
1.09650000000000e+00 2.59944055860400e-01 3.91710867603765e-03
1.13950000000000e+00 2.31546729978452e-01 3.55698363432337e-03
1.18250000000000e+00 2.06251641285874e-01 3.22766296887989e-03
1.22550000000000e+00 1.83719889013658e-01 2.92689226522001e-03
1.26850000000000e+00 1.63649595265076e-01 2.65251237046540e-03
1.31150000000000e+00 1.45771860489379e-01 2.40247075282306e-03
1.35450000000000e+00 1.29847160795697e-01 2.17482823840222e-03
1.39750000000000e+00 1.15662138838737e-01 1.96776220610827e-03
1.44050000000000e+00 1.03026745280938e-01 1.77956709456801e-03
1.48350000000000e+00 9.17716925327020e-02 1.60865289590025e-03
1.52650000000000e+00 8.17461866562047e-02 1.45354216910748e-03
1.56950000000000e+00 7.28159070450818e-02 1.31286599290574e-03
1.61250000000000e+00 6.48612068119699e-02 1.18535918777444e-03
1.65550000000000e+00 5.77755097728922e-02 1.06985506512989e-03
1.69850000000000e+00 5.14638825514660e-02 9.65279904092926e-04
1.74150000000000e+00 4.58417626721444e-02 8.70647310419432e-04
1.78450000000000e+00 4.08338256016277e-02 7.85052575494268e-04
1.82750000000000e+00 3.63729755591910e-02 7.07667124033606e-04
1.87050000000000e+00 3.23994465749192e-02 6.37733115845238e-04
1.91350000000000e+00 2.88600017519269e-02 5.74558248501893e-04
1.95650000000000e+00 2.57072200043682e-02 5.17510793157222e-04
1.99950000000000e+00 2.28988607150333e-02 4.66014884228669e-04
2.04250000000000e+00 2.03972978002831e-02 4.19546074681412e-04
2.08550000000000e+00 1.81690155999899e-02 3.77627161683882e-04
2.12850000000000e+00 1.61841598384710e-02 3.39824282072310e-04
2.17150000000000e+00 1.44161376402431e-02 3.05743273038030e-04
2.21450000000000e+00 1.28412612416505e-02 2.75026290476482e-04
2.25750000000000e+00 1.14384306248573e-02 2.47348675299190e-04
2.30050000000000e+00 1.01888508221687e-02 2.22416056537668e-04
2.34350000000000e+00 9.07578010315573e-03 1.99961679121695e-04
2.38650000000000e+00 8.08430567082397e-03 1.79743943680413e-04
2.42950000000000e+00 7.20114386162702e-03 1.61544145501577e-04
2.47250000000000e+00 6.41446217242838e-03 1.45164399817805e-04
2.51550000000000e+00 5.71372072994778e-03 1.30425740808952e-04
2.55850000000000e+00 5.08953107871797e-03 1.17166382068602e-04
2.60150000000000e+00 4.53353039560841e-03 1.05240126741484e-04
2.64450000000000e+00 4.03826944565638e-03 9.45149160665841e-05
2.68750000000000e+00 3.59711277805018e-03 8.48715056333885e-05
2.73050000000000e+00 3.20414982510131e-03 7.62022592567795e-05
2.77350000000000e+00 2.85411571311973e-03 6.84100509846129e-05
2.81650000000000e+00 2.54232072422499e-03 6.14072663593004e-05
2.85950000000000e+00 2.26458746403067e-03 5.51148946520242e-05
2.90250000000000e+00 2.01719489338159e-03 4.94617043689118e-05
2.94550000000000e+00 1.79682847428748e-03 4.43834948878640e-05
2.98850000000000e+00 1.60053576211365e-03 3.98224176194170e-05
3.03150000000000e+00 1.42568684905806e-03 3.57263605928784e-05
3.07450000000000e+00 1.26993912894074e-03 3.20483908487409e-05
3.11750000000000e+00 1.13120591122818e-03 2.87462494695147e-05
3.16050000000000e+00 1.00762846378701e-03 2.57818945036225e-05
3.20350000000000e+00 8.97551109798766e-04 2.31210874313279e-05
3.24650000000000e+00 7.99499045187036e-04 2.07330191885345e-05
3.28950000000000e+00 7.12158579357439e-04 1.85899721047095e-05
3.33250000000000e+00 6.34359534517966e-04 1.66670144262658e-05
3.37550000000000e+00 5.65059567767807e-04 1.49417243877508e-05
3.41850000000000e+00 5.03330205903760e-04 1.33939410614299e-05
3.46150000000000e+00 4.48344405840101e-04 1.20055394626744e-05
3.50450000000000e+00 3.99365473977828e-04 1.07602276153036e-05
3.54750000000000e+00 3.55737196066225e-04 9.64336348901356e-06
3.59050000000000e+00 3.16875045317727e-04 8.64178991155287e-06
3.63350000000000e+00 2.82258350983402e-04 7.74368573261614e-06
3.67650000000000e+00 2.51423322464491e-04 6.93843167572519e-06
3.71950000000000e+00 2.23956835497848e-04 6.21648945979139e-06
3.76250000000000e+00 1.99490897163264e-04 5.56929290467856e-06
3.80550000000000e+00 1.77697715555490e-04 4.98914985593222e-06
3.84850000000000e+00 1.58285308064946e-04 4.46915387385870e-06
3.89150000000000e+00 1.40993589427384e-04 4.00310473222035e-06
3.93450000000000e+00 1.25590887130605e-04 3.58543686278769e-06
3.97750000000000e+00 1.11870837492055e-04 3.21115496463063e-06
4.02050000000000e+00 9.96496208212871e-05 2.87577607205113e-06
4.06350000000000e+00 8.87634986243084e-05 2.57527744312098e-06
4.10650000000000e+00 7.90666198535548e-05 2.30604969250110e-06
4.14950000000000e+00 7.04290668118679e-05 2.06485464814420e-06
4.19250000000000e+00 6.27351145297194e-05 1.84878746213746e-06
4.23550000000000e+00 5.58816802950144e-05 1.65524255180155e-06
4.27850000000000e+00 4.97769425624442e-05 1.48188298866054e-06
4.32150000000000e+00 4.43391107386928e-05 1.32661299043326e-06
4.36450000000000e+00 3.94953293612159e-05 1.18755320513446e-06
4.40750000000000e+00 3.51807019889031e-05 1.06301850704683e-06
4.45050000000000e+00 3.13374217268183e-05 9.51498052035848e-07
4.49350000000000e+00 2.79139967358872e-05 8.51637364706485e-07
4.53650000000000e+00 2.48645603509971e-05 7.62222252495074e-07
4.57950000000000e+00 2.21482565645478e-05 6.82164362182416e-07
4.62250000000000e+00 1.97286926422313e-05 6.10488212713012e-07
4.66550000000000e+00 1.75734515372487e-05 5.46319554801053e-07
4.70850000000000e+00 1.56536575703428e-05 4.88874922768616e-07
4.75150000000000e+00 1.39435895566770e-05 4.37452257552030e-07
4.79450000000000e+00 1.24203361962781e-05 3.91422491970704e-07
4.83750000000000e+00 1.10634891110019e-05 3.50222000307743e-07
4.88050000000000e+00 9.85486941536548e-06 3.13345824120014e-07
4.92350000000000e+00 8.77828415787278e-06 2.80341595082797e-07
4.96650000000000e+00 7.81930936966174e-06 2.50804083676494e-07
5.00950000000000e+00 6.96509681378282e-06 2.24370309726617e-07
5.05250000000000e+00 6.20420184595742e-06 2.00715157291892e-07
5.09550000000000e+00 5.52643008051398e-06 1.79547442229590e-07
5.13850000000000e+00 4.92270080714898e-06 1.60606386016116e-07
5.18150000000000e+00 4.38492532858598e-06 1.43658454122434e-07
5.22450000000000e+00 3.90589858911427e-06 1.28494521490187e-07
5.26750000000000e+00 3.47920264205833e-06 1.14927331472663e-07
5.31050000000000e+00 3.09912066284615e-06 1.02789218037559e-07
5.35350000000000e+00 2.76056035563304e-06 9.19300641143023e-08
5.39650000000000e+00 2.45898572729149e-06 8.22154717420954e-08
5.43950000000000e+00 2.19035631468259e-06 7.35251221671090e-08
5.48250000000000e+00 1.95107305098286e-06 6.57513062765949e-08
5.52550000000000e+00 1.73793004578946e-06 5.87976077694182e-08
5.56850000000000e+00 1.54807163295922e-06 5.25777232695856e-08
5.61150000000000e+00 1.37895411071301e-06 4.70144052123340e-08
5.65450000000000e+00 1.22831166140385e-06 4.20385147898266e-08
5.69750000000000e+00 1.09412599434550e-06 3.75881735521821e-08
5.74050000000000e+00 9.74599304979598e-07 3.36080034345070e-08
5.78350000000000e+00 8.68130188091277e-07 3.00484460353407e-08
5.82650000000000e+00 7.73292182361215e-07 2.68651529186411e-08
5.86950000000000e+00 6.88814658796427e-07 2.40184395611294e-08
5.91250000000000e+00 6.13565796985141e-07 2.14727963293112e-08
5.95550000000000e+00 5.46537421093519e-07 1.91964505546875e-08
5.99850000000000e+00 4.86831492438598e-07 1.71609743895430e-08
6.04150000000000e+00 4.33648077666467e-07 1.53409336764127e-08
6.08450000000000e+00 3.86274631334661e-07 1.37135735583458e-08
6.12750000000000e+00 3.44076449308024e-07 1.22585370001919e-08
6.17050000000000e+00 3.06488165063700e-07 1.09576127885456e-08
6.21350000000000e+00 2.73006174973694e-07 9.79450993437943e-09
6.25650000000000e+00 2.43181891079796e-07 8.75465572197995e-09
6.29950000000000e+00 2.16615730962290e-07 7.82501493434940e-09
6.34250000000000e+00 1.92951764179392e-07 6.99392804214808e-09
6.38550000000000e+00 1.71872943550997e-07 6.25096637356883e-09
6.42850000000000e+00 1.53096857396027e-07 5.58680248899655e-09
6.47150000000000e+00 1.36371945812314e-07 4.99309416936698e-09
6.51450000000000e+00 1.21474130305168e-07 4.46238059300732e-09
6.55750000000000e+00 1.08203811608769e-07 3.98798942439405e-09
6.60050000000000e+00 9.63831954775306e-08 3.56395367148010e-09
6.64350000000000e+00 8.58539106186810e-08 3.18493728761715e-09
6.68650000000000e+00 7.64748868513995e-08 2.84616860106139e-09
6.72950000000000e+00 6.81204650643111e-08 2.54338075088614e-09
6.77250000000000e+00 6.06787136487684e-08 2.27275839398436e-09
6.81550000000000e+00 5.40499288516780e-08 2.03089002476164e-09
6.85850000000000e+00 4.81452989557689e-08 1.81472531802263e-09
6.90150000000000e+00 4.28857143901385e-08 1.62153696727314e-09
6.94450000000000e+00 3.82007078290694e-08 1.44888654594043e-09
6.98750000000000e+00 3.40275100786822e-08 1.29459396852617e-09
7.03050000000000e+00 3.03102091022963e-08 1.15671017304789e-09
7.07350000000000e+00 2.69990009172162e-08 1.03349268583427e-09
7.11650000000000e+00 2.40495223265423e-08 9.23383765298682e-10
7.15950000000000e+00 2.14222565460208e-08 8.24990853156470e-10
7.20250000000000e+00 1.90820037625883e-08 7.37069090061059e-10
7.24550000000000e+00 1.69974095312135e-08 6.58505678160405e-10
7.28850000000000e+00 1.51405446915497e-08 5.88305895928501e-10
7.33150000000000e+00 1.34865311761684e-08 5.25580591086236e-10
7.37450000000000e+00 1.20132086969948e-08 4.69534995741379e-10
7.41750000000000e+00 1.07008378442463e-08 4.19458724272792e-10
7.46050000000000e+00 9.53183562002878e-09 3.74716829159808e-10
7.50350000000000e+00 8.49053986329689e-09 3.34741803093731e-10
7.54650000000000e+00 7.56299940997262e-09 2.99026427465655e-10
7.58950000000000e+00 6.73678717680924e-09 2.67117377847531e-10
7.63250000000000e+00 6.00083366472003e-09 2.38609506500808e-10
7.67550000000000e+00 5.34527865086762e-09 2.13140730374826e-10
7.71850000000000e+00 4.76133908250134e-09 1.90387460599047e-10
7.76150000000000e+00 4.24119140259880e-09 1.70060516222083e-10
7.80450000000000e+00 3.77786673072406e-09 1.51901470989420e-10
7.84750000000000e+00 3.36515749474694e-09 1.35679387355214e-10
7.89050000000000e+00 2.99753426248605e-09 1.21187896758260e-10
7.93350000000000e+00 2.67007165899481e-09 1.08242589517832e-10
7.97650000000000e+00 2.37838237693888e-09 9.66786815751240e-11
8.01950000000000e+00 2.11855839594320e-09 8.63489287682521e-11
8.06250000000000e+00 1.88711862337212e-09 7.71217624261024e-11
8.10550000000000e+00 1.68096225503966e-09 6.88796228371188e-11
8.14850000000000e+00 1.49732723098183e-09 6.15174696276738e-11
8.19150000000000e+00 1.33375322968619e-09 5.49414503017765e-11
8.23450000000000e+00 1.18804870497939e-09 4.90677101770128e-11
8.27750000000000e+00 1.05826152393670e-09 4.38213287254300e-11
8.32050000000000e+00 9.42652812423417e-10 3.91353689146072e-11
8.36350000000000e+00 8.39673657853721e-10 3.49500275631219e-11
8.40650000000000e+00 7.47944357033069e-10 3.12118759936918e-11
8.44950000000000e+00 6.66235931049141e-10 2.78731814022359e-11
8.49250000000000e+00 5.93453659549825e-10 2.48913003760967e-11
8.53550000000000e+00 5.28622413802389e-10 2.22281369023563e-11
8.57850000000000e+00 4.70873592027793e-10 1.98496580188738e-11
8.62150000000000e+00 4.19433481971199e-10 1.77254609865080e-11
8.66450000000000e+00 3.73612894791731e-10 1.58283865100255e-11
8.70750000000000e+00 3.32797931387466e-10 1.41341731155441e-11
8.75050000000000e+00 2.96441757443935e-10 1.26211483112714e-11
8.79350000000000e+00 2.64057277009139e-10 1.12699526222728e-11
8.83650000000000e+00 2.35210606436471e-10 1.00632930048279e-11
8.87950000000000e+00 2.09515261260146e-10 8.98572251682738e-12
8.92250000000000e+00 1.86626978119558e-10 8.02344345224551e-12
8.96550000000000e+00 1.66239102357281e-10 7.16413144417461e-12
9.00850000000000e+00 1.48078479494271e-10 6.39677830592817e-12
9.05150000000000e+00 1.31901795536703e-10 5.71155161664219e-12
9.09450000000000e+00 1.17492317082303e-10 5.09966926960158e-12
9.13750000000000e+00 1.04656987550463e-10 4.55328739085008e-12
9.18050000000000e+00 9.32238406317683e-11 4.06540020488595e-12
9.22350000000000e+00 8.30396963026179e-11 3.62975057553035e-12
9.26650000000000e+00 7.39681085364034e-11 3.24075008528346e-12
9.30950000000000e+00 6.58875372149051e-11 2.89340763735467e-12
9.35250000000000e+00 5.86897197473827e-11 2.58326567259145e-12
9.39550000000000e+00 5.22782205804941e-11 2.30634319009519e-12
9.43850000000000e+00 4.65671391655381e-11 2.05908484661939e-12
9.48150000000000e+00 4.14799590725109e-11 1.83831548698299e-12
9.52450000000000e+00 3.69485228315355e-11 1.64119952667236e-12
9.56750000000000e+00 3.29121187667041e-11 1.46520466941921e-12
9.61050000000000e+00 2.93166675878344e-11 1.30806949760574e-12
9.65350000000000e+00 2.61139978421890e-11 1.16777452255806e-12
9.69650000000000e+00 2.32612005187397e-11 1.04251632576585e-12
9.73950000000000e+00 2.07200541580369e-11 9.30684461365564e-13
9.78250000000000e+00 1.84565127653714e-11 8.30840825343922e-13
9.82550000000000e+00 1.64402496663450e-11 7.41701228300707e-13
9.86850000000000e+00 1.46442511934794e-11 6.62118936653280e-13
9.91150000000000e+00 1.30444547601204e-11 5.91069972223659e-13
9.95450000000000e+00 1.16194264725938e-11 5.27639982540158e-13
9.99750000000000e+00 1.03500739612951e-11 4.71012514192895e-13
1.00405000000000e+01 9.21939058325705e-12 4.20458539459338e-13
1.00835000000000e+01 8.21222756904945e-12 3.75327102389083e-13
1.01265000000000e+01 7.31509106126083e-12 3.35036964808774e-13
1.01695000000000e+01 6.51596132530602e-12 2.99069145459297e-13
1.02125000000000e+01 5.80413171036667e-12 2.66960256870099e-13
1.02555000000000e+01 5.17006520288114e-12 2.38296554754110e-13
1.02985000000000e+01 4.60526665070353e-12 2.12708623800508e-13
1.03415000000000e+01 4.10216894600539e-12 1.89866631867039e-13
1.03845000000000e+01 3.65403164201149e-12 1.69476091831889e-13
1.04275000000000e+01 3.25485064524781e-12 1.51274076849447e-13
1.04705000000000e+01 2.89927777336877e-12 1.35025840547194e-13
1.05135000000000e+01 2.58254910080834e-12 1.20521798875945e-13
1.05565000000000e+01 2.30042113223817e-12 1.07574834948689e-13
1.05995000000000e+01 2.04911394869185e-12 9.60178923330433e-14
1.06425000000000e+01 1.82526056463333e-12 8.57018259514841e-14
1.06855000000000e+01 1.62586181746138e-12 7.64934830389662e-14
1.07285000000000e+01 1.44824618506446e-12 6.82739895512840e-14
1.07715000000000e+01 1.29003399306631e-12 6.09372200470288e-14
1.08145000000000e+01 1.14910553221485e-12 5.43884314148010e-14
1.08575000000000e+01 1.02357265875465e-12 4.85430429153434e-14
1.09005000000000e+01 9.11753497288168e-13 4.33255468822422e-14
1.09435000000000e+01 8.12149907197222e-13 3.86685360986840e-14
1.09865000000000e+01 7.23427410722603e-13 3.45118353628214e-14
1.10295000000000e+01 6.44397313780300e-13 3.08017260896430e-14
1.10725000000000e+01 5.74000779971126e-13 2.74902539899374e-14
1.11155000000000e+01 5.11294644409074e-13 2.45346109321877e-14
1.11585000000000e+01 4.55438777303668e-13 2.18965830446457e-14
1.12015000000000e+01 4.05684827995000e-13 1.95420579645680e-14
1.12445000000000e+01 3.61366198635295e-13 1.74405849005047e-14
1.12875000000000e+01 3.21889113185502e-13 1.55649818513062e-14
1.13305000000000e+01 2.86724662070341e-13 1.38909849308362e-14
1.13735000000000e+01 2.55401715906974e-13 1.23969352879696e-14
1.14165000000000e+01 2.27500613366226e-13 1.10634995942411e-14
1.14595000000000e+01 2.02647538597042e-13 9.87342050266095e-15
1.15025000000000e+01 1.80509512883520e-13 8.81129386625604e-15
1.15455000000000e+01 1.60789933433326e-13 7.86336984873669e-15
1.15885000000000e+01 1.43224599526653e-13 7.01737536675941e-15
1.16315000000000e+01 1.27578172784531e-13 6.26235557746160e-15
1.16745000000000e+01 1.13641024131548e-13 5.58853236981330e-15
1.17175000000000e+01 1.01226425208944e-13 4.98717803699393e-15
1.17605000000000e+01 9.01680466089476e-14 4.45050250226211e-15
1.18035000000000e+01 8.03177294119734e-14 3.97155264514678e-15
1.18465000000000e+01 7.15435001699908e-14 3.54412243048203e-15
1.18895000000000e+01 6.37278027410277e-14 3.16267268183524e-15
1.19325000000000e+01 5.67659232851293e-14 2.82225946501823e-15
1.19755000000000e+01 5.05645873200432e-14 2.51847015821881e-15
1.20185000000000e+01 4.50407100401389e-14 2.24736638426751e-15
1.20615000000000e+01 4.01202831554748e-14 2.00543306892984e-15
1.21045000000000e+01 3.57373833370082e-14 1.78953296802525e-15
1.21475000000000e+01 3.18332889832058e-14 1.59686607663098e-15
1.21905000000000e+01 2.83556934745946e-14 1.42493339653779e-15
1.22335000000000e+01 2.52580043755251e-14 1.27150459429393e-15
1.22765000000000e+01 2.24987191939296e-14 1.13458913232342e-15
1.23195000000000e+01 2.00408693355756e-14 1.01241050038137e-15
1.23625000000000e+01 1.78515248029755e-14 9.03383214586109e-16
1.24055000000000e+01 1.59013530029633e-14 8.06092286960830e-16
1.24485000000000e+01 1.41642257518922e-14 7.19274900284072e-16
1.24915000000000e+01 1.26168692131531e-14 6.41804051499085e-16
1.25345000000000e+01 1.12385520769143e-14 5.72673952332669e-16
1.25775000000000e+01 1.00108078043514e-14 5.10986998451199e-16
1.26205000000000e+01 8.91718721502591e-15 4.55942138727108e-16
1.26635000000000e+01 7.94303810260530e-15 4.06824494263597e-16
1.27065000000000e+01 7.07530892624152e-15 3.62996092961461e-16
1.27495000000000e+01 6.30237394748658e-15 3.23887599817343e-16
1.27925000000000e+01 5.61387746994918e-15 2.88990936003061e-16
1.28355000000000e+01 5.00059509483274e-15 2.57852691256336e-16
1.28785000000000e+01 4.45431013347208e-15 2.43361113930854e-16
