Energy (eV)          EEDF (eV^-(3/2))     First Anisotropy
1.34000000000000e-02 1.47513311126927e-01 7.81734814343505e-05
4.02000000000000e-02 1.46496137959343e-01 1.29075507321352e-04
6.70000000000000e-02 1.45485978676219e-01 1.70364814757320e-04
9.38000000000000e-02 1.44482784913198e-01 2.01714692247629e-04
1.20600000000000e-01 1.43486508639699e-01 2.27846046767442e-04
1.47400000000000e-01 1.42497102156377e-01 2.50543834595482e-04
1.74200000000000e-01 1.41514518092813e-01 2.70731792806326e-04
2.01000000000000e-01 1.40538709405230e-01 2.88967750625154e-04
2.27800000000000e-01 1.39569629374243e-01 3.05621677477608e-04
2.54600000000000e-01 1.38607231602623e-01 3.20955064970752e-04
2.81400000000000e-01 1.37651470013068e-01 3.35161486222520e-04
3.08200000000000e-01 1.36702298846003e-01 3.48389385241865e-04
3.35000000000000e-01 1.35759672657387e-01 3.60755816965960e-04
3.61800000000000e-01 1.34823546316536e-01 3.72355196072812e-04
3.88600000000000e-01 1.33893875003966e-01 3.83265116150714e-04
4.15400000000000e-01 1.32970614209240e-01 3.93550361126406e-04
4.42200000000000e-01 1.32053719728845e-01 4.03265754370444e-04
4.69000000000000e-01 1.31143147664070e-01 4.12458234228644e-04
4.95800000000000e-01 1.30238854418907e-01 4.21168399355787e-04
5.22600000000000e-01 1.29340796697962e-01 4.29431681330070e-04
5.49400000000000e-01 1.28448931504384e-01 4.37279249396698e-04
5.76200000000000e-01 1.27563216137805e-01 4.44738718912153e-04
6.03000000000000e-01 1.26683608192296e-01 4.51834713432470e-04
6.29800000000000e-01 1.25810065554336e-01 4.58589315985186e-04
6.56600000000000e-01 1.24942546400797e-01 4.65022435261984e-04
6.83400000000000e-01 1.24081009196941e-01 4.71152105666690e-04
7.10200000000000e-01 1.23225412694433e-01 4.76994735349149e-04
7.37000000000000e-01 1.22375715929361e-01 4.82565312908669e-04
7.63800000000000e-01 1.21531878220280e-01 4.87877580940998e-04
7.90600000000000e-01 1.20693859166265e-01 4.92944182751390e-04
8.17400000000000e-01 1.19861618644970e-01 4.97776787173919e-04
8.44200000000000e-01 1.19035116810715e-01 5.02386195392572e-04
8.71000000000000e-01 1.18214314092571e-01 5.06782432862962e-04
8.97800000000000e-01 1.17399171192473e-01 5.10974828819397e-04
9.24600000000000e-01 1.16589649083331e-01 5.14972085374736e-04
9.51400000000000e-01 1.15785709007168e-01 5.18782337845809e-04
9.78200000000000e-01 1.14987312473259e-01 5.22413207641757e-04
1.00500000000000e+00 1.14194421256291e-01 5.25871848816827e-04
1.03180000000000e+00 1.13406997394533e-01 5.29164989200520e-04
1.05860000000000e+00 1.12625003188018e-01 5.32298966865945e-04
1.08540000000000e+00 1.11848401196737e-01 5.35279762573131e-04
1.11220000000000e+00 1.11077154238849e-01 5.38113028723559e-04
1.13900000000000e+00 1.10311225388897e-01 5.40804115278994e-04
1.16580000000000e+00 1.09550577976043e-01 5.43358093029672e-04
1.19260000000000e+00 1.08795175582313e-01 5.45779774539881e-04
1.21940000000000e+00 1.08044982040850e-01 5.48073733051670e-04
1.24620000000000e+00 1.07299961434186e-01 5.50244319588326e-04
1.27300000000000e+00 1.06560078092518e-01 5.52295678465692e-04
1.29980000000000e+00 1.05825296592007e-01 5.54231761391252e-04
1.32660000000000e+00 1.05095581753074e-01 5.56056340307451e-04
1.35340000000000e+00 1.04370898638723e-01 5.57773019115493e-04
1.38020000000000e+00 1.03651212552862e-01 5.59385244398236e-04
1.40700000000000e+00 1.02936489038646e-01 5.60896315246679e-04
1.43380000000000e+00 1.02226693876827e-01 5.62309392281304e-04
1.46060000000000e+00 1.01521793084112e-01 5.63627505948836e-04
1.48740000000000e+00 1.00821752911543e-01 5.64853564165746e-04
1.51420000000000e+00 1.00126539842872e-01 5.65990359371147e-04
1.54100000000000e+00 9.94361205929646e-02 5.67040575045245e-04
1.56780000000000e+00 9.87504621062014e-02 5.68006791742941e-04
1.59460000000000e+00 9.80695315548973e-02 5.68891492686488e-04
1.62140000000000e+00 9.73932963377296e-02 5.69697068957074e-04
1.64820000000000e+00 9.67217240781767e-02 5.70425824320749e-04
1.67500000000000e+00 9.60547826229682e-02 5.71079979719986e-04
1.70180000000000e+00 9.53924400405458e-02 5.71661677459639e-04
1.72860000000000e+00 9.47346646195339e-02 5.72172985112949e-04
1.75540000000000e+00 9.40814248672217e-02 5.72615899170401e-04
1.78220000000000e+00 9.34326895080556e-02 5.72992348452603e-04
1.80900000000000e+00 9.27884274821413e-02 5.73304197305835e-04
1.83580000000000e+00 9.21486079437570e-02 5.73553248597349e-04
1.86260000000000e+00 9.15132002598767e-02 5.73741246526165e-04
1.88940000000000e+00 9.08821740087032e-02 5.73869879263096e-04
1.91620000000000e+00 9.02554989782120e-02 5.73940781432945e-04
1.94300000000000e+00 8.96331451647045e-02 5.73955536450825e-04
1.96980000000000e+00 8.90150827713716e-02 5.73915678722783e-04
1.99660000000000e+00 8.84012822068672e-02 5.73822695720865e-04
2.02340000000000e+00 8.77917140838914e-02 5.73678029941365e-04
2.05020000000000e+00 8.71863492177833e-02 5.73483080754339e-04
2.07700000000000e+00 8.65851586251239e-02 5.73239206152061e-04
2.10380000000000e+00 8.59881135223485e-02 5.72947724403231e-04
2.13060000000000e+00 8.53951853243684e-02 5.72609915619217e-04
2.15740000000000e+00 8.48063456432026e-02 5.72227023238097e-04
2.18420000000000e+00 8.42215662866183e-02 5.71800255432124e-04
2.21100000000000e+00 8.36408192567815e-02 5.71330786443196e-04
2.23780000000000e+00 8.30640767489161e-02 5.70819757851198e-04
2.26460000000000e+00 8.24913111499731e-02 5.70268279779258e-04
2.29140000000000e+00 8.19224950373084e-02 5.69677432039990e-04
2.31820000000000e+00 8.13576011773696e-02 5.69048265226219e-04
2.34500000000000e+00 8.07966025243926e-02 5.68381801749585e-04
2.37180000000000e+00 8.02394722191064e-02 5.67679036830099e-04
2.39860000000000e+00 7.96861835874472e-02 5.66940939439610e-04
2.42540000000000e+00 7.91367101392813e-02 5.66168453201912e-04
2.45220000000000e+00 7.85910255671370e-02 5.65362497251852e-04
2.47900000000000e+00 7.80491037449447e-02 5.64523967055895e-04
2.50580000000000e+00 7.75109187267862e-02 5.63653735196267e-04
2.53260000000000e+00 7.69764447456528e-02 5.62752652120652e-04
2.55940000000000e+00 7.64456562122112e-02 5.61821546859514e-04
2.58620000000000e+00 7.59185277135784e-02 5.60861227712648e-04
2.61300000000000e+00 7.53950340121053e-02 5.59872482906601e-04
2.63980000000000e+00 7.48751500441681e-02 5.58856081224768e-04
2.66660000000000e+00 7.43588509189683e-02 5.57812772611059e-04
2.69340000000000e+00 7.38461119173413e-02 5.56743288749115e-04
2.72020000000000e+00 7.33369084905724e-02 5.55648343618187e-04
2.74700000000000e+00 7.28312162592219e-02 5.54528634026397e-04
2.77380000000000e+00 7.23290110119577e-02 5.53384840123159e-04
2.80060000000000e+00 7.18302687043963e-02 5.52217625891545e-04
2.82740000000000e+00 7.13349654579512e-02 5.51027639621359e-04
2.85420000000000e+00 7.08430775586900e-02 5.49815514364147e-04
2.88100000000000e+00 7.03545814561990e-02 5.48581868371067e-04
2.90780000000000e+00 6.98694537624554e-02 5.47327305514218e-04
2.93460000000000e+00 6.93876712507081e-02 5.46052415692184e-04
2.96140000000000e+00 6.89092108543650e-02 5.44757775220871e-04
2.98820000000000e+00 6.84340496658890e-02 5.43443947210003e-04
3.01500000000000e+00 6.79621649357011e-02 5.42111481925960e-04
3.04180000000000e+00 6.74935340710915e-02 5.40760917141788e-04
3.06860000000000e+00 6.70281346351375e-02 5.39392778474760e-04
3.09540000000000e+00 6.65659443456293e-02 5.38007579712059e-04
3.12220000000000e+00 6.61069410740036e-02 5.36605823125273e-04
3.14900000000000e+00 6.56511028442840e-02 5.35187999774106e-04
3.17580000000000e+00 6.51984078320282e-02 5.33754589799564e-04
3.20260000000000e+00 6.47488343632842e-02 5.32306062707362e-04
3.22940000000000e+00 6.43023609135517e-02 5.30842877641934e-04
3.25620000000000e+00 6.38589661067519e-02 5.29365483651294e-04
3.28300000000000e+00 6.34186287142042e-02 5.27874319943178e-04
3.30980000000000e+00 6.29813276536095e-02 5.26369816132886e-04
3.33660000000000e+00 6.25470419880411e-02 5.24852392483131e-04
3.36340000000000e+00 6.21157509249421e-02 5.23322460136249e-04
3.39020000000000e+00 6.16874338151300e-02 5.21780421339056e-04
3.41700000000000e+00 6.12620701518082e-02 5.20226669660582e-04
3.44380000000000e+00 6.08396395695838e-02 5.18661590203100e-04
3.47060000000000e+00 6.04201218434931e-02 5.17085559806595e-04
3.49740000000000e+00 6.00034968880326e-02 5.15498947247011e-04
3.52420000000000e+00 5.95897447561981e-02 5.13902113428459e-04
3.55100000000000e+00 5.91788456385290e-02 5.12295411569619e-04
3.57780000000000e+00 5.87707798621603e-02 5.10679187384648e-04
3.60460000000000e+00 5.83655278898808e-02 5.09053779258638e-04
3.63140000000000e+00 5.79630703191970e-02 5.07419518417931e-04
3.65820000000000e+00 5.75633878814052e-02 5.05776729095569e-04
3.68500000000000e+00 5.71664614406680e-02 5.04125728691888e-04
3.71180000000000e+00 5.67722719930988e-02 5.02466827930443e-04
3.73860000000000e+00 5.63808006658516e-02 5.00800331009631e-04
3.76540000000000e+00 5.59920287162174e-02 4.99126535749918e-04
3.79220000000000e+00 5.56059375307269e-02 4.97445733736965e-04
3.81900000000000e+00 5.52225086242596e-02 4.95758210460809e-04
3.84580000000000e+00 5.48417236391583e-02 4.94064245451168e-04
3.87260000000000e+00 5.44635643443506e-02 4.92364112408999e-04
3.89940000000000e+00 5.40880126344756e-02 4.90658079334550e-04
3.92620000000000e+00 5.37150505290176e-02 4.88946408651936e-04
3.95300000000000e+00 5.33446601714448e-02 4.87229357330309e-04
3.97980000000000e+00 5.29768238283546e-02 4.85507177001840e-04
4.00660000000000e+00 5.26115238886244e-02 4.83780114076622e-04
4.03340000000000e+00 5.22487428625686e-02 4.82048409854490e-04
4.06020000000000e+00 5.18884633811011e-02 4.80312300633948e-04
4.08700000000000e+00 5.15306681949038e-02 4.78572017818267e-04
4.11380000000000e+00 5.11753401736007e-02 4.76827788018860e-04
4.14060000000000e+00 5.08224623049377e-02 4.75079833156014e-04
4.16740000000000e+00 5.04720176939681e-02 4.73328370557056e-04
4.19420000000000e+00 5.01239895622439e-02 4.71573613052060e-04
4.22100000000000e+00 4.97783612470122e-02 4.69815769067096e-04
4.24780000000000e+00 4.94351162004177e-02 4.68055042715258e-04
4.27460000000000e+00 4.90942379887100e-02 4.66291633885342e-04
4.30140000000000e+00 4.87557102914573e-02 4.64525738328386e-04
4.32820000000000e+00 4.84195169007649e-02 4.62757547742094e-04
4.35500000000000e+00 4.80856417204990e-02 4.60987249853197e-04
4.38180000000000e+00 4.77540687655160e-02 4.59215028497878e-04
4.40860000000000e+00 4.74247821608975e-02 4.57441063700188e-04
4.43540000000000e+00 4.70977661411901e-02 4.55665531748595e-04
4.46220000000000e+00 4.67730050496504e-02 4.53888605270798e-04
4.48900000000000e+00 4.64504833374958e-02 4.52110453306700e-04
4.51580000000000e+00 4.61301855631596e-02 4.50331241379730e-04
4.54260000000000e+00 4.58120963915521e-02 4.48551131566457e-04
4.56940000000000e+00 4.54962005933259e-02 4.46770282564596e-04
4.59620000000000e+00 4.51824830441475e-02 4.44988849759475e-04
4.62300000000000e+00 4.48709287239723e-02 4.43206985288914e-04
4.64980000000000e+00 4.45615227163262e-02 4.41424838106711e-04
4.67660000000000e+00 4.42542502075911e-02 4.39642554044667e-04
4.70340000000000e+00 4.39490964862957e-02 4.37860275873186e-04
4.73020000000000e+00 4.36460469424112e-02 4.36078143360504e-04
4.75700000000000e+00 4.33450870666516e-02 4.34296293330679e-04
4.78380000000000e+00 4.30462024497794e-02 4.32514859720187e-04
4.81060000000000e+00 4.27493787819155e-02 4.30733973633288e-04
4.83740000000000e+00 4.24546018518540e-02 4.28953763396280e-04
4.86420000000000e+00 4.21618575463820e-02 4.27174354610442e-04
4.89100000000000e+00 4.18711318496036e-02 4.25395870203951e-04
4.91780000000000e+00 4.15824108422694e-02 4.23618430482538e-04
4.94460000000000e+00 4.12956807011094e-02 4.21842153179102e-04
4.97140000000000e+00 4.10109276981716e-02 4.20067153502368e-04
4.99820000000000e+00 4.07281382001648e-02 4.18293544184380e-04
5.02500000000000e+00 4.04472986678054e-02 4.16521435527014e-04
5.05180000000000e+00 4.01683956551698e-02 4.14750935447525e-04
5.07860000000000e+00 3.98914158090502e-02 4.12982149523152e-04
5.10540000000000e+00 3.96163458683152e-02 4.11215181034767e-04
5.13220000000000e+00 3.93431726632754e-02 4.09450131009606e-04
5.15900000000000e+00 3.90718831150524e-02 4.07687098263152e-04
5.18580000000000e+00 3.88024642349528e-02 4.05926179440142e-04
5.21260000000000e+00 3.85349031238464e-02 4.04167469054691e-04
5.23940000000000e+00 3.82691869715483e-02 4.02411059529646e-04
5.26620000000000e+00 3.80053030562060e-02 4.00657041235080e-04
5.29300000000000e+00 3.77432387436901e-02 3.98905502526107e-04
5.31980000000000e+00 3.74829814869893e-02 3.97156529779858e-04
5.34660000000000e+00 3.72245188256100e-02 3.95410207431689e-04
5.37340000000000e+00 3.69678383849793e-02 3.93666618010750e-04
5.40020000000000e+00 3.67129278758530e-02 3.91925842174726e-04
5.42700000000000e+00 3.64597750937267e-02 3.90187958744027e-04
5.45380000000000e+00 3.62083679182519e-02 3.88453044735214e-04
5.48060000000000e+00 3.59586943126557e-02 3.86721175393779e-04
5.50740000000000e+00 3.57107423231642e-02 3.84992424226296e-04
5.53420000000000e+00 3.54645000784303e-02 3.83266863031912e-04
5.56100000000000e+00 3.52199557889655e-02 3.81544561933271e-04
5.58780000000000e+00 3.49770977465754e-02 3.79825589406817e-04
5.61460000000000e+00 3.47359143237987e-02 3.78110012312484e-04
5.64140000000000e+00 3.44963939733515e-02 3.76397895922865e-04
5.66820000000000e+00 3.42585252275731e-02 3.74689303951804e-04
5.69500000000000e+00 3.40222966978783e-02 3.72984298582378e-04
5.72180000000000e+00 3.37876970742112e-02 3.71282940494477e-04
5.74860000000000e+00 3.35547151245039e-02 3.69585288891752e-04
5.77540000000000e+00 3.33233396941392e-02 3.67891401528056e-04
5.80220000000000e+00 3.30935597054159e-02 3.66201334733437e-04
5.82900000000000e+00 3.28653641570189e-02 3.64515143439635e-04
5.85580000000000e+00 3.26387421234923e-02 3.62832881205071e-04
5.88260000000000e+00 3.24136827547161e-02 3.61154600239396e-04
5.90940000000000e+00 3.21901752753871e-02 3.59480351427556e-04
5.93620000000000e+00 3.19682089845030e-02 3.57810184353435e-04
5.96300000000000e+00 3.17477732548497e-02 3.56144147323097e-04
5.98980000000000e+00 3.15288575324927e-02 3.54482287387472e-04
6.01660000000000e+00 3.13114513362720e-02 3.52824650364759e-04
6.04340000000000e+00 3.10955442572998e-02 3.51171280862396e-04
6.07020000000000e+00 3.08811259584627e-02 3.49522222298543e-04
6.09700000000000e+00 3.06681861739265e-02 3.47877516923270e-04
6.12380000000000e+00 3.04567147086445e-02 3.46237205839304e-04
6.15060000000000e+00 3.02467014378699e-02 3.44601329022423e-04
6.17740000000000e+00 3.00381363066705e-02 3.42969925341483e-04
6.20420000000000e+00 2.98310093294477e-02 3.41343032578081e-04
6.23100000000000e+00 2.96253105894583e-02 3.39720687445868e-04
6.25780000000000e+00 2.94210302383395e-02 3.38102925609481e-04
6.28460000000000e+00 2.92181584956377e-02 3.36489781703183e-04
6.31140000000000e+00 2.90166856483401e-02 3.34881289349200e-04
6.33820000000000e+00 2.88166020504096e-02 3.33277481175615e-04
6.36500000000000e+00 2.86178981223231e-02 3.31678388834040e-04
6.39180000000000e+00 2.84205643506127e-02 3.30084043016984e-04
6.41860000000000e+00 2.82245912874103e-02 3.28494473474893e-04
6.44540000000000e+00 2.80299695499954e-02 3.26909709032829e-04
6.47220000000000e+00 2.78366898203456e-02 3.25329777606934e-04
6.49900000000000e+00 2.76447428446906e-02 3.23754706220585e-04
6.52580000000000e+00 2.74541194330694e-02 3.22184521020248e-04
6.55260000000000e+00 2.72648104588897e-02 3.20619247291092e-04
6.57940000000000e+00 2.70768068584916e-02 3.19058909472286e-04
6.60620000000000e+00 2.68900996307134e-02 3.17503531172098e-04
6.63300000000000e+00 2.67046798364603e-02 3.15953135182651e-04
6.65980000000000e+00 2.65205385982770e-02 3.14407743494468e-04
6.68660000000000e+00 2.63376670999224e-02 3.12867377310787e-04
6.71340000000000e+00 2.61560565859473e-02 3.11332057061574e-04
6.74020000000000e+00 2.59756983612757e-02 3.09801802417367e-04
6.76700000000000e+00 2.57965837907880e-02 3.08276632302798e-04
6.79380000000000e+00 2.56187042989078e-02 3.06756564909949e-04
6.82060000000000e+00 2.54420513691913e-02 3.05241617711469e-04
6.84740000000000e+00 2.52666165439197e-02 3.03731807473444e-04
6.87420000000000e+00 2.50923914236939e-02 3.02227150268087e-04
6.90100000000000e+00 2.49193676670327e-02 3.00727661486157e-04
6.92780000000000e+00 2.47475369899734e-02 2.99233355849228e-04
6.95460000000000e+00 2.45768911656750e-02 2.97744247421710e-04
6.98140000000000e+00 2.44074220240242e-02 2.96260349622680e-04
7.00820000000000e+00 2.42391214512449e-02 2.94781675237526e-04
7.03500000000000e+00 2.40719813895089e-02 2.93308236429387e-04
7.06180000000000e+00 2.39059938365506e-02 2.91840044750390e-04
7.08860000000000e+00 2.37411508452838e-02 2.90377111152688e-04
7.11540000000000e+00 2.35774445234212e-02 2.88919445999361e-04
7.14220000000000e+00 2.34148670330964e-02 2.87467059075125e-04
7.16900000000000e+00 2.32534105904888e-02 2.86019959596807e-04
7.19580000000000e+00 2.30930674654508e-02 2.84578156223682e-04
7.22260000000000e+00 2.29338299811380e-02 2.83141657067657e-04
7.24940000000000e+00 2.27756905136412e-02 2.81710469703270e-04
7.27620000000000e+00 2.26186414916217e-02 2.80284601177543e-04
7.30300000000000e+00 2.24626753959487e-02 2.78864058019592e-04
7.32980000000000e+00 2.23077847593393e-02 2.77448846250179e-04
7.35660000000000e+00 2.21539621660011e-02 2.76038971391085e-04
7.38340000000000e+00 2.20012002512770e-02 2.74634438474269e-04
7.41020000000000e+00 2.18494917012926e-02 2.73235252050931e-04
7.43700000000000e+00 2.16988292526061e-02 2.71841416200429e-04
7.46380000000000e+00 2.15492056918605e-02 2.70452934539013e-04
7.49060000000000e+00 2.14006138554383e-02 2.69069810228421e-04
7.51740000000000e+00 2.12530466291186e-02 2.67692045984367e-04
7.54420000000000e+00 2.11064969477362e-02 2.66319644084887e-04
7.57100000000000e+00 2.09609577948436e-02 2.64952606378522e-04
7.59780000000000e+00 2.08164222023749e-02 2.63590934292375e-04
7.62460000000000e+00 2.06728832503124e-02 2.62234628840016e-04
7.65140000000000e+00 2.05303340663550e-02 2.60883690629335e-04
7.67820000000000e+00 2.03887678255895e-02 2.59538119870202e-04
7.70500000000000e+00 2.02481777501635e-02 2.58197916381960e-04
7.73180000000000e+00 2.01085571089612e-02 2.56863079600940e-04
7.75860000000000e+00 1.99698992172808e-02 2.55533608587692e-04
7.78540000000000e+00 1.98321974365148e-02 2.54209502034205e-04
7.81220000000000e+00 1.96954451738321e-02 2.52890758271010e-04
7.83900000000000e+00 1.95596358818619e-02 2.51577375274069e-04
7.86580000000000e+00 1.94247630583808e-02 2.50269350671668e-04
7.89260000000000e+00 1.92908202460014e-02 2.48966681751147e-04
7.91940000000000e+00 1.91578010318628e-02 2.47669365465503e-04
7.94620000000000e+00 1.90256990473237e-02 2.46377398439945e-04
7.97300000000000e+00 1.88945079676579e-02 2.45090776978279e-04
7.99980000000000e+00 1.87642215117507e-02 2.43809497069210e-04
8.02660000000000e+00 1.86348334417990e-02 2.42533554392595e-04
8.05340000000000e+00 1.85063375630120e-02 2.41262944325511e-04
8.08020000000000e+00 1.83787277233150e-02 2.39997661948278e-04
8.10700000000000e+00 1.82519978130547e-02 2.38737702050377e-04
8.13380000000000e+00 1.81261417647068e-02 2.37483059136261e-04
8.16060000000000e+00 1.80011535525852e-02 2.36233727431096e-04
8.18740000000000e+00 1.78770271925540e-02 2.34989700886379e-04
8.21420000000000e+00 1.77537567417404e-02 2.33750973185494e-04
8.24100000000000e+00 1.76313362982508e-02 2.32517537749166e-04
8.26780000000000e+00 1.75097600008876e-02 2.31289387740802e-04
8.29460000000000e+00 1.73890220288692e-02 2.30066516071827e-04
8.32140000000000e+00 1.72691166015508e-02 2.28848915406840e-04
8.34820000000000e+00 1.71500379781480e-02 2.27636578168725e-04
8.37500000000000e+00 1.70317804574615e-02 2.26429496543694e-04
8.40180000000000e+00 1.69143383776048e-02 2.25227662486254e-04
8.42860000000000e+00 1.67977061157325e-02 2.24031067724078e-04
8.45540000000000e+00 1.66818780877714e-02 2.22839703762754e-04
