Energy (eV)          EEDF (eV^-(3/2))     First Anisotropy
3.17142857142857e-03 2.18554837355810e+00 1.35895138299140e-03
9.51428571428571e-03 2.16404263121422e+00 2.24050660765021e-03
1.58571428571429e-02 2.14274850480567e+00 2.94844287674110e-03
2.22000000000000e-02 2.12166391214099e+00 3.48065332335988e-03
2.85428571428571e-02 2.10078679129868e+00 3.91990154944508e-03
3.48857142857143e-02 2.08011510084862e+00 4.29761796425297e-03
4.12285714285714e-02 2.05964681929226e+00 4.63013623854104e-03
4.75714285714286e-02 2.03937994514922e+00 4.92736021338622e-03
5.39142857142857e-02 2.01931249656509e+00 5.19588481343350e-03
6.02571428571428e-02 1.99944251116245e+00 5.44038980061772e-03
6.66000000000000e-02 1.97976804594150e+00 5.66435307295035e-03
7.29428571428571e-02 1.96028717695931e+00 5.87045208286635e-03
7.92857142857143e-02 1.94099799926116e+00 6.06080624011048e-03
8.56285714285714e-02 1.92189862658474e+00 6.23713150204418e-03
9.19714285714286e-02 1.90298719127669e+00 6.40084335570166e-03
9.83142857142857e-02 1.88426184403552e+00 6.55312792350155e-03
1.04657142857143e-01 1.86572075379151e+00 6.69499254504660e-03
1.11000000000000e-01 1.84736210743949e+00 6.82730269481904e-03
1.17342857142857e-01 1.82918410958216e+00 6.95080945584968e-03
1.23685714285714e-01 1.81118498280310e+00 7.06617047139972e-03
1.30028571428571e-01 1.79336296701223e+00 7.17396613611848e-03
1.36371428571429e-01 1.77571631943919e+00 7.27471223115100e-03
1.42714285714286e-01 1.75824331446160e+00 7.36887001432577e-03
1.49057142857143e-01 1.74094224343890e+00 7.45685432292073e-03
1.55400000000000e-01 1.72381141454370e+00 7.53904017091474e-03
1.61742857142857e-01 1.70684915249450e+00 7.61576812170875e-03
1.68085714285714e-01 1.69005379870401e+00 7.68734878696265e-03
1.74428571428571e-01 1.67342371079753e+00 7.75406658570427e-03
1.80771428571429e-01 1.65695726256145e+00 7.81618285341527e-03
1.87114285714286e-01 1.64065284378360e+00 7.87393851527220e-03
1.93457142857143e-01 1.62450886009709e+00 7.92755635485821e-03
1.99800000000000e-01 1.60852373282366e+00 7.97724296833642e-03
2.06142857142857e-01 1.59269589874504e+00 8.02319041418429e-03
2.12485714285714e-01 1.57702381017700e+00 8.06557768474401e-03
2.18828571428571e-01 1.56150593458663e+00 8.10457198982838e-03
2.25171428571429e-01 1.54614075452118e+00 8.14032983551105e-03
2.31514285714286e-01 1.53092676745931e+00 8.17299800567344e-03
2.37857142857143e-01 1.51586248566492e+00 8.20271441939136e-03
2.44200000000000e-01 1.50094643604128e+00 8.22960889756508e-03
2.50542857142857e-01 1.48617715993003e+00 8.25380381430124e-03
2.56885714285714e-01 1.47155321314205e+00 8.27541471349865e-03
2.63228571428571e-01 1.45707316563978e+00 8.29455086186429e-03
2.69571428571429e-01 1.44273560145722e+00 8.31131570748129e-03
2.75914285714286e-01 1.42853911856124e+00 8.32580732145221e-03
2.82257142857143e-01 1.41448232871501e+00 8.33811878914893e-03
2.88600000000000e-01 1.40056385734193e+00 8.34833857059863e-03
2.94942857142857e-01 1.38678234334622e+00 8.35655080162664e-03
3.01285714285714e-01 1.37313643911688e+00 8.36283559870096e-03
3.07628571428571e-01 1.35962481025673e+00 8.36726933783286e-03
3.13971428571429e-01 1.34624613549904e+00 8.36992487678095e-03
3.20314285714286e-01 1.33299910657817e+00 8.37087178362386e-03
3.26657142857143e-01 1.31988242810198e+00 8.37017654005351e-03
3.33000000000000e-01 1.30689481742501e+00 8.36790273374981e-03
3.39342857142857e-01 1.29403500448652e+00 8.36411121306607e-03
3.45685714285714e-01 1.28130173179727e+00 8.35886025687019e-03
3.52028571428571e-01 1.26869375420399e+00 8.35220573230064e-03
3.58371428571429e-01 1.25620983880574e+00 8.34420121236157e-03
3.64714285714286e-01 1.24384876483316e+00 8.33489810702312e-03
3.71057142857143e-01 1.23160932352941e+00 8.32434577936817e-03
3.77400000000000e-01 1.21949031803176e+00 8.31259165846480e-03
3.83742857142857e-01 1.20749056322456e+00 8.29968132476873e-03
3.90085714285714e-01 1.19560888571468e+00 8.28565861372062e-03
3.96428571428571e-01 1.18384412362419e+00 8.27056571313744e-03
4.02771428571429e-01 1.17219512650801e+00 8.25444322927316e-03
4.09114285714286e-01 1.16066075524133e+00 8.23733026817098e-03
4.15457142857143e-01 1.14923988190842e+00 8.21926450699482e-03
4.21800000000000e-01 1.13793138969221e+00 8.20028226527630e-03
4.28142857142857e-01 1.12673417273997e+00 8.18041855443374e-03
4.34485714285714e-01 1.11564713613150e+00 8.15970714560422e-03
4.40828571428571e-01 1.10466919569473e+00 8.13818063404162e-03
4.47171428571429e-01 1.09379927792583e+00 8.11587047768656e-03
4.53514285714286e-01 1.08303631988418e+00 8.09280705088113e-03
4.59857142857143e-01 1.07237926908854e+00 8.06901969072964e-03
4.66200000000000e-01 1.06182708341405e+00 8.04453674475920e-03
4.72542857142857e-01 1.05137873096913e+00 8.01938560053594e-03
4.78885714285714e-01 1.04103319005900e+00 7.99359273265994e-03
4.85228571428571e-01 1.03078944902054e+00 7.96718374775180e-03
4.91571428571429e-01 1.02064650614537e+00 7.94018340743914e-03
4.97914285714286e-01 1.01060336958185e+00 7.91261566564014e-03
5.04257142857143e-01 1.00065905723820e+00 7.88450370009740e-03
5.10600000000000e-01 9.90812596686412e-01 7.85586994578571e-03
5.16942857142857e-01 9.81063025049041e-01 7.82673611289689e-03
5.23285714285714e-01 9.71409388959984e-01 7.79712322091704e-03
5.29628571428571e-01 9.61850744415682e-01 7.76705163147364e-03
5.35971428571429e-01 9.52386156701557e-01 7.73654106207645e-03
5.42314285714286e-01 9.43014700300559e-01 7.70561061306919e-03
5.48657142857143e-01 9.33735458802752e-01 7.67427878988421e-03
5.55000000000000e-01 9.24547524815657e-01 7.64256352737890e-03
5.61342857142857e-01 9.15449999859971e-01 7.61048220073671e-03
5.67685714285714e-01 9.06441994328866e-01 7.57805165111070e-03
5.74028571428571e-01 8.97522627353306e-01 7.54528821048826e-03
5.80371428571429e-01 8.88691026731988e-01 7.51220770974312e-03
5.86714285714286e-01 8.79946328846018e-01 7.47882549878267e-03
5.93057142857143e-01 8.71287678574532e-01 7.44515646274202e-03
5.99400000000000e-01 8.62714229211036e-01 7.41121504028090e-03
6.05742857142857e-01 8.54225142367171e-01 7.37701523003617e-03
6.12085714285714e-01 8.45819587931480e-01 7.34257061051216e-03
6.18428571428571e-01 8.37496743947038e-01 7.30789435946388e-03
6.24771428571429e-01 8.29255796544959e-01 7.27299925835790e-03
6.31114285714286e-01 8.21095939864781e-01 7.23789770785712e-03
6.37457142857143e-01 8.13016375975723e-01 7.20260173990776e-03
6.43800000000000e-01 8.05016314798625e-01 7.16712303186224e-03
6.50142857142857e-01 7.97094974017008e-01 7.13147291007226e-03
6.56485714285714e-01 7.89251579035982e-01 7.09566236570407e-03
6.62828571428571e-01 7.81485362870716e-01 7.05970207021827e-03
6.69171428571429e-01 7.73795566083495e-01 7.02360237752185e-03
6.75514285714286e-01 7.66181436709429e-01 6.98737333614633e-03
6.81857142857143e-01 7.58642230182973e-01 6.95102469846343e-03
6.88200000000000e-01 7.51177209265089e-01 6.91456593182902e-03
6.94542857142857e-01 7.43785643960955e-01 6.87800622030901e-03
7.00885714285714e-01 7.36466811479494e-01 6.84135447751432e-03
7.07228571428571e-01 7.29219996131460e-01 6.80461935921022e-03
7.13571428571429e-01 7.22044489269975e-01 6.76780926396717e-03
7.19914285714286e-01 7.14939589221210e-01 6.73093234292694e-03
7.26257142857143e-01 7.07904601215812e-01 6.69399650695548e-03
7.32600000000000e-01 7.00938837320943e-01 6.65700943560001e-03
7.38942857142857e-01 6.94041616364063e-01 6.61997857758505e-03
7.45285714285714e-01 6.87212263893425e-01 6.58291116140520e-03
7.51628571428571e-01 6.80450112084742e-01 6.54581420576713e-03
7.57971428571429e-01 6.73754499685104e-01 6.50869451926134e-03
7.64314285714286e-01 6.67124771948299e-01 6.47155870832081e-03
7.70657142857143e-01 6.60560280570821e-01 6.43441318286054e-03
7.77000000000000e-01 6.54060383628452e-01 6.39726416358856e-03
7.83342857142857e-01 6.47624445505628e-01 6.36011768168920e-03
7.89685714285714e-01 6.41251836857119e-01 6.32297958769059e-03
7.96028571428571e-01 6.34941934522412e-01 6.28585556022916e-03
8.02371428571429e-01 6.28694121472880e-01 6.24875110508725e-03
8.08714285714286e-01 6.22507786751428e-01 6.21167156176961e-03
8.15057142857143e-01 6.16382325412782e-01 6.17462210800581e-03
8.21400000000000e-01 6.10317138464314e-01 6.13760776579834e-03
8.27742857142857e-01 6.04311632800520e-01 6.10063340057351e-03
8.34085714285714e-01 5.98365221166072e-01 6.06370372869059e-03
8.40428571428571e-01 5.92477322077137e-01 6.02682332488314e-03
8.46771428571429e-01 5.86647359771670e-01 5.98999662089340e-03
8.53114285714286e-01 5.80874764153099e-01 5.95322791097024e-03
8.59457142857143e-01 5.75158970734603e-01 5.91652135550485e-03
8.65800000000000e-01 5.69499420583896e-01 5.87988098608895e-03
8.72142857142857e-01 5.63895560262420e-01 5.84331070432364e-03
8.78485714285714e-01 5.58346841789863e-01 5.80681428824154e-03
8.84828571428571e-01 5.52852722571753e-01 5.77039539868461e-03
8.91171428571429e-01 5.47412665352737e-01 5.73405757769325e-03
8.97514285714286e-01 5.42026138164035e-01 5.69780425314767e-03
9.03857142857143e-01 5.36692614271434e-01 5.66163874173118e-03
9.10200000000000e-01 5.31411572123776e-01 5.62556425320213e-03
9.16542857142857e-01 5.26182495296489e-01 5.58958388899092e-03
9.22885714285714e-01 5.21004872457633e-01 5.55370064773800e-03
9.29228571428571e-01 5.15878197301200e-01 5.51791743080454e-03
9.35571428571428e-01 5.10801968503219e-01 5.48223704052297e-03
9.41914285714286e-01 5.05775689672728e-01 5.44666218414928e-03
9.48257142857143e-01 5.00798869303251e-01 5.41119547629749e-03
9.54600000000000e-01 4.95871020724721e-01 5.37583944257683e-03
9.60942857142857e-01 4.90991662051033e-01 5.34059651806811e-03
9.67285714285714e-01 4.86160316147640e-01 5.30546905213281e-03
9.73628571428571e-01 4.81376510570038e-01 5.27045931320630e-03
9.79971428571428e-01 4.76639777522565e-01 5.23556948698479e-03
9.86314285714286e-01 4.71949653812652e-01 5.20080167981447e-03
9.92657142857143e-01 4.67305680805542e-01 5.16615792070609e-03
9.99000000000000e-01 4.62707404379430e-01 5.13164016561412e-03
1.00534285714286e+00 4.58154374872367e-01 5.09725029578227e-03
1.01168571428571e+00 4.53646147051735e-01 5.06299010602608e-03
1.01802857142857e+00 4.49182280112520e-01 5.02886134542738e-03
1.02437142857143e+00 4.44762337502465e-01 4.99486569629618e-03
1.03071428571429e+00 4.40385887007520e-01 4.96100474051883e-03
1.03705714285714e+00 4.36052500706765e-01 4.92728002895397e-03
1.04340000000000e+00 4.31761754809363e-01 4.89369304951701e-03
1.04974285714286e+00 4.27513229735099e-01 4.86024520637876e-03
1.05608571428571e+00 4.23306510032413e-01 4.82693784482315e-03
1.06242857142857e+00 4.19141184375445e-01 4.79377227260095e-03
1.06877142857143e+00 4.15016845410013e-01 4.76074974064642e-03
1.07511428571429e+00 4.10933089828317e-01 4.72787141330598e-03
1.08145714285714e+00 4.06889518327021e-01 4.69513843159956e-03
1.08780000000000e+00 4.02885735459772e-01 4.66255188393786e-03
1.09414285714286e+00 3.98921349707662e-01 4.63011278699656e-03
1.10048571428571e+00 3.94995973404311e-01 4.59782210830760e-03
1.10682857142857e+00 3.91109222731700e-01 4.56568078566722e-03
1.11317142857143e+00 3.87260717580731e-01 4.53368970939799e-03
1.11951428571429e+00 3.83450081616622e-01 4.50184969502682e-03
1.12585714285714e+00 3.79676942239910e-01 4.47016154101735e-03
1.13220000000000e+00 3.75940930452842e-01 4.43862600189362e-03
1.13854285714286e+00 3.72241680921091e-01 4.40724377065379e-03
1.14488571428571e+00 3.68578831905204e-01 4.37601549933052e-03
1.15122857142857e+00 3.64952025255488e-01 4.34494181665602e-03
1.15757142857143e+00 3.61360906285594e-01 4.31402331174489e-03
1.16391428571429e+00 3.57805123829818e-01 4.28326050901010e-03
1.17025714285714e+00 3.54284330206811e-01 4.25265392090287e-03
1.17660000000000e+00 3.50798181098368e-01 4.22220402323559e-03
1.18294285714286e+00 3.47346335603532e-01 4.19191123900770e-03
1.18928571428571e+00 3.43928456175798e-01 4.16177595714253e-03
1.19562857142857e+00 3.40544208617287e-01 4.13179854858659e-03
1.20197142857143e+00 3.37193261963965e-01 4.10197935129570e-03
1.20831428571429e+00 3.33875288535912e-01 4.07231864719781e-03
1.21465714285714e+00 3.30589963903541e-01 4.04281671041584e-03
1.22100000000000e+00 3.27336966777481e-01 4.01347378460067e-03
1.22734285714286e+00 3.24115979056055e-01 3.98429006805328e-03
1.23368571428571e+00 3.20926685767696e-01 3.95526573081834e-03
1.24002857142857e+00 3.17768775064594e-01 3.92640092937275e-03
1.24637142857143e+00 3.14641938118353e-01 3.89769579280979e-03
1.25271428571429e+00 3.11545869164120e-01 3.86915040167262e-03
1.25905714285714e+00 3.08480265469136e-01 3.84076483208282e-03
1.26540000000000e+00 3.05444827232573e-01 3.81253913491249e-03
1.27174285714286e+00 3.02439257627234e-01 3.78447332209481e-03
1.27808571428571e+00 2.99463262746687e-01 3.75656738223454e-03
1.28442857142857e+00 2.96516551598553e-01 3.72882129402323e-03
1.29077142857143e+00 2.93598836009531e-01 3.70123501352231e-03
1.29711428571429e+00 2.90709830664168e-01 3.67380845470826e-03
1.30345714285714e+00 2.87849253075572e-01 3.64654152988467e-03
1.30980000000000e+00 2.85016823494203e-01 3.61943413053664e-03
1.31614285714286e+00 2.82212264944514e-01 3.59248611473210e-03
1.32248571428571e+00 2.79435303176389e-01 3.56569732139063e-03
1.32882857142857e+00 2.76685666658180e-01 3.53906758254659e-03
1.33517142857143e+00 2.73963086490174e-01 3.51259671164121e-03
1.34151428571429e+00 2.71267296438674e-01 3.48628448563381e-03
1.34785714285714e+00 2.68598032908718e-01 3.46013068203669e-03
1.35420000000000e+00 2.65955034860936e-01 3.43413506130893e-03
1.36054285714286e+00 2.63338043843767e-01 3.40829735525723e-03
1.36688571428571e+00 2.60746803948803e-01 3.38261728009031e-03
1.37322857142857e+00 2.58181061803692e-01 3.35709454763857e-03
1.37957142857143e+00 2.55640566493216e-01 3.33172885457127e-03
1.38591428571429e+00 2.53125069589251e-01 3.30651986594207e-03
1.39225714285714e+00 2.50634325125366e-01 3.28146724915041e-03
1.39860000000000e+00 2.48168089520955e-01 3.25657065774480e-03
1.40494285714286e+00 2.45726121609563e-01 3.23182972074178e-03
1.41128571428571e+00 2.43308182597808e-01 3.20724405457709e-03
1.41762857142857e+00 2.40914036058230e-01 3.18281327337853e-03
1.42397142857143e+00 2.38543447857228e-01 3.15853697903354e-03
1.43031428571429e+00 2.36196186181430e-01 3.13441474604764e-03
1.43665714285714e+00 2.33872021514019e-01 3.11044615270563e-03
1.44300000000000e+00 2.31570726565443e-01 3.08663076616654e-03
1.44934285714286e+00 2.29292076298339e-01 3.06296813262510e-03
1.45568571428571e+00 2.27035847889708e-01 3.03945778826073e-03
1.46202857142857e+00 2.24801820723776e-01 3.01609926864977e-03
1.46837142857143e+00 2.22589776326152e-01 2.99289209961331e-03
1.47471428571429e+00 2.20399498387027e-01 2.96983578327966e-03
1.48105714285714e+00 2.18230772739118e-01 2.94692982669193e-03
1.48740000000000e+00 2.16083387294329e-01 2.92417372808649e-03
1.49374285714286e+00 2.13957132065684e-01 2.90156696782769e-03
1.50008571428571e+00 2.11851799132473e-01 2.87910901844555e-03
1.50642857142857e+00 2.09767182633190e-01 2.85679935326488e-03
1.51277142857143e+00 2.07703078705317e-01 2.83463743796958e-03
1.51911428571429e+00 2.05659285505735e-01 2.81262271776897e-03
1.52545714285714e+00 2.03635603190182e-01 2.79075464367462e-03
1.53180000000000e+00 2.01631833855296e-01 2.76903265986402e-03
1.53814285714286e+00 1.99647781557927e-01 2.74745619532541e-03
1.54448571428571e+00 1.97683252282996e-01 2.72602467306526e-03
1.55082857142857e+00 1.95738053936559e-01 2.70473751802400e-03
1.55717142857143e+00 1.93811996290682e-01 2.68359414929925e-03
1.56351428571429e+00 1.91904891001415e-01 2.66259396832415e-03
1.56985714285714e+00 1.90016551589644e-01 2.64173638301474e-03
1.57620000000000e+00 1.88146793388030e-01 2.62102079612964e-03
1.58254285714286e+00 1.86295433558001e-01 2.60044659756682e-03
1.58888571428571e+00 1.84462291060111e-01 2.58001317281423e-03
1.59522857142857e+00 1.82647186647250e-01 2.55971991021555e-03
1.60157142857143e+00 1.80849942814153e-01 2.53956619379821e-03
1.60791428571429e+00 1.79070383813221e-01 2.51955139238055e-03
1.61425714285714e+00 1.77308335636673e-01 2.49967488177308e-03
1.62060000000000e+00 1.75563625967933e-01 2.47993603405136e-03
1.62694285714286e+00 1.73836084196582e-01 2.46033421045209e-03
1.63328571428571e+00 1.72125541391003e-01 2.44086876913341e-03
1.63962857142857e+00 1.70431830291764e-01 2.42153907184722e-03
1.64597142857143e+00 1.68754785265350e-01 2.40234447732312e-03
1.65231428571429e+00 1.67094242318074e-01 2.38328433122846e-03
1.65865714285714e+00 1.65450039079445e-01 2.36435798658859e-03
1.66500000000000e+00 1.63822014757603e-01 2.34556479389871e-03
1.67134285714286e+00 1.62210010152470e-01 2.32690409457106e-03
1.67768571428571e+00 1.60613867630490e-01 2.30837522806416e-03
1.68402857142857e+00 1.59033431118215e-01 2.28997753801284e-03
1.69037142857143e+00 1.57468546059868e-01 2.27171036612417e-03
1.69671428571429e+00 1.55919059429578e-01 2.25357304292090e-03
1.70305714285714e+00 1.54384819715881e-01 2.23556490653027e-03
1.70940000000000e+00 1.52865676880832e-01 2.21768529356686e-03
1.71574285714286e+00 1.51361482371577e-01 2.19993353308685e-03
1.72208571428571e+00 1.49872089097014e-01 2.18230895314016e-03
1.72842857142857e+00 1.48397351421595e-01 2.16481088640495e-03
1.73477142857143e+00 1.46937125126374e-01 2.14743866455429e-03
1.74111428571429e+00 1.45491267419777e-01 2.13019160971918e-03
1.74745714285714e+00 1.44059636923148e-01 2.11306905178336e-03
1.75380000000000e+00 1.42642093633214e-01 2.09607031997453e-03
1.76014285714286e+00 1.41238498932262e-01 2.07919473728454e-03
1.76648571428571e+00 1.39848715566571e-01 2.06244162649396e-03
1.77282857142857e+00 1.38472607640433e-01 2.04581031535349e-03
1.77917142857143e+00 1.37110040580392e-01 2.02930013138346e-03
1.78551428571429e+00 1.35760881144704e-01 2.01291039399833e-03
1.79185714285714e+00 1.34424997409865e-01 1.99664043043218e-03
1.79820000000000e+00 1.33102258736137e-01 1.98048956798097e-03
1.80454285714286e+00 1.31792535776492e-01 1.96445712885127e-03
1.81088571428571e+00 1.30495700456671e-01 1.94854243570249e-03
1.81722857142857e+00 1.29211625969433e-01 1.93274481641293e-03
1.82357142857143e+00 1.27940186741702e-01 1.91706359927792e-03
1.82991428571429e+00 1.26681258442876e-01 1.90149810574293e-03
1.83625714285714e+00 1.25434717972269e-01 1.88604766507263e-03
1.84260000000000e+00 1.24200443427430e-01 1.87071160719191e-03
1.84894285714286e+00 1.22978314111995e-01 1.85548925792947e-03
1.85528571428571e+00 1.21768210517249e-01 1.84037994411787e-03
1.86162857142857e+00 1.20570014316606e-01 1.82538299797936e-03
1.86797142857143e+00 1.19383608335409e-01 1.81049775269105e-03
1.87431428571429e+00 1.18208876558228e-01 1.79572353567752e-03
1.88065714285714e+00 1.17045704117144e-01 1.78105968212730e-03
1.88700000000000e+00 1.15893977262630e-01 1.76650552838463e-03
1.89334285714286e+00 1.14753583370435e-01 1.75206040755685e-03
1.89968571428571e+00 1.13624410924528e-01 1.73772365420882e-03
1.90602857142857e+00 1.12506349511813e-01 1.72349460840028e-03
1.91237142857143e+00 1.11399289794354e-01 1.70937261158915e-03
1.91871428571429e+00 1.10303123515775e-01 1.69535700043929e-03
1.92505714285714e+00 1.09217743490339e-01 1.68144711927852e-03
1.93140000000000e+00 1.08143043576164e-01 1.66764231399739e-03
1.93774285714286e+00 1.07078918681252e-01 1.65394192799124e-03
1.94408571428571e+00 1.06025264747710e-01 1.64034530648304e-03
1.95042857142857e+00 1.04981978746694e-01 1.62685180024122e-03
1.95677142857143e+00 1.03948958652861e-01 1.61346076179448e-03
1.96311428571429e+00 1.02926103449965e-01 1.60017153971357e-03
1.96945714285714e+00 1.01913313120688e-01 1.58698349009711e-03
1.97580000000000e+00 1.00910488621979e-01 1.57389597093715e-03
1.98214285714286e+00 9.99175318903417e-02 1.56090833836975e-03
1.98848571428571e+00 9.89343458272240e-02 1.54801995065687e-03
1.99482857142857e+00 9.79608342941950e-02 1.53523017161098e-03
2.00117142857143e+00 9.69969020894233e-02 1.52253836709666e-03
