Energy (eV)          EEDF (eV^-(3/2))     First Anisotropy
4.54545454545455e-02 4.38727648765388e-02 2.86031494810477e-05
1.36363636363636e-01 4.34157879223085e-02 4.71444371154720e-05
2.27272727272727e-01 4.29635708208720e-02 6.20046468063808e-05
3.18181818181818e-01 4.25160639947166e-02 7.31542534852541e-05
4.09090909090909e-01 4.20732183817164e-02 8.23381807107211e-05
5.00000000000000e-01 4.16349854308386e-02 9.02196643853223e-05
5.90909090909091e-01 4.12013170975821e-02 9.71436605462521e-05
6.81818181818182e-01 4.07721658361421e-02 1.03319501205160e-04
7.72727272727273e-01 4.03474845969040e-02 1.08886690217897e-04
8.63636363636364e-01 3.99272268203129e-02 1.13944297121564e-04
9.54545454545455e-01 3.95113464317717e-02 1.18566004750119e-04
1.04545454545455e+00 3.90997978365912e-02 1.22808580338870e-04
1.13636363636364e+00 3.86925359153415e-02 1.26716992611839e-04
1.22727272727273e+00 3.82895160181469e-02 1.30327676124435e-04
1.31818181818182e+00 3.78906939602141e-02 1.33670706528652e-04
1.40909090909091e+00 3.74960260169846e-02 1.36771302978234e-04
1.50000000000000e+00 3.71054689193394e-02 1.39650897426364e-04
1.59090909090909e+00 3.67189798463776e-02 1.42327914230785e-04
1.68181818181818e+00 3.63365164283541e-02 1.44818352695286e-04
1.77272727272727e+00 3.59580367341716e-02 1.47136230065722e-04
1.86363636363636e+00 3.55834992694914e-02 1.49293922931019e-04
1.95454545454545e+00 3.52128629721828e-02 1.51302435876531e-04
2.04545454545455e+00 3.48460872078206e-02 1.53171614870415e-04
2.13636363636364e+00 3.44831317652188e-02 1.54910318922529e-04
2.22727272727273e+00 3.41239568520445e-02 1.56526559665931e-04
2.31818181818182e+00 3.37685230904416e-02 1.58027615963929e-04
2.40909090909091e+00 3.34167915127140e-02 1.59420128844045e-04
2.50000000000000e+00 3.30687235570528e-02 1.60710180935712e-04
2.59090909090909e+00 3.27242810619686e-02 1.61903362706760e-04
2.68181818181818e+00 3.23834262662069e-02 1.63004829298432e-04
2.77272727272727e+00 3.20461218004234e-02 1.64019349030990e-04
2.86363636363636e+00 3.17123306845124e-02 1.64951344244994e-04
2.95454545454545e+00 3.13820163235528e-02 1.65804927110797e-04
3.04545454545455e+00 3.10551425037957e-02 1.66583930529046e-04
3.13636363636364e+00 3.07316733886897e-02 1.67291935046148e-04
3.22727272727273e+00 3.04115735149612e-02 1.67932292407293e-04
3.31818181818182e+00 3.00948077887211e-02 1.68508146255036e-04
3.40909090909091e+00 2.97813414816172e-02 1.69022450389677e-04
3.50000000000000e+00 2.94711402270273e-02 1.69477985058457e-04
3.59090909090909e+00 2.91641700154330e-02 1.69877370974092e-04
3.68181818181818e+00 2.88603971933064e-02 1.70223082373179e-04
3.77272727272727e+00 2.85597884567614e-02 1.70517458725111e-04
3.86363636363636e+00 2.82623108488042e-02 1.70762714655621e-04
3.95454545454545e+00 2.79679317557200e-02 1.70960949331921e-04
4.04545454545455e+00 2.76766189034978e-02 1.71114154820572e-04
4.13636363636364e+00 2.73883403542894e-02 1.71224223648684e-04
4.22727272727273e+00 2.71030645029128e-02 1.71292955662923e-04
4.31818181818182e+00 2.68207600733845e-02 1.71322064266466e-04
4.40909090909091e+00 2.65413961154904e-02 1.71313182101712e-04
4.50000000000000e+00 2.62649420013933e-02 1.71267866332529e-04
4.59090909090909e+00 2.59913674216778e-02 1.71187603114968e-04
4.68181818181818e+00 2.57206423838425e-02 1.71073812141420e-04
4.77272727272727e+00 2.54527372071701e-02 1.70927850832484e-04
4.86363636363636e+00 2.51876225200971e-02 1.70751017732265e-04
4.95454545454546e+00 2.49252692569927e-02 1.70544556002228e-04
5.04545454545455e+00 2.46656486549731e-02 1.70309656558784e-04
5.13636363636364e+00 2.44087322507464e-02 1.70047460975483e-04
5.22727272727273e+00 2.41544918774948e-02 1.69759064172638e-04
5.31818181818182e+00 2.39028996617847e-02 1.69445516913837e-04
5.40909090909091e+00 2.36539280205117e-02 1.69107828125544e-04
5.50000000000000e+00 2.34075496578757e-02 1.68746967130444e-04
5.59090909090909e+00 2.31637375619531e-02 1.68363865434474e-04
5.68181818181818e+00 2.29224650030592e-02 1.67959418756246e-04
5.77272727272727e+00 2.26837055294764e-02 1.67534488934873e-04
5.86363636363636e+00 2.24474329650068e-02 1.67089905338993e-04
5.95454545454546e+00 2.22136214061032e-02 1.66626466482407e-04
6.04545454545455e+00 2.19822452190288e-02 1.66144941465849e-04
6.13636363636364e+00 2.17532790370458e-02 1.65646071329982e-04
6.22727272727273e+00 2.15266977576367e-02 1.65130570327144e-04
6.31818181818182e+00 2.13024765397504e-02 1.64599127118023e-04
6.40909090909091e+00 2.10805908010796e-02 1.64052405898077e-04
6.50000000000000e+00 2.08610162153653e-02 1.63491047520378e-04
6.59090909090909e+00 2.06437287094009e-02 1.62915670312862e-04
6.68181818181818e+00 2.04287044613919e-02 1.62326871148710e-04
6.77272727272727e+00 2.02159198973329e-02 1.61725226466356e-04
6.86363636363636e+00 2.00053516887647e-02 1.61111292925015e-04
6.95454545454546e+00 1.97969767502160e-02 1.60485608269758e-04
7.04545454545455e+00 1.95907722366733e-02 1.59848692090540e-04
7.13636363636364e+00 1.93867155410753e-02 1.59201046541743e-04
7.22727272727273e+00 1.91847842918354e-02 1.58543157025187e-04
7.31818181818182e+00 1.89849563503889e-02 1.57875492839025e-04
7.40909090909091e+00 1.87872098087651e-02 1.57198507794203e-04
7.50000000000000e+00 1.85915229871863e-02 1.56512640851405e-04
7.59090909090909e+00 1.83978744314360e-02 1.55818316525936e-04
7.68181818181818e+00 1.82062429112787e-02 1.55115945522250e-04
7.77272727272727e+00 1.80166074173519e-02 1.54405925344859e-04
7.86363636363636e+00 1.78289471591254e-02 1.53688640623373e-04
7.95454545454546e+00 1.76432415626227e-02 1.52964463626546e-04
8.04545454545454e+00 1.74594702681650e-02 1.52233754702363e-04
8.13636363636364e+00 1.72776131281386e-02 1.51496862698196e-04
8.22727272727273e+00 1.70976502047873e-02 1.50754125362618e-04
8.31818181818182e+00 1.69195617680254e-02 1.50005869729761e-04
8.40909090909091e+00 1.67433282932752e-02 1.49252412486887e-04
8.50000000000000e+00 1.65689304593264e-02 1.48494060368767e-04
8.59090909090909e+00 1.63963491460171e-02 1.47731110366515e-04
8.68181818181818e+00 1.62255654327455e-02 1.46963850136889e-04
8.77272727272727e+00 1.60565605957811e-02 1.46192558399505e-04
8.86363636363636e+00 1.58893161064189e-02 1.45417505101753e-04
8.95454545454546e+00 1.57238136289486e-02 1.44638951748450e-04
9.04545454545454e+00 1.55600350186434e-02 1.43857151675638e-04
9.13636363636364e+00 1.53979623197716e-02 1.43072350313463e-04
9.22727272727273e+00 1.52375777636275e-02 1.42284785438868e-04
9.31818181818182e+00 1.50788637665839e-02 1.41494687418593e-04
9.40909090909091e+00 1.49218029281636e-02 1.40702279442731e-04
9.50000000000000e+00 1.47663780291324e-02 1.39907777785200e-04
9.59090909090909e+00 1.46125720294512e-02 1.39111391911898e-04
9.68181818181818e+00 1.44603680668919e-02 1.38313324761610e-04
9.77272727272727e+00 1.43097494546998e-02 1.37513773020307e-04
9.86363636363636e+00 1.41606996799287e-02 1.36712927202984e-04
9.95454545454546e+00 1.40132024016304e-02 1.35910971877404e-04
1.00454545454545e+01 1.38672414490636e-02 1.35108085876563e-04
1.01363636363636e+01 1.37228008197779e-02 1.34304442404834e-04
1.02272727272727e+01 1.35798646781521e-02 1.33500209205742e-04
1.03181818181818e+01 1.34384173535081e-02 1.32695548791736e-04
1.04090909090909e+01 1.32984433383929e-02 1.31890618564912e-04
1.05000000000000e+01 1.31599272868780e-02 1.31085570664042e-04
1.05909090909091e+01 1.30228540141677e-02 1.30280553027060e-04
1.06818181818182e+01 1.28872084910273e-02 1.29475708916485e-04
1.07727272727273e+01 1.27529758460792e-02 1.28671176429024e-04
1.08636363636364e+01 1.26201413628454e-02 1.27867089570997e-04
1.09545454545455e+01 1.24886904781340e-02 1.27063578067787e-04
1.10454545454545e+01 1.23586087804424e-02 1.26260767486787e-04
1.11363636363636e+01 1.22298820083764e-02 1.25458779355414e-04
1.12272727272727e+01 1.21024960490892e-02 1.24657731275943e-04
1.13181818181818e+01 1.19764369367324e-02 1.23857737037313e-04
1.14090909090909e+01 1.18516908509255e-02 1.23058906722401e-04
1.15000000000000e+01 1.17282441152403e-02 1.22261346553896e-04
1.15909090909091e+01 1.16060831967516e-02 1.21465159776411e-04
1.16818181818182e+01 1.14851947013746e-02 1.20670446230722e-04
1.17727272727273e+01 1.13655653756048e-02 1.19877301915378e-04
1.18636363636364e+01 1.12471821039856e-02 1.19085819882668e-04
1.19545454545455e+01 1.11300319076706e-02 1.18296090057494e-04
1.20454545454545e+01 1.10141019430000e-02 1.17508199323989e-04
1.21363636363636e+01 1.08993795000924e-02 1.16722231608764e-04
1.22272727272727e+01 1.07858520014527e-02 1.15938267962156e-04
1.23181818181818e+01 1.06735070005925e-02 1.15156386637577e-04
1.24090909090909e+01 1.05623321806653e-02 1.14376663167735e-04
1.25000000000000e+01 1.04523153531164e-02 1.13599170218028e-04
1.25909090909091e+01 1.03434444572077e-02 1.12823978326372e-04
1.26818181818182e+01 1.02357075560883e-02 1.12051155525668e-04
1.27727272727273e+01 1.01290928381171e-02 1.11280766955945e-04
1.28636363636364e+01 1.00235886146822e-02 1.10512875617684e-04
1.29545454545455e+01 9.91918331891985e-03 1.09747542204978e-04
1.30454545454545e+01 9.81586550444615e-03 1.08984825167990e-04
1.31363636363636e+01 9.71362384410150e-03 1.08224780773076e-04
1.32272727272727e+01 9.61244712871022e-03 1.07467463161600e-04
1.33181818181818e+01 9.51232426585089e-03 1.06712924407470e-04
1.34090909090909e+01 9.41324427864022e-03 1.05961214572496e-04
1.35000000000000e+01 9.31519630452964e-03 1.05212381570993e-04
1.35909090909091e+01 9.21816959482517e-03 1.04466471794955e-04
1.36818181818182e+01 9.12215351135768e-03 1.03723529781417e-04
1.37727272727273e+01 9.02713752748718e-03 1.02983597871211e-04
1.38636363636364e+01 8.93311122621867e-03 1.02246716846673e-04
1.39545454545455e+01 8.84006429906011e-03 1.01512925780631e-04
1.40454545454545e+01 8.74798654489221e-03 1.00782262082300e-04
1.41363636363636e+01 8.65686786884952e-03 1.00054761541456e-04
1.42272727272727e+01 8.56669828121483e-03 9.93304583717478e-05
1.43181818181818e+01 8.47746789632337e-03 9.86093852531606e-05
1.44090909090909e+01 8.38916693147900e-03 9.78915733728847e-05
1.45000000000000e+01 8.30178570588169e-03 9.71770523023474e-05
1.45909090909091e+01 8.21531464015610e-03 9.64658505285464e-05
1.46818181818182e+01 8.12974425351612e-03 9.57579951619910e-05
1.47727272727273e+01 8.04506516452644e-03 9.50535116373491e-05
1.48636363636364e+01 7.96126808946836e-03 9.43524242561899e-05
1.49545454545455e+01 7.87834384132195e-03 9.36547560516772e-05
1.50454545454545e+01 7.79628332875888e-03 9.29605288227490e-05
1.51363636363636e+01 7.71507755514522e-03 9.22697631670258e-05
1.52272727272727e+01 7.63471761755607e-03 9.15824785131365e-05
1.53181818181818e+01 7.55519470579896e-03 9.08986931524680e-05
1.54090909090909e+01 7.47650010144801e-03 9.02184242697022e-05
1.55000000000000e+01 7.39862517688804e-03 8.95416878322895e-05
1.55909090909091e+01 7.32156139486065e-03 8.88684990440683e-05
1.56818181818182e+01 7.24530030603978e-03 8.81988720892930e-05
1.57727272727273e+01 7.16983354960673e-03 8.75328198704814e-05
1.58636363636364e+01 7.09515285182875e-03 8.68703544722412e-05
1.59545454545455e+01 7.02125002515190e-03 8.62114870408138e-05
1.60454545454545e+01 6.94811696730344e-03 8.55562278097969e-05
1.61363636363636e+01 6.87574566040319e-03 8.49045861249184e-05
1.62272727272727e+01 6.80412817008523e-03 8.42565704683982e-05
1.63181818181818e+01 6.73325664462762e-03 8.36121884829003e-05
1.64090909090909e+01 6.66312331409161e-03 8.29714469945841e-05
1.65000000000000e+01 6.59372048946980e-03 8.23343519143800e-05
1.65909090909091e+01 6.52504056225500e-03 8.17009086266850e-05
1.66818181818182e+01 6.45707600235995e-03 8.10711217652168e-05
1.67727272727273e+01 6.38981935854862e-03 8.04449949835954e-05
1.68636363636364e+01 6.32326325719674e-03 7.98225313531263e-05
1.69545454545455e+01 6.25740040148339e-03 7.92037332559592e-05
1.70454545454545e+01 6.19222357059098e-03 7.85886024045920e-05
1.71363636363636e+01 6.12772561891340e-03 7.79771398606595e-05
1.72272727272727e+01 6.06389947527312e-03 7.73693460534231e-05
1.73181818181818e+01 6.00073814214569e-03 7.67652207979765e-05
1.74090909090909e+01 5.93823469489256e-03 7.61647633127470e-05
1.75000000000000e+01 5.87638228100192e-03 7.55679721316841e-05
1.75909090909091e+01 5.81517411968355e-03 7.49748454383175e-05
1.76818181818182e+01 5.75460350007823e-03 7.43853808695621e-05
1.77727272727273e+01 5.69466378157814e-03 7.37995753149970e-05
1.78636363636364e+01 5.63534839274369e-03 7.32174252589501e-05
1.79545454545455e+01 5.57665083058316e-03 7.26389266859887e-05
1.80454545454545e+01 5.51856465983967e-03 7.20640750957931e-05
1.81363636363636e+01 5.46108351228552e-03 7.14928655174688e-05
1.82272727272727e+01 5.40420108602437e-03 7.09252925236380e-05
1.83181818181818e+01 5.34791114480018e-03 7.03613502443347e-05
1.84090909090909e+01 5.29220751731348e-03 6.98010323803660e-05
1.85000000000000e+01 5.23708409654478e-03 6.92443321254045e-05
1.85909090909091e+01 5.18253483937688e-03 6.86912424538199e-05
1.86818181818182e+01 5.12855376504949e-03 6.81417559489447e-05
1.87727272727273e+01 5.07513495539382e-03 6.75958646274371e-05
1.88636363636364e+01 5.02227255388446e-03 6.70535602341933e-05
1.89545454545455e+01 4.96996076499734e-03 6.65148341588726e-05
1.90454545454545e+01 4.91819385357429e-03 6.59796774472658e-05
1.91363636363636e+01 4.86696614419414e-03 6.54480808122244e-05
1.92272727272727e+01 4.81627202055082e-03 6.49200346444345e-05
1.93181818181818e+01 4.76610592483749e-03 6.43955290230435e-05
1.94090909090909e+01 4.71646235713716e-03 6.38745537258687e-05
1.95000000000000e+01 4.66733587481975e-03 6.33570981604128e-05
1.95909090909091e+01 4.61872109219214e-03 6.28431516124019e-05
1.96818181818182e+01 4.57061267916128e-03 6.23327030954275e-05
1.97727272727273e+01 4.52300536140250e-03 6.18257411972115e-05
1.98636363636364e+01 4.47589391952826e-03 6.13222543343732e-05
1.99545454545455e+01 4.42927318851596e-03 6.08222306787825e-05
2.00454545454545e+01 4.38313805714163e-03 6.03256581662520e-05
2.01363636363636e+01 4.33748346741946e-03 5.98325245048776e-05
2.02272727272727e+01 4.29230441404753e-03 5.93428171832832e-05
2.03181818181818e+01 4.24759594385896e-03 5.88565234787534e-05
2.04090909090909e+01 4.20335315527881e-03 5.83736304650258e-05
2.05000000000000e+01 4.15957119778675e-03 5.78941249512787e-05
2.05909090909091e+01 4.11624527159448e-03 5.74179936971414e-05
2.06818181818182e+01 4.07337062648667e-03 5.69452232809978e-05
2.07727272727273e+01 4.03094256193828e-03 5.64757999653776e-05
2.08636363636364e+01 3.98895642638471e-03 5.60097099174421e-05
2.09545454545455e+01 3.94740761671188e-03 5.55469391440286e-05
2.10454545454545e+01 3.90629157775153e-03 5.50874734982950e-05
2.11363636363636e+01 3.86560380178175e-03 5.46312986860785e-05
2.12272727272727e+01 3.82533982803296e-03 5.41784002721861e-05
2.13181818181818e+01 3.78549524219878e-03 5.37287636866027e-05
2.14090909090909e+01 3.74606567595204e-03 5.32823742304288e-05
2.15000000000000e+01 3.70704680646588e-03 5.28392170219607e-05
2.15909090909091e+01 3.66843435611764e-03 5.23992771829859e-05
2.16818181818182e+01 3.63022409148208e-03 5.19625397233957e-05
2.17727272727273e+01 3.59241182340949e-03 5.15289894232662e-05
2.18636363636364e+01 3.55499340638412e-03 5.10986110239754e-05
2.19545454545455e+01 3.51796473806979e-03 5.06713891709332e-05
2.20454545454545e+01 3.48132175886004e-03 5.02473084186349e-05
2.21363636363636e+01 3.44506045143300e-03 4.98263532354930e-05
2.22272727272727e+01 3.40917684031119e-03 4.94085080086097e-05
2.23181818181818e+01 3.37366699142548e-03 4.89937570485005e-05
2.24090909090909e+01 3.33852701168389e-03 4.85820845935988e-05
2.25000000000000e+01 3.30375304854467e-03 4.81734747626197e-05
2.25909090909091e+01 3.26934128974544e-03 4.77679117162123e-05
2.26818181818182e+01 3.23528796242722e-03 4.73653795558091e-05
2.27727272727273e+01 3.20158933318253e-03 4.69658622202770e-05
2.28636363636364e+01 3.16824170749089e-03 4.65693436518034e-05
2.29545454545455e+01 3.13524142931379e-03 4.61758077454156e-05
2.30454545454545e+01 3.10258488069388e-03 4.57852383527978e-05
2.31363636363636e+01 3.07026848135820e-03 4.53976192859365e-05
2.32272727272727e+01 3.03828868832586e-03 4.50129343207189e-05
2.33181818181818e+01 3.00664199551949e-03 4.46311672004912e-05
2.34090909090909e+01 2.97532493338088e-03 4.42523016394528e-05
2.35000000000000e+01 2.94433406849059e-03 4.38763212805856e-05
2.35909090909091e+01 2.91366600332076e-03 4.35032098361003e-05
2.36818181818182e+01 2.88331737547181e-03 4.31329509987225e-05
2.37727272727273e+01 2.85328485769779e-03 4.27655283510651e-05
2.38636363636364e+01 2.82356515740922e-03 4.24009255097986e-05
2.39545454545455e+01 2.79415501631207e-03 4.20391260811497e-05
2.40454545454545e+01 2.76505121005057e-03 4.16801136637561e-05
2.41363636363636e+01 2.73625054785365e-03 4.13238718513864e-05
2.42272727272727e+01 2.70774987218522e-03 4.09703842356220e-05
2.43181818181818e+01 2.67954605839798e-03 4.06196344085202e-05
2.44090909090909e+01 2.65163601439080e-03 4.02716059651298e-05
2.45000000000000e+01 2.62401668026976e-03 3.99262824663404e-05
2.45909090909091e+01 2.59668502812312e-03 3.95836475610520e-05
2.46818181818182e+01 2.56963806135531e-03 3.92436849083225e-05
2.47727272727273e+01 2.54287281469517e-03 3.89063780978580e-05
2.48636363636364e+01 2.51638635375766e-03 3.85717107754500e-05
2.49545454545455e+01 2.49017577472219e-03 3.82396666037387e-05
2.50454545454545e+01 2.46423820401423e-03 3.79102292643201e-05
2.51363636363636e+01 2.43857079799024e-03 3.75833824597416e-05
2.52272727272727e+01 2.41317074262599e-03 3.72591099154723e-05
2.53181818181818e+01 2.38803525320802e-03 3.69373953818634e-05
2.54090909090909e+01 2.36316157402833e-03 3.66182226359842e-05
2.55000000000000e+01 2.33854697808223e-03 3.63015754488105e-05
2.55909090909091e+01 2.31418876686403e-03 3.59874376916030e-05
2.56818181818182e+01 2.29008426978507e-03 3.56757932675627e-05
2.57727272727273e+01 2.26623084416934e-03 3.53666260420367e-05
2.58636363636364e+01 2.24262587486680e-03 3.50599199517593e-05
2.59545454545455e+01 2.21926677396672e-03 3.47556589702575e-05
2.60454545454545e+01 2.19615098051394e-03 3.44538271093747e-05
2.61363636363636e+01 2.17327596022807e-03 3.41544084207016e-05
2.62272727272727e+01 2.15063920522569e-03 3.38573869969914e-05
2.63181818181818e+01 2.12823823374541e-03 3.35627469735644e-05
2.64090909090909e+01 2.10607058987576e-03 3.32704725296231e-05
2.65000000000000e+01 2.08413384328594e-03 3.29805478592723e-05
2.65909090909091e+01 2.06242558904050e-03 3.26929572642279e-05
2.66818181818182e+01 2.04094344709035e-03 3.24076850937934e-05
2.67727272727273e+01 2.01968506225914e-03 3.21247156835583e-05
2.68636363636364e+01 1.99864810390191e-03 3.18440334506291e-05
2.69545454545455e+01 1.97783026564961e-03 3.15656228631177e-05
2.70454545454545e+01 1.95722926515624e-03 3.12894684412095e-05
2.71363636363636e+01 1.93684284384858e-03 3.10155547581570e-05
2.72272727272727e+01 1.91666876667865e-03 3.07438664412598e-05
2.73181818181818e+01 1.89670482187863e-03 3.04743881728408e-05
2.74090909090909e+01 1.87694882071839e-03 3.02071046911490e-05
2.75000000000000e+01 1.85739859726552e-03 2.99420007647669e-05
2.75909090909091e+01 1.83805200821754e-03 2.96790612734755e-05
2.76818181818182e+01 1.81890693245625e-03 2.94182711555045e-05
2.77727272727273e+01 1.79996127102754e-03 2.91596153536738e-05
2.78636363636364e+01 1.78121294683991e-03 2.89030788984774e-05
2.79545454545455e+01 1.76265990443676e-03 2.86486468811690e-05
2.80454545454545e+01 1.74430010977106e-03 2.83963044544740e-05
2.81363636363636e+01 1.72613154998226e-03 2.81460368332378e-05
2.82272727272727e+01 1.70815223317575e-03 2.78978292950761e-05
2.83181818181818e+01 1.69036018820439e-03 2.76516671810190e-05
2.84090909090909e+01 1.67275346445243e-03 2.74075358960882e-05
2.85000000000000e+01 1.65533013162165e-03 2.71654208866922e-05
2.85909090909091e+01 1.63808827957966e-03 2.69253077112198e-05
2.86818181818182e+01 1.62102601796930e-03 2.66871819936606e-05
