Energy (eV)          EEDF (eV^-(3/2))     First Anisotropy
1.62333333333333e-02 6.65485007539253e-01 6.34271756785665e-04
4.87000000000000e-02 6.50345525440753e-01 1.03894215235841e-03
8.11666666666667e-02 6.35550459723465e-01 1.34939267434089e-03
1.13633333333333e-01 6.21091975035143e-01 1.57219674055920e-03
1.46100000000000e-01 6.06962414271897e-01 1.74751846592226e-03
1.78566666666667e-01 5.93154294674720e-01 1.89092764864132e-03
2.11033333333333e-01 5.79660303511373e-01 2.01067263833929e-03
2.43500000000000e-01 5.66473294505385e-01 2.11184676363664e-03
2.75966666666667e-01 5.53586284008717e-01 2.19790084767609e-03
3.08433333333333e-01 5.40992447140923e-01 2.27132400949685e-03
3.40900000000000e-01 5.28685114336343e-01 2.33399478856119e-03
3.73366666666667e-01 5.16657767794228e-01 2.38738029624679e-03
4.05833333333333e-01 5.04904037920428e-01 2.43265739993004e-03
4.38300000000000e-01 4.93417700060700e-01 2.47079061131392e-03
4.70766666666667e-01 4.82192671194287e-01 2.50258439845126e-03
5.03233333333333e-01 4.71223006635598e-01 2.52871958372121e-03
5.35700000000000e-01 4.60502896963036e-01 2.54977944694865e-03
5.68166666666667e-01 4.50026664936030e-01 2.56626894022896e-03
6.00633333333333e-01 4.39788762429990e-01 2.57862912904456e-03
6.33100000000000e-01 4.29783767556832e-01 2.58724826166287e-03
6.65566666666667e-01 4.20006381789174e-01 2.59247040752800e-03
6.98033333333333e-01 4.10451427108248e-01 2.59460228443104e-03
7.30500000000000e-01 4.01113843308036e-01 2.59391873256853e-03
7.62966666666667e-01 3.91988685312183e-01 2.59066716474012e-03
7.95433333333333e-01 3.83071120517956e-01 2.58507120976785e-03
8.27900000000000e-01 3.74356426274423e-01 2.57733373040186e-03
8.60366666666667e-01 3.65839987378910e-01 2.56763935276360e-03
8.92833333333333e-01 3.57517293602245e-01 2.55615659152796e-03
9.25300000000000e-01 3.49383937331051e-01 2.54303965408152e-03
9.57766666666667e-01 3.41435611231570e-01 2.52842998913018e-03
9.90233333333334e-01 3.33668105943020e-01 2.51245761524225e-03
1.02270000000000e+00 3.26077307851625e-01 2.49524226023948e-03
1.05516666666667e+00 3.18659197021384e-01 2.47689438141629e-03
1.08763333333333e+00 3.11409844825283e-01 2.45751603296164e-03
1.12010000000000e+00 3.04325412082280e-01 2.43720161626070e-03
1.15256666666667e+00 2.97402147011381e-01 2.41603859276372e-03
1.18503333333333e+00 2.90636383061322e-01 2.39410807012928e-03
1.21750000000000e+00 2.84024537154163e-01 2.37148532282281e-03
1.24996666666667e+00 2.77563107777210e-01 2.34824030078697e-03
1.28243333333333e+00 2.71248672971217e-01 2.32443804410274e-03
1.31490000000000e+00 2.65077888677319e-01 2.30013905502706e-03
1.34736666666667e+00 2.59047486957248e-01 2.27539967276374e-03
1.37983333333333e+00 2.53154274126670e-01 2.25027237521380e-03
1.41230000000000e+00 2.47395129201386e-01 2.22480605199761e-03
1.44476666666667e+00 2.41767002237057e-01 2.19904628803116e-03
1.47723333333333e+00 2.36266912595853e-01 2.17303558832430e-03
1.50970000000000e+00 2.30891947487441e-01 2.14681358281984e-03
1.54216666666667e+00 2.25639260420088e-01 2.12041724581562e-03
1.57463333333333e+00 2.20506069590064e-01 2.09388106675520e-03
1.60710000000000e+00 2.15489656512772e-01 2.06723720678736e-03
1.63956666666667e+00 2.10587364577648e-01 2.04051567177881e-03
1.67203333333333e+00 2.05796597550862e-01 2.01374444423283e-03
1.70450000000000e+00 2.01114818291857e-01 1.98694960483149e-03
1.73696666666667e+00 1.96539547405035e-01 1.96015547105230e-03
1.76943333333333e+00 1.92068361847175e-01 1.93338470049173e-03
1.80190000000000e+00 1.87698893724708e-01 1.90665838647472e-03
1.83436666666667e+00 1.83428829035665e-01 1.87999617063512e-03
1.86683333333333e+00 1.79255906374002e-01 1.85341632480084e-03
1.89930000000000e+00 1.75177915803057e-01 1.82693582704717e-03
1.93176666666667e+00 1.71192697681666e-01 1.80057045420088e-03
1.96423333333333e+00 1.67298141458292e-01 1.77433484738425e-03
1.99670000000000e+00 1.63492184616228e-01 1.74824257308512e-03
2.02916666666667e+00 1.59772811578232e-01 1.72230619992649e-03
2.06163333333333e+00 1.56138052583925e-01 1.69653735157282e-03
2.09410000000000e+00 1.52585982702505e-01 1.67094675615966e-03
2.12656666666667e+00 1.49114720810609e-01 1.64554431055405e-03
2.15903333333333e+00 1.45722428547013e-01 1.62033912336172e-03
2.19150000000000e+00 1.42407309388766e-01 1.59533955520209e-03
2.22396666666667e+00 1.39167607697392e-01 1.57055327289747e-03
2.25643333333333e+00 1.36001607745350e-01 1.54598728463880e-03
2.28890000000000e+00 1.32907632851745e-01 1.52164797298318e-03
2.32136666666667e+00 1.29884044492267e-01 1.49754114084379e-03
2.35383333333333e+00 1.26929241392342e-01 1.47367204038251e-03
2.38630000000000e+00 1.24041658718730e-01 1.45004540016715e-03
2.41876666666667e+00 1.21219767248948e-01 1.42666546441977e-03
2.45123333333333e+00 1.18462072526401e-01 1.40353601684718e-03
2.48370000000000e+00 1.15767114104399e-01 1.38066040307202e-03
2.51616666666667e+00 1.13133464771074e-01 1.35804156428918e-03
2.54863333333333e+00 1.10559729762146e-01 1.33568205698007e-03
2.58110000000000e+00 1.08044546054084e-01 1.31358407149088e-03
2.61356666666667e+00 1.05586581640790e-01 1.29174946101487e-03
2.64603333333333e+00 1.03184534799992e-01 1.27017975793670e-03
2.67850000000000e+00 1.00837133432433e-01 1.24887618924972e-03
2.71096666666667e+00 9.85431343868688e-02 1.22783970160407e-03
2.74343333333333e+00 9.63013227763594e-02 1.20707097487600e-03
2.77590000000000e+00 9.41105113605663e-02 1.18657043497683e-03
2.80836666666667e+00 9.19695399158335e-02 1.16633827556941e-03
2.84083333333333e+00 8.98772745979160e-02 1.14637446934056e-03
2.87330000000000e+00 8.78326073646451e-02 1.12667877864713e-03
2.90576666666667e+00 8.58344553880726e-02 1.10725077439571e-03
2.93823333333333e+00 8.38817604604352e-02 1.08808984540519e-03
2.97070000000000e+00 8.19734884545993e-02 1.06919520725186e-03
3.00316666666667e+00 8.01086287754603e-02 1.05056591872181e-03
3.03563333333333e+00 7.82861938061628e-02 1.03220088957943e-03
3.06810000000000e+00 7.65052184039011e-02 1.01409888790732e-03
3.10056666666667e+00 7.47647593879476e-02 9.96258554472694e-04
3.13303333333333e+00 7.30638950233656e-02 9.78678409161201e-04
3.16550000000000e+00 7.14017245498860e-02 9.61356857054668e-04
3.19796666666667e+00 6.97773677041173e-02 9.44292200998115e-04
3.23043333333333e+00 6.81899642381818e-02 9.27482646912789e-04
3.26290000000000e+00 6.66386734795308e-02 9.10926308813079e-04
3.29536666666667e+00 6.51226738850531e-02 8.94621219815832e-04
3.32783333333333e+00 6.36411625922443e-02 8.78565336510153e-04
3.36030000000000e+00 6.21933550079581e-02 8.62756543080692e-04
3.39276666666667e+00 6.07784843922806e-02 8.47192660964483e-04
3.42523333333333e+00 5.93958014400126e-02 8.31871452425485e-04
3.45770000000000e+00 5.80445738964779e-02 8.16790623923942e-04
3.49016666666667e+00 5.67240861691746e-02 8.01947834595610e-04
3.52263333333333e+00 5.54336389375050e-02 7.87340699154968e-04
3.55510000000000e+00 5.41725487938792e-02 7.72966790627754e-04
3.58756666666667e+00 5.29401478812904e-02 7.58823647802310e-04
3.62003333333333e+00 5.17357835293668e-02 7.44908777565668e-04
3.65250000000000e+00 5.05588179191247e-02 7.31219657097727e-04
3.68496666666667e+00 4.94086277447340e-02 7.17753740423551e-04
3.71743333333333e+00 4.82846038741046e-02 7.04508460270060e-04
3.74990000000000e+00 4.71861510357439e-02 6.91481229804986e-04
3.78236666666667e+00 4.61126875030983e-02 6.78669448401273e-04
3.81483333333333e+00 4.50636447780070e-02 6.66070503088659e-04
3.84730000000000e+00 4.40384672982199e-02 6.53681769907802e-04
3.87976666666667e+00 4.30366121428069e-02 6.41500618982972e-04
3.91223333333333e+00 4.20575487369285e-02 6.29524415631435e-04
3.94470000000000e+00 4.11007585786615e-02 6.17750521392454e-04
3.97716666666667e+00 4.01657349640699e-02 6.06176298491886e-04
4.00963333333333e+00 3.92519827118471e-02 5.94799110662812e-04
4.04210000000000e+00 3.83590179081845e-02 5.83616323900214e-04
4.07456666666667e+00 3.74863676501912e-02 5.72625310390246e-04
4.10703333333333e+00 3.66335697890627e-02 5.61823449087622e-04
4.13950000000000e+00 3.58001726918086e-02 5.51208126239204e-04
4.17196666666667e+00 3.49857350017962e-02 5.40776738841465e-04
4.20443333333333e+00 3.41898253991919e-02 5.30526695013476e-04
4.23690000000000e+00 3.34120223784419e-02 5.20455414326319e-04
4.26936666666667e+00 3.26519140247957e-02 5.10560330844318e-04
4.30183333333333e+00 3.19090977908532e-02 5.00838893326720e-04
4.33430000000000e+00 3.11831802887625e-02 4.91288565394474e-04
4.36676666666667e+00 3.04737770816571e-02 4.81906828203986e-04
4.39923333333333e+00 2.97805124752207e-02 4.72691180505764e-04
4.43170000000000e+00 2.91030193236334e-02 4.63639138675559e-04
4.46416666666667e+00 2.84409388349281e-02 4.54748239063390e-04
4.49663333333333e+00 2.77939203765583e-02 4.46016037933397e-04
4.52910000000000e+00 2.71616212941886e-02 4.37440111382406e-04
4.56156666666667e+00 2.65437067300404e-02 4.29018057401880e-04
4.59403333333333e+00 2.59398494415180e-02 4.20747495719685e-04
4.62650000000000e+00 2.53497296319980e-02 4.12626067625787e-04
4.65896666666667e+00 2.47730347812965e-02 4.04651437780329e-04
4.69143333333333e+00 2.42094594764739e-02 3.96821293975041e-04
4.72390000000000e+00 2.36587052538313e-02 3.89133346882957e-04
4.75636666666667e+00 2.31204804406909e-02 3.81585331641878e-04
4.78883333333333e+00 2.25944999975582e-02 3.74175007550561e-04
4.82130000000000e+00 2.20804853705868e-02 3.66900157756946e-04
4.85376666666667e+00 2.15781643439165e-02 3.59758590642845e-04
4.88623333333333e+00 2.10872708924280e-02 3.52748139467878e-04
4.91870000000000e+00 2.06075450439852e-02 3.45866662008547e-04
4.95116666666667e+00 2.01387327416264e-02 3.39112041767022e-04
4.98363333333333e+00 1.96805857061985e-02 3.32482187573900e-04
5.01610000000000e+00 1.92328613077309e-02 3.25975033188696e-04
5.04856666666667e+00 1.87953224368226e-02 3.19588538352940e-04
5.08103333333333e+00 1.83677373764904e-02 3.13320688361217e-04
5.11350000000000e+00 1.79498796820720e-02 3.07169493632048e-04
5.14596666666667e+00 1.75415280611942e-02 3.01132990623267e-04
5.17843333333333e+00 1.71424662542166e-02 2.95209241379366e-04
5.21090000000000e+00 1.67524829220989e-02 2.89396333080453e-04
5.24336666666667e+00 1.63713715343786e-02 2.83692378835785e-04
5.27583333333333e+00 1.59989302576313e-02 2.78095517214241e-04
5.30830000000000e+00 1.56349618507760e-02 2.72603911777903e-04
5.34076666666667e+00 1.52792735605281e-02 2.67215751767820e-04
5.37323333333333e+00 1.49316770173365e-02 2.61929251623426e-04
5.40570000000000e+00 1.45919881376363e-02 2.56742650506234e-04
5.43816666666667e+00 1.42600270262765e-02 2.51654212890377e-04
5.47063333333333e+00 1.39356178794335e-02 2.46662228075850e-04
5.50310000000000e+00 1.36185888933492e-02 2.41765009706973e-04
5.53556666666667e+00 1.33087721732702e-02 2.36960896278828e-04
5.56803333333333e+00 1.30060036428667e-02 2.32248250648438e-04
5.60050000000000e+00 1.27101229590293e-02 2.27625459551939e-04
5.63296666666667e+00 1.24209734268828e-02 2.23090934036767e-04
5.66543333333333e+00 1.21384019152756e-02 2.18643108974214e-04
5.69790000000000e+00 1.18622587772319e-02 2.14280442578594e-04
5.73036666666667e+00 1.15923977706368e-02 2.10001416773944e-04
5.76283333333333e+00 1.13286759793872e-02 2.05804536710849e-04
5.79530000000000e+00 1.10709537391258e-02 2.01688330290307e-04
5.82776666666667e+00 1.08190945632183e-02 1.97651348472748e-04
5.86023333333333e+00 1.05729650691857e-02 1.93692164801497e-04
5.89270000000000e+00 1.03324349093711e-02 1.89809374933570e-04
5.92516666666667e+00 1.00973767018546e-02 1.86001596897951e-04
5.95763333333333e+00 9.86766596181429e-03 1.82267470627620e-04
5.99010000000000e+00 9.64318103679655e-03 1.78605657499147e-04
6.02256666666667e+00 9.42380304224175e-03 1.75014840546361e-04
6.05503333333333e+00 9.20941579744082e-03 1.71493724002511e-04
6.08750000000000e+00 8.99990576510614e-03 1.68041032850136e-04
6.11996666666667e+00 8.79516199119853e-03 1.64655512995596e-04
6.15243333333333e+00 8.59507604517239e-03 1.61335930822622e-04
6.18490000000000e+00 8.39954196356123e-03 1.58081072753639e-04
6.21736666666667e+00 8.20845619381941e-03 1.54889745390028e-04
6.24983333333333e+00 8.02171753856803e-03 1.51760775078029e-04
6.28230000000000e+00 7.83922710292887e-03 1.48693007482426e-04
6.31476666666667e+00 7.66088824211306e-03 1.45685307696859e-04
6.34723333333333e+00 7.48660650939936e-03 1.42736559822834e-04
6.37970000000000e+00 7.31628960696797e-03 1.39845666556443e-04
6.41216666666667e+00 7.14984733698605e-03 1.37011549272574e-04
6.44463333333333e+00 6.98719155306814e-03 1.34233147617552e-04
6.47710000000000e+00 6.82823611437772e-03 1.31509419109412e-04
6.50956666666667e+00 6.67289683997614e-03 1.28839339199379e-04
6.54203333333333e+00 6.52109146353194e-03 1.26221900878535e-04
6.57450000000000e+00 6.37273959047313e-03 1.23656114291969e-04
6.60696666666667e+00 6.22776265538192e-03 1.21141006780558e-04
6.63943333333333e+00 6.08608387973509e-03 1.18675622501854e-04
6.67190000000000e+00 5.94762823190461e-03 1.16259022058321e-04
6.70436666666667e+00 5.81232238739487e-03 1.13890282522089e-04
6.73683333333333e+00 5.68009468941105e-03 1.11568497070177e-04
6.76930000000000e+00 5.55087511151893e-03 1.09292774626868e-04
6.80176666666667e+00 5.42459522053509e-03 1.07062239873824e-04
6.83423333333333e+00 5.30118813973362e-03 1.04876032899618e-04
6.86670000000000e+00 5.18058851398875e-03 1.02733308856250e-04
6.89916666666667e+00 5.06273247514085e-03 1.00633237956706e-04
6.93163333333333e+00 4.94755760766488e-03 9.85750051387172e-05
6.96410000000000e+00 4.83500291613085e-03 9.65578097352908e-05
6.99656666666667e+00 4.72500879288052e-03 9.45808654615829e-05
7.02903333333333e+00 4.61751698599265e-03 9.26434000927169e-05
7.06150000000000e+00 4.51247056890738e-03 9.07446551481515e-05
7.09396666666667e+00 4.40981391025944e-03 8.88838858695034e-05
7.12643333333333e+00 4.30949264398639e-03 8.70603609122053e-05
7.15890000000000e+00 4.21145364097319e-03 8.52733620434803e-05
7.19136666666667e+00 4.11564498089801e-03 8.35221841125542e-05
7.22383333333333e+00 4.02201592434000e-03 8.18061347558731e-05
7.25630000000000e+00 3.93051688630977e-03 8.01245341084119e-05
7.28876666666667e+00 3.84109940997364e-03 7.84767147675545e-05
7.32123333333333e+00 3.75371614062690e-03 7.68620215115517e-05
7.35370000000000e+00 3.66832080098507e-03 7.52798110238414e-05
7.38616666666667e+00 3.58486816666112e-03 7.37294518517187e-05
7.41863333333333e+00 3.50331404187942e-03 7.22103241376941e-05
7.45110000000000e+00 3.42361523641072e-03 7.07218193564764e-05
7.48356666666667e+00 3.34572954268540e-03 6.92633402694214e-05
7.51603333333333e+00 3.26961571313163e-03 6.78343006684085e-05
7.54850000000000e+00 3.19523343864475e-03 6.64341251251241e-05
7.58096666666667e+00 3.12254332722748e-03 6.50622489421508e-05
7.61343333333333e+00 3.05150688284349e-03 6.37181179089753e-05
7.64590000000000e+00 2.98208648531928e-03 6.24011880631839e-05
7.67836666666667e+00 2.91424537040940e-03 6.11109256389426e-05
7.71083333333333e+00 2.84794761006408e-03 5.98468068347414e-05
7.74330000000000e+00 2.78315809366834e-03 5.86083175860988e-05
7.77576666666667e+00 2.71984250943716e-03 5.73949535120952e-05
7.80823333333333e+00 2.65796732600251e-03 5.62062196944426e-05
7.84070000000000e+00 2.59749977490082e-03 5.50416304612870e-05
7.87316666666667e+00 2.53840783320940e-03 5.39007093323708e-05
7.90563333333333e+00 2.48066020636453e-03 5.27829888090094e-05
7.93810000000000e+00 2.42422631181433e-03 5.16880101685903e-05
7.97056666666667e+00 2.36907626281357e-03 5.06153234088528e-05
8.00303333333333e+00 2.31518085239048e-03 4.95644870483584e-05
8.03550000000000e+00 2.26251153808755e-03 4.85350679312742e-05
8.06796666666667e+00 2.21104042683740e-03 4.75266411712005e-05
8.10043333333333e+00 2.16074026000152e-03 4.65387899617162e-05
8.13290000000000e+00 2.11158439912657e-03 4.55711053910371e-05
8.16536666666667e+00 2.06354681182927e-03 4.46231863857655e-05
8.19783333333334e+00 2.01660205783527e-03 4.36946395310962e-05
8.23030000000000e+00 1.97072527568351e-03 4.27850788949442e-05
8.26276666666667e+00 1.92589216955276e-03 4.18941259719285e-05
8.29523333333333e+00 1.88207899623372e-03 4.10214095128375e-05
8.32770000000000e+00 1.83926255271839e-03 4.01665653578244e-05
8.36016666666667e+00 1.79742016390540e-03 3.93292363808925e-05
8.39263333333333e+00 1.75652967044304e-03 3.85090723282232e-05
8.42510000000000e+00 1.71656941714459e-03 3.77057296600460e-05
8.45756666666667e+00 1.67751824151401e-03 3.69188714958518e-05
8.49003333333333e+00 1.63935546240143e-03 3.61481674611912e-05
8.52250000000000e+00 1.60206086918972e-03 3.53932935378370e-05
8.55496666666667e+00 1.56561471108564e-03 3.46539320099163e-05
8.58743333333334e+00 1.52999768653356e-03 3.39297713187961e-05
8.61990000000000e+00 1.49519093312189e-03 3.32205059211641e-05
8.65236666666667e+00 1.46117601758866e-03 3.25258362362376e-05
8.68483333333334e+00 1.42793492594276e-03 3.18454685083653e-05
8.71730000000000e+00 1.39545005404233e-03 3.11791146726626e-05
8.74976666666667e+00 1.36370419826713e-03 3.05264923034262e-05
8.78223333333333e+00 1.33268054629992e-03 2.98873244840908e-05
8.81470000000000e+00 1.30236266833221e-03 2.92613396800665e-05
8.84716666666667e+00 1.27273450835881e-03 2.86482716884607e-05
8.87963333333333e+00 1.24378037557536e-03 2.80478595150452e-05
8.91210000000000e+00 1.21548493616952e-03 2.74598472539505e-05
8.94456666666667e+00 1.18783320519634e-03 2.68839840387792e-05
8.97703333333333e+00 1.16081053855065e-03 2.63200239262432e-05
9.00950000000000e+00 1.13440262530480e-03 2.57677257823867e-05
9.04196666666667e+00 1.10859548012604e-03 2.52268532351511e-05
9.07443333333334e+00 1.08337543578538e-03 2.46971745643599e-05
9.10690000000000e+00 1.05872913600547e-03 2.41784625941519e-05
9.13936666666667e+00 1.03464352838390e-03 2.36704946470427e-05
9.17183333333334e+00 1.01110585740255e-03 2.31730524399417e-05
9.20430000000000e+00 9.88103657751779e-04 2.26859219824895e-05
9.23676666666667e+00 9.65624747725809e-04 2.22088935326482e-05
9.26923333333333e+00 9.43657222699172e-04 2.17417614984514e-05
9.30170000000000e+00 9.22189448895451e-04 2.12843243419476e-05
9.33416666666667e+00 9.01210057223264e-04 2.08363845363382e-05
9.36663333333333e+00 8.80707937188607e-04 2.03977484731704e-05
9.39910000000000e+00 8.60672231078544e-04 1.99682263716059e-05
9.43156666666667e+00 8.41092328208408e-04 1.95476322371124e-05
9.46403333333333e+00 8.21957859240886e-04 1.91357837738227e-05
9.49650000000000e+00 8.03258690757043e-04 1.87325022988567e-05
9.52896666666667e+00 7.84984919887311e-04 1.83376127025644e-05
9.56143333333334e+00 7.67126869010124e-04 1.79509433657850e-05
9.59390000000000e+00 7.49675080684503e-04 1.75723260789629e-05
9.62636666666667e+00 7.32620312639215e-04 1.72015960039325e-05
9.65883333333334e+00 7.15953532825599e-04 1.68385915958236e-05
9.69130000000000e+00 6.99665914687633e-04 1.64831545267200e-05
9.72376666666667e+00 6.83748832485385e-04 1.61351296489706e-05
9.75623333333333e+00 6.68193856678342e-04 1.57943649214982e-05
9.78870000000000e+00 6.52992749510502e-04 1.54607113377644e-05
9.82116666666667e+00 6.38137460645808e-04 1.51340228905831e-05
9.85363333333333e+00 6.23620122859895e-04 1.48141565026002e-05
9.88610000000000e+00 6.09433047919236e-04 1.45009719583377e-05
9.91856666666667e+00 5.95568722507741e-04 1.41943318704824e-05
9.95103333333333e+00 5.82019804206315e-04 1.38941016143155e-05
9.98350000000000e+00 5.68779117646475e-04 1.36001492636189e-05
1.00159666666667e+01 5.55839650708699e-04 1.33123455584087e-05
1.00484333333333e+01 5.43194550770551e-04 1.30305638520524e-05
1.00809000000000e+01 5.30837121080667e-04 1.27546800061356e-05
1.01133666666667e+01 5.18760817389610e-04 1.24845724394982e-05
1.01458333333333e+01 5.06959244091406e-04 1.22201220359632e-05
1.01783000000000e+01 4.95426151196023e-04 1.19612119967313e-05
1.02107666666667e+01 4.84155431005361e-04 1.17077279697279e-05
1.02432333333333e+01 4.73141114551229e-04 1.14595579163975e-05
