Energy (eV)          EEDF (eV^-(3/2))     First Anisotropy
1.89743589743590e-04 1.26197438856386e+02 4.77967627210805e-02
5.69230769230769e-04 1.25087353584600e+02 7.88439653388940e-02
9.48717948717949e-04 1.23987033085237e+02 1.03865764534689e-01
1.32820512820513e-03 1.22896391462851e+02 1.22743343136742e-01
1.70769230769231e-03 1.21815343578838e+02 1.38378880514995e-01
2.08717948717949e-03 1.20743805042641e+02 1.51872777044972e-01
2.46666666666667e-03 1.19681692206059e+02 1.63796030435463e-01
2.84615384615385e-03 1.18628922156703e+02 1.74494358186061e-01
3.22564102564103e-03 1.17585412711518e+02 1.84197642158049e-01
3.60512820512821e-03 1.16551082410367e+02 1.93068776473231e-01
3.98461538461538e-03 1.15525850510750e+02 2.01228651777476e-01
4.36410256410256e-03 1.14509636978155e+02 2.08770207761201e-01
4.74358974358974e-03 1.13502362483280e+02 2.15766914262731e-01
5.12307692307692e-03 1.12503948394636e+02 2.22278176773908e-01
5.50256410256410e-03 1.11514316772406e+02 2.28352935544064e-01
5.88205128205128e-03 1.10533390362362e+02 2.34032149072703e-01
6.26153846153846e-03 1.09561092589836e+02 2.39350559772368e-01
6.64102564102564e-03 1.08597347553740e+02 2.44337981524054e-01
7.02051282051282e-03 1.07642080020646e+02 2.49020259296182e-01
7.40000000000000e-03 1.06695215418906e+02 2.53419998056093e-01
7.77948717948718e-03 1.05756679832836e+02 2.57557125748431e-01
8.15897435897436e-03 1.04826399996945e+02 2.61449334583530e-01
8.53846153846154e-03 1.03904303290216e+02 2.65112431527644e-01
8.91794871794872e-03 1.02990317730436e+02 2.68560619991364e-01
9.29743589743590e-03 1.02084371968577e+02 2.71806728655115e-01
9.67692307692308e-03 1.01186395283229e+02 2.74862399164777e-01
1.00564102564103e-02 1.00296317575074e+02 2.77738241525899e-01
1.04358974358974e-02 9.94140693630850e+01 2.80443963470769e-01
1.08153846153846e-02 9.85395817733773e+01 2.82988479544908e-01
1.11948717948718e-02 9.76727865403419e+01 2.85380003457135e-01
1.15743589743590e-02 9.68136159988338e+01 2.87626126323517e-01
1.19538461538462e-02 9.59620030789331e+01 2.89733884161867e-01
1.23333333333333e-02 9.51178813034624e+01 2.91709815491347e-01
1.27128205128205e-02 9.42811847743881e+01 2.93560011735078e-01
1.30923076923077e-02 9.34518481761903e+01 2.95290161171199e-01
1.34717948717949e-02 9.26298067678689e+01 2.96905586721899e-01
1.38512820512821e-02 9.18149963779286e+01 2.98411279694258e-01
1.42307692307692e-02 9.10073534016416e+01 2.99811928987230e-01
1.46102564102564e-02 9.02068147891304e+01 3.01111947410683e-01
1.49897435897436e-02 8.94133180474818e+01 3.02315495117057e-01
1.53692307692308e-02 8.86268012334778e+01 3.03426499921085e-01
1.57487179487179e-02 8.78472029487943e+01 3.04448675967464e-01
1.61282051282051e-02 8.70744623371203e+01 3.05385539984028e-01
1.65076923076923e-02 8.63085190735519e+01 3.06240426335904e-01
1.68871794871795e-02 8.55493133658045e+01 3.07016500643062e-01
1.72666666666667e-02 8.47967859475412e+01 3.07716771594106e-01
1.76461538461538e-02 8.40508780737666e+01 3.08344102109328e-01
1.80256410256410e-02 8.33115315178797e+01 3.08901219042418e-01
1.84051282051282e-02 8.25786885621238e+01 3.09390722419855e-01
1.87846153846154e-02 8.18522919981380e+01 3.09815093904797e-01
1.91641025641026e-02 8.11322851207847e+01 3.10176704090574e-01
1.95435897435897e-02 8.04186117237349e+01 3.10477819598478e-01
1.99230769230769e-02 7.97112160965006e+01 3.10720609192851e-01
2.03025641025641e-02 7.90100430157581e+01 3.10907149780425e-01
2.06820512820513e-02 7.83150377454077e+01 3.11039431962517e-01
2.10615384615385e-02 7.76261460308287e+01 3.11119364755846e-01
2.14410256410256e-02 7.69433140946506e+01 3.11148780335899e-01
2.18205128205128e-02 7.62664886337973e+01 3.11129438061648e-01
2.22000000000000e-02 7.55956168115484e+01 3.11063028555094e-01
2.25794871794872e-02 7.49306462572270e+01 3.10951177508537e-01
2.29589743589744e-02 7.42715250608300e+01 3.10795448927744e-01
2.33384615384615e-02 7.36182017700982e+01 3.10597348160596e-01
2.37179487179487e-02 7.29706253831066e+01 3.10358324978148e-01
2.40974358974359e-02 7.23287453477057e+01 3.10079776466040e-01
2.44769230769231e-02 7.16925115564202e+01 3.09763049388148e-01
2.48564102564103e-02 7.10618743425421e+01 3.09409442723378e-01
2.52358974358974e-02 7.04367844772439e+01 3.09020209726791e-01
2.56153846153846e-02 6.98171931627357e+01 3.08596560165817e-01
2.59948717948718e-02 6.92030520314824e+01 3.08139662430946e-01
2.63743589743590e-02 6.85943131414063e+01 3.07650645209105e-01
2.67538461538462e-02 6.79909289721501e+01 3.07130599357547e-01
2.71333333333333e-02 6.73928524222471e+01 3.06580579376791e-01
2.75128205128205e-02 6.68000368027761e+01 3.06001605081362e-01
2.78923076923077e-02 6.62124358364081e+01 3.05394663184026e-01
2.82717948717949e-02 6.56300036528856e+01 3.04760708506482e-01
2.86512820512821e-02 6.50526947854474e+01 3.04100665400549e-01
2.90307692307692e-02 6.44804641680651e+01 3.03415428822100e-01
2.94102564102564e-02 6.39132671295393e+01 3.02705865610858e-01
2.97897435897436e-02 6.33510593924194e+01 3.01972815708460e-01
3.01692307692308e-02 6.27937970687342e+01 3.01217093050295e-01
3.05487179487179e-02 6.22414366565726e+01 3.00439486668255e-01
3.09282051282051e-02 6.16939350373913e+01 2.99640761486753e-01
3.13076923076923e-02 6.11512494705083e+01 2.98821659324646e-01
3.16871794871795e-02 6.06133375919259e+01 2.97982899851641e-01
3.20666666666667e-02 6.00801574102956e+01 2.97125181254959e-01
3.24461538461538e-02 5.95516673036446e+01 2.96249181112261e-01
3.28256410256410e-02 5.90278260167617e+01 2.95355556989765e-01
3.32051282051282e-02 5.85085926560471e+01 2.94444947241655e-01
3.35846153846154e-02 5.79939266882665e+01 2.93517971775002e-01
3.39641025641026e-02 5.74837879367312e+01 2.92575232554081e-01
3.43435897435897e-02 5.69781365781651e+01 2.91617314303586e-01
3.47230769230769e-02 5.64769331401708e+01 2.90644784963079e-01
3.51025641025641e-02 5.59801384964035e+01 2.89658196335519e-01
3.54820512820513e-02 5.54877138652752e+01 2.88658084708945e-01
3.58615384615385e-02 5.49996208063367e+01 2.87644971241801e-01
3.62410256410256e-02 5.45158212172778e+01 2.86619362538170e-01
3.66205128205128e-02 5.40362773314755e+01 2.85581750996049e-01
3.70000000000000e-02 5.35609517134624e+01 2.84532615341359e-01
3.73794871794872e-02 5.30898072575999e+01 2.83472421140429e-01
3.77589743589744e-02 5.26228071846463e+01 2.82401621135367e-01
3.81384615384615e-02 5.21599150393696e+01 2.81320655566855e-01
3.85179487179487e-02 5.17010946862380e+01 2.80229952635300e-01
3.88974358974359e-02 5.12463103080745e+01 2.79129928943666e-01
3.92769230769231e-02 5.07955264027637e+01 2.78020989739404e-01
3.96564102564103e-02 5.03487077804820e+01 2.76903529328728e-01
4.00358974358974e-02 4.99058195613911e+01 2.75777931295855e-01
4.04153846153846e-02 4.94668271715822e+01 2.74644568891393e-01
4.07948717948718e-02 4.90316963417203e+01 2.73503805405314e-01
4.11743589743590e-02 4.86003931039169e+01 2.72355994354862e-01
4.15538461538462e-02 4.81728837890796e+01 2.71201479835308e-01
4.19333333333333e-02 4.77491350246865e+01 2.70040596690163e-01
4.23128205128205e-02 4.73291137309624e+01 2.68873670841737e-01
4.26923076923077e-02 4.69127871195248e+01 2.67701019608515e-01
4.30717948717949e-02 4.65001226904101e+01 2.66522951851369e-01
4.34512820512820e-02 4.60910882295389e+01 2.65339768273438e-01
4.38307692307692e-02 4.56856518065687e+01 2.64151761552408e-01
4.42102564102564e-02 4.52837817712871e+01 2.62959216624487e-01
4.45897435897436e-02 4.48854467522640e+01 2.61762410956881e-01
4.49692307692308e-02 4.44906156540247e+01 2.60561614661611e-01
4.53487179487179e-02 4.40992576546238e+01 2.59357090754122e-01
4.57282051282051e-02 4.37113422035770e+01 2.58149095255907e-01
4.61076923076923e-02 4.33268390184533e+01 2.56937877440496e-01
4.64871794871795e-02 4.29457180835417e+01 2.55723680069353e-01
4.68666666666667e-02 4.25679496471611e+01 2.54506739480177e-01
4.72461538461538e-02 4.21935042193393e+01 2.53287285811658e-01
4.76256410256410e-02 4.18223525698208e+01 2.52065543082804e-01
4.80051282051282e-02 4.14544657248457e+01 2.50841729407618e-01
4.83846153846154e-02 4.10898149658345e+01 2.49616057200768e-01
4.87641025641026e-02 4.07283718268276e+01 2.48388733245736e-01
4.91435897435897e-02 4.03701080922647e+01 2.47159958891535e-01
4.95230769230769e-02 4.00149957950667e+01 2.45929930113541e-01
4.99025641025641e-02 3.96630072135891e+01 2.44698837702090e-01
5.02820512820513e-02 3.93141148703281e+01 2.43466867442984e-01
5.06615384615385e-02 3.89682915294832e+01 2.42234200169613e-01
5.10410256410256e-02 3.86255101948319e+01 2.41001011936157e-01
5.14205128205128e-02 3.82857441078848e+01 2.39767474063733e-01
5.18000000000000e-02 3.79489667450012e+01 2.38533753307066e-01
5.21794871794872e-02 3.76151518161198e+01 2.37300012013807e-01
5.25589743589744e-02 3.72842732624377e+01 2.36066408187226e-01
5.29384615384615e-02 3.69563052546229e+01 2.34833095546349e-01
5.33179487179487e-02 3.66312221900526e+01 2.33600223677387e-01
5.36974358974359e-02 3.63089986915652e+01 2.32367938178360e-01
5.40769230769231e-02 3.59896096052267e+01 2.31136380690149e-01
5.44564102564103e-02 3.56730299983677e+01 2.29905689036178e-01
5.48358974358974e-02 3.53592351578651e+01 2.28675997249096e-01
5.52153846153846e-02 3.50482005875237e+01 2.27447435705891e-01
5.55948717948718e-02 3.47399020068584e+01 2.26220131256636e-01
5.59743589743590e-02 3.44343153489645e+01 2.24994207246936e-01
5.63538461538462e-02 3.41314167586404e+01 2.23769783642694e-01
5.67333333333333e-02 3.38311825907351e+01 2.22546977048789e-01
5.71128205128205e-02 3.35335894076665e+01 2.21325900830132e-01
5.74923076923077e-02 3.32386139782325e+01 2.20106665226839e-01
5.78717948717949e-02 3.29462332755819e+01 2.18889377369699e-01
5.82512820512820e-02 3.26564244754177e+01 2.17674141392078e-01
5.86307692307692e-02 3.23691649544099e+01 2.16461058442141e-01
5.90102564102564e-02 3.20844322878401e+01 2.15250226791755e-01
5.93897435897436e-02 3.18022042484446e+01 2.14041741939923e-01
5.97692307692308e-02 3.15224588044797e+01 2.12835696622577e-01
6.01487179487179e-02 3.12451741180024e+01 2.11632180913329e-01
6.05282051282051e-02 3.09703285433460e+01 2.10431282230531e-01
6.09076923076923e-02 3.06979006248842e+01 2.09233085435565e-01
6.12871794871795e-02 3.04278690959067e+01 2.08037672926026e-01
6.16666666666667e-02 3.01602128767733e+01 2.06845124640979e-01
6.20461538461538e-02 2.98949110732698e+01 2.05655518151990e-01
6.24256410256410e-02 2.96319429751436e+01 2.04468928665938e-01
6.28051282051282e-02 2.93712880539807e+01 2.03285429114065e-01
6.31846153846154e-02 2.91129259621133e+01 2.02105090236216e-01
6.35641025641026e-02 2.88568365308601e+01 2.00927980582393e-01
6.39435897435897e-02 2.86029997689519e+01 1.99754166595248e-01
6.43230769230769e-02 2.83513958611269e+01 1.98583712609514e-01
6.47025641025641e-02 2.81020051661132e+01 1.97416680932881e-01
6.50820512820513e-02 2.78548082155693e+01 1.96253131922387e-01
6.54615384615385e-02 2.76097857124050e+01 1.95093123982976e-01
6.58410256410256e-02 2.73669185292759e+01 1.93936713642459e-01
6.62205128205128e-02 2.71261877072342e+01 1.92783955548250e-01
6.66000000000000e-02 2.68875744538116e+01 1.91634902540979e-01
6.69794871794872e-02 2.66510601419925e+01 1.90489605723965e-01
6.73589743589744e-02 2.64166263086126e+01 1.89348114474066e-01
6.77384615384615e-02 2.61842546530534e+01 1.88210476451328e-01
6.81179487179487e-02 2.59539270354021e+01 1.87076737667399e-01
6.84974358974359e-02 2.57256254754501e+01 1.85946942549882e-01
6.88769230769231e-02 2.54993321511499e+01 1.84821133937052e-01
6.92564102564103e-02 2.52750293972245e+01 1.83699353141297e-01
6.96358974358974e-02 2.50526997039148e+01 1.82581639942302e-01
7.00153846153846e-02 2.48323257152295e+01 1.81468032649613e-01
7.03948717948718e-02 2.46138902279762e+01 1.80358568161407e-01
7.07743589743590e-02 2.43973761902891e+01 1.79253281957571e-01
7.11538461538462e-02 2.41827667002974e+01 1.78152208157746e-01
7.15333333333333e-02 2.39700450049248e+01 1.77055379513065e-01
7.19128205128205e-02 2.37591944982238e+01 1.75962827463477e-01
7.22923076923077e-02 2.35501987204398e+01 1.74874582191502e-01
7.26717948717949e-02 2.33430413566045e+01 1.73790672614069e-01
7.30512820512820e-02 2.31377062352633e+01 1.72711126435696e-01
7.34307692307692e-02 2.29341773273225e+01 1.71635970139096e-01
7.38102564102564e-02 2.27324387444653e+01 1.70565229037806e-01
7.41897435897436e-02 2.25324747382466e+01 1.69498927325440e-01
7.45692307692308e-02 2.23342696987511e+01 1.68437088066568e-01
7.49487179487179e-02 2.21378081533749e+01 1.67379733245507e-01
7.53282051282051e-02 2.19430747657205e+01 1.66326883756071e-01
7.57076923076923e-02 2.17500543340888e+01 1.65278559449981e-01
7.60871794871795e-02 2.15587317906052e+01 1.64234779182062e-01
7.64666666666667e-02 2.13690921999382e+01 1.63195560800369e-01
7.68461538461538e-02 2.11811207581340e+01 1.62160921191058e-01
7.72256410256410e-02 2.09948027915564e+01 1.61130876267473e-01
7.76051282051282e-02 2.08101237554515e+01 1.60105441014734e-01
7.79846153846154e-02 2.06270692331042e+01 1.59084629531317e-01
7.83641025641026e-02 2.04456249346149e+01 1.58068455018580e-01
7.87435897435897e-02 2.02657766957839e+01 1.57056929822096e-01
7.91230769230769e-02 2.00875104770953e+01 1.56050065420283e-01
7.95025641025641e-02 1.99108123623503e+01 1.55047872465512e-01
7.98820512820513e-02 1.97356685578535e+01 1.54050360822373e-01
8.02615384615385e-02 1.95620653912444e+01 1.53057539556843e-01
8.06410256410256e-02 1.93899893104306e+01 1.52069416974376e-01
8.10205128205128e-02 1.92194268826131e+01 1.51086000608185e-01
8.14000000000000e-02 1.90503647929849e+01 1.50107297257242e-01
8.17794871794872e-02 1.88827898439465e+01 1.49133313021561e-01
8.21589743589744e-02 1.87166889539896e+01 1.48164053300479e-01
8.25384615384615e-02 1.85520491567560e+01 1.47199522790166e-01
8.29179487179487e-02 1.83888575997852e+01 1.46239725519294e-01
8.32974358974359e-02 1.82271015437528e+01 1.45284664882058e-01
8.36769230769231e-02 1.80667683613945e+01 1.44334343626950e-01
8.40564102564103e-02 1.79078455365207e+01 1.43388763889788e-01
8.44358974358974e-02 1.77503206631137e+01 1.42447927181730e-01
8.48153846153846e-02 1.75941814441352e+01 1.41511834422300e-01
8.51948717948718e-02 1.74394156907916e+01 1.40580485969900e-01
8.55743589743590e-02 1.72860113215071e+01 1.39653881610485e-01
8.59538461538462e-02 1.71339563609804e+01 1.38732020588123e-01
8.63333333333333e-02 1.69832389393194e+01 1.37814901592959e-01
8.67128205128205e-02 1.68338472909049e+01 1.36902522791817e-01
8.70923076923077e-02 1.66857697536832e+01 1.35994881856436e-01
8.74717948717949e-02 1.65389947681848e+01 1.35091975952104e-01
8.78512820512821e-02 1.63935108766222e+01 1.34193801765971e-01
8.82307692307692e-02 1.62493067220603e+01 1.33300355495044e-01
8.86102564102564e-02 1.61063710473337e+01 1.32411632874580e-01
8.89897435897436e-02 1.59646926943653e+01 1.31527629204197e-01
8.93692307692308e-02 1.58242606032293e+01 1.30648339336572e-01
8.97487179487179e-02 1.56850638112873e+01 1.29773757703706e-01
9.01282051282051e-02 1.55470914523940e+01 1.28903878304973e-01
9.05076923076923e-02 1.54103327558648e+01 1.28038694733492e-01
9.08871794871795e-02 1.52747770458198e+01 1.27178200200325e-01
9.12666666666667e-02 1.51404137402888e+01 1.26322387523284e-01
9.16461538461538e-02 1.50072323503850e+01 1.25471249151259e-01
9.20256410256410e-02 1.48752224795433e+01 1.24624777152444e-01
9.24051282051282e-02 1.47443738225362e+01 1.23782963238832e-01
9.27846153846154e-02 1.46146761648433e+01 1.22945798788647e-01
9.31641025641026e-02 1.44861193817950e+01 1.22113274835287e-01
9.35435897435897e-02 1.43586934377827e+01 1.21285382089921e-01
9.39230769230769e-02 1.42323883855286e+01 1.20462110929897e-01
9.43025641025641e-02 1.41071943651480e+01 1.19643451421497e-01
9.46820512820513e-02 1.39831016035414e+01 1.18829393340780e-01
9.50615384615385e-02 1.38601004135781e+01 1.18019926162682e-01
9.54410256410256e-02 1.37381811933392e+01 1.17215039082006e-01
9.58205128205128e-02 1.36173344254182e+01 1.16414721002057e-01
9.62000000000000e-02 1.34975506760273e+01 1.15618960555809e-01
9.65794871794872e-02 1.33788205944126e+01 1.14827746125246e-01
9.69589743589744e-02 1.32611349120734e+01 1.14041065836838e-01
9.73384615384615e-02 1.31444844420861e+01 1.13258907556444e-01
9.77179487179487e-02 1.30288600782435e+01 1.12481258909288e-01
9.80974358974359e-02 1.29142527944887e+01 1.11708107298187e-01
9.84769230769231e-02 1.28006536441613e+01 1.10939439893065e-01
9.88564102564103e-02 1.26880537592998e+01 1.10175243649354e-01
9.92358974358974e-02 1.25764443499936e+01 1.09415505297077e-01
9.96153846153846e-02 1.24658167035618e+01 1.08660211359471e-01
9.99948717948718e-02 1.23561621840093e+01 1.07909348192465e-01
1.00374358974359e-01 1.22474722314781e+01 1.07162901861873e-01
1.00753846153846e-01 1.21397383607215e+01 1.06420858347541e-01
1.01133333333333e-01 1.20329521620741e+01 1.05683203474787e-01
1.01512820512821e-01 1.19271052994150e+01 1.04949922776282e-01
1.01892307692308e-01 1.18221895099512e+01 1.04221001666674e-01
1.02271794871795e-01 1.17181966035729e+01 1.03496425395369e-01
1.02651282051282e-01 1.16151184622139e+01 1.02776178999576e-01
1.03030769230769e-01 1.15129470388246e+01 1.02060247467367e-01
1.03410256410256e-01 1.14116743579329e+01 1.01348615633885e-01
1.03789743589744e-01 1.13112925138234e+01 1.00641268091599e-01
1.04169230769231e-01 1.12117936703224e+01 9.99381893437087e-02
1.04548717948718e-01 1.11131700601867e+01 9.92393637098226e-02
1.04928205128205e-01 1.10154139841275e+01 9.85447754803336e-02
1.05307692307692e-01 1.09185178113264e+01 9.78544088176900e-02
1.05687179487179e-01 1.08224739777145e+01 9.71682476710730e-02
1.06066666666667e-01 1.07272749857592e+01 9.64862759215867e-02
1.06446153846154e-01 1.06329134038792e+01 9.58084773397498e-02
1.06825641025641e-01 1.05393818658652e+01 9.51348355432104e-02
1.07205128205128e-01 1.04466730699604e+01 9.44653341413330e-02
1.07584615384615e-01 1.03547797793288e+01 9.37999566422803e-02
1.07964102564103e-01 1.02636948204443e+01 9.31386863727584e-02
1.08343589743590e-01 1.01734110828824e+01 9.24815066139342e-02
1.08723076923077e-01 1.00839215187647e+01 9.18284005170602e-02
1.09102564102564e-01 9.99521914188657e+00 9.11793512404412e-02
1.09482051282051e-01 9.90729702814642e+00 9.05343418610065e-02
1.09861538461538e-01 9.82014831402310e+00 8.98933552980231e-02
1.10241025641026e-01 9.73376619636974e+00 8.92563744417933e-02
1.10620512820513e-01 9.64814393188269e+00 8.86233821154182e-02
1.11000000000000e-01 9.56327483657544e+00 8.79943610367101e-02
1.11379487179487e-01 9.47915228495692e+00 8.73692939465171e-02
1.11758974358974e-01 9.39576971042004e+00 8.67481635255233e-02
1.12138461538462e-01 9.31312060381667e+00 8.61309523224665e-02
1.12517948717949e-01 9.23119851325564e+00 8.55176428746818e-02
1.12897435897436e-01 9.14999704359951e+00 8.49082176719936e-02
1.13276923076923e-01 9.06950985596520e+00 8.43026591207438e-02
1.13656410256410e-01 8.98973066695067e+00 8.37009496640838e-02
1.14035897435897e-01 8.91065324898584e+00 8.31030717036060e-02
1.14415384615385e-01 8.83227142899882e+00 8.25090075318425e-02
1.14794871794872e-01 8.75457908821845e+00 8.19187394452029e-02
1.15174358974359e-01 8.67757016169710e+00 8.13322496728645e-02
1.15553846153846e-01 8.60123863757480e+00 8.07495204907727e-02
1.15933333333333e-01 8.52557855740213e+00 8.01705341470918e-02
1.16312820512821e-01 8.45058401487711e+00 7.95952727979915e-02
1.16692307692308e-01 8.37624915565195e+00 7.90237186146597e-02
1.17071794871795e-01 8.30256817687620e+00 7.84558537508116e-02
1.17451282051282e-01 8.22953532674380e+00 7.78916603103140e-02
1.17830769230769e-01 8.15714490380029e+00 7.73311204540745e-02
1.18210256410256e-01 8.08539125723418e+00 7.67742163298486e-02
1.18589743589744e-01 8.01426878569399e+00 7.62209300118173e-02
1.18969230769231e-01 7.94377193709988e+00 7.56712436009006e-02
1.19348717948718e-01 7.87389520821064e+00 7.51251391610822e-02
1.19728205128205e-01 7.80463314396429e+00 7.45825988207591e-02
