Energy (eV)          EEDF (eV^-(3/2))     First Anisotropy
2.47560975609756e-02 7.88406012109747e-02 4.61163885713070e-05
7.42682926829268e-02 7.81793005516330e-02 7.60876855971543e-05
1.23780487804878e-01 7.75235467622711e-02 1.00276075281728e-04
1.73292682926829e-01 7.68732933177865e-02 1.18550077755466e-04
2.22804878048780e-01 7.62284940812756e-02 1.33706554755996e-04
2.72317073170732e-01 7.55891033012695e-02 1.46805325386171e-04
3.21829268292683e-01 7.49550756156552e-02 1.58396010162543e-04
3.71341463414634e-01 7.43263660395960e-02 1.68811195284684e-04
4.20853658536585e-01 7.37029299656518e-02 1.78271907585265e-04
4.70365853658537e-01 7.30847231605567e-02 1.86934680091481e-04
5.19878048780488e-01 7.24717017621132e-02 1.94915619226717e-04
5.69390243902439e-01 7.18638222760471e-02 2.02303938474663e-04
6.18902439024390e-01 7.12610415729124e-02 2.09170124546914e-04
6.68414634146342e-01 7.06633168841137e-02 2.15571140883498e-04
7.17926829268293e-01 7.00706058017072e-02 2.21553891742959e-04
7.67439024390244e-01 6.94828662724502e-02 2.27157612077773e-04
8.16951219512195e-01 6.89000565958395e-02 2.32415565894965e-04
8.66463414634146e-01 6.83221354211467e-02 2.37356284734379e-04
9.15975609756098e-01 6.77490617444913e-02 2.42004490440372e-04
9.65487804878049e-01 6.71807949059308e-02 2.46381795929398e-04
1.01500000000000e+00 6.66172945865721e-02 2.50507246490933e-04
1.06451219512195e+00 6.60585208040742e-02 2.54397743000741e-04
1.11402439024390e+00 6.55044339173464e-02 2.58068380178741e-04
1.16353658536585e+00 6.49549946085069e-02 2.61532715816131e-04
1.21304878048780e+00 6.44101638992853e-02 2.64802991005991e-04
1.26256097560976e+00 6.38699031290475e-02 2.67890310400564e-04
1.31207317073171e+00 6.33341739702775e-02 2.70804791126621e-04
1.36158536585366e+00 6.28029384085346e-02 2.73555687298022e-04
1.41109756097561e+00 6.22761587562507e-02 2.76151494356690e-04
1.46060975609756e+00 6.17537976343258e-02 2.78600037634069e-04
1.51012195121951e+00 6.12358179844999e-02 2.80908547499696e-04
1.55963414634146e+00 6.07221830523550e-02 2.83083723983811e-04
1.60914634146341e+00 6.02128563984663e-02 2.85131792195137e-04
1.65865853658537e+00 5.97078018826260e-02 2.87058550529923e-04
1.70817073170732e+00 5.92069836739392e-02 2.88869412386628e-04
1.75768292682927e+00 5.87103662361183e-02 2.90569442831879e-04
1.80719512195122e+00 5.82179143366590e-02 2.92163390570234e-04
1.85670731707317e+00 5.77295930330812e-02 2.93655716310002e-04
1.90621951219512e+00 5.72453676812967e-02 2.95050617657191e-04
1.95573170731707e+00 5.67652039226930e-02 2.96352051394719e-04
2.00524390243902e+00 5.62890676917868e-02 2.97563753142921e-04
2.05475609756098e+00 5.58169252040625e-02 2.98689255448762e-04
2.10426829268293e+00 5.53487429607595e-02 2.99731902100319e-04
2.15378048780488e+00 5.48844877463353e-02 3.00694864521257e-04
2.20329268292683e+00 5.44241266193840e-02 3.01581153158699e-04
2.25280487804878e+00 5.39676269191312e-02 3.02393629343592e-04
2.30231707317073e+00 5.35149562545681e-02 3.03135015849698e-04
2.35182926829268e+00 5.30660825104321e-02 3.03807906326167e-04
2.40134146341463e+00 5.26209738369064e-02 3.04414774029252e-04
2.45085365853659e+00 5.21795986551373e-02 3.04957979640128e-04
2.50036585365854e+00 5.17419256474499e-02 3.05439778549296e-04
2.54987804878049e+00 5.13079237624468e-02 3.05862327389650e-04
2.59939024390244e+00 5.08775622056976e-02 3.06227690162736e-04
2.64890243902439e+00 5.04508104444571e-02 3.06537843739653e-04
2.69841463414634e+00 5.00276381987918e-02 3.06794683051831e-04
2.74792682926829e+00 4.96080154459511e-02 3.07000025755342e-04
2.79743902439024e+00 4.91919124118969e-02 3.07155616659392e-04
2.84695121951220e+00 4.87792995753594e-02 3.07263131706839e-04
2.89646341463415e+00 4.83701476597398e-02 3.07324181776654e-04
2.94597560975610e+00 4.79644276368765e-02 3.07340316101312e-04
2.99548780487805e+00 4.75621107192952e-02 3.07313025551170e-04
3.04500000000000e+00 4.71631683637097e-02 3.07243745584706e-04
3.09451219512195e+00 4.67675722635950e-02 3.07133859101237e-04
3.14402439024390e+00 4.63752943524443e-02 3.06984699001176e-04
3.19353658536585e+00 4.59863067966435e-02 3.06797550676623e-04
3.24304878048780e+00 4.56005819985041e-02 3.06573654243956e-04
3.29256097560976e+00 4.52180925894196e-02 3.06314206728973e-04
3.34207317073171e+00 4.48388114326911e-02 3.06020364022503e-04
3.39158536585366e+00 4.44627116169486e-02 3.05693242806323e-04
3.44109756097561e+00 4.40897664587846e-02 3.05333922273518e-04
3.49060975609756e+00 4.37199494964247e-02 3.04943445833153e-04
3.54012195121951e+00 4.33532344921830e-02 3.04522822629687e-04
3.58963414634146e+00 4.29895954263677e-02 3.04073029058074e-04
3.63914634146341e+00 4.26290064995711e-02 3.03595010110690e-04
3.68865853658537e+00 4.22714421267962e-02 3.03089680728962e-04
3.73817073170732e+00 4.19168769395941e-02 3.02557927001730e-04
3.78768292682927e+00 4.15652857803992e-02 3.02000607375422e-04
3.83719512195122e+00 4.12166437045240e-02 3.01418553723707e-04
3.88670731707317e+00 4.08709259746920e-02 3.00812572434741e-04
3.93621951219512e+00 4.05281080628996e-02 3.00183445368958e-04
3.98573170731707e+00 4.01881656451367e-02 2.99531930839017e-04
4.03524390243902e+00 3.98510746031248e-02 2.98858764470022e-04
4.08475609756098e+00 3.95168110192148e-02 2.98164660262778e-04
4.13426829268293e+00 3.91853511772102e-02 2.97450310657820e-04
4.18378048780488e+00 3.88566715606388e-02 2.96716388398595e-04
4.23329268292683e+00 3.85307488486836e-02 2.95963546550456e-04
4.28280487804878e+00 3.82075599177021e-02 2.95192419352480e-04
4.33231707317073e+00 3.78870818364771e-02 2.94403622915404e-04
4.38182926829268e+00 3.75692918676347e-02 2.93597755823943e-04
4.43134146341463e+00 3.72541674630479e-02 2.92775399773904e-04
4.48085365853659e+00 3.69416862651600e-02 2.91937120119371e-04
4.53036585365854e+00 3.66318261025335e-02 2.91083466455662e-04
4.57987804878049e+00 3.63245649910849e-02 2.90214973117536e-04
4.62939024390244e+00 3.60198811297723e-02 2.89332159713848e-04
4.67890243902439e+00 3.57177529017475e-02 2.88435531582112e-04
4.72841463414634e+00 3.54181588701758e-02 2.87525580279900e-04
4.77792682926829e+00 3.51210777793104e-02 2.86602784000528e-04
4.82743902439024e+00 3.48264885504388e-02 2.85667608025642e-04
4.87695121951220e+00 3.45343702828839e-02 2.84720505105951e-04
4.92646341463415e+00 3.42447022500722e-02 2.83761915878965e-04
4.97597560975610e+00 3.39574639004657e-02 2.82792269218412e-04
5.02548780487805e+00 3.36726348537464e-02 2.81811982620539e-04
5.07500000000000e+00 3.33901949016836e-02 2.80821462525292e-04
5.12451219512195e+00 3.31101240044299e-02 2.79821104674195e-04
5.17402439024390e+00 3.28324022913275e-02 2.78811294406116e-04
5.22353658536585e+00 3.25570100573113e-02 2.77792406989401e-04
5.27304878048781e+00 3.22839277636578e-02 2.76764807894658e-04
5.32256097560976e+00 3.20131360344908e-02 2.75728853103463e-04
5.37207317073171e+00 3.17446156574769e-02 2.74684889360381e-04
5.42158536585366e+00 3.14783475804290e-02 2.73633254460400e-04
5.47109756097561e+00 3.12143129119517e-02 2.72574277481996e-04
5.52060975609756e+00 3.09524929181392e-02 2.71508279055245e-04
5.57012195121951e+00 3.06928690231731e-02 2.70435571577637e-04
5.61963414634146e+00 3.04354228061119e-02 2.69356459464518e-04
5.66914634146342e+00 3.01801360014429e-02 2.68271239349311e-04
5.71865853658537e+00 2.99269904959596e-02 2.67180200317600e-04
5.76817073170732e+00 2.96759683292720e-02 2.66083624093153e-04
5.81768292682927e+00 2.94270516907677e-02 2.64981785257179e-04
5.86719512195122e+00 2.91802229200823e-02 2.63874951421210e-04
5.91670731707317e+00 2.89354645041424e-02 2.62763383432736e-04
5.96621951219512e+00 2.86927590775975e-02 2.61647335536165e-04
6.01573170731707e+00 2.84520894199421e-02 2.60527055565836e-04
6.06524390243902e+00 2.82134384559120e-02 2.59402785096054e-04
6.11475609756098e+00 2.79767892526817e-02 2.58274759725201e-04
6.16426829268293e+00 2.77421250198488e-02 2.57143208804095e-04
6.21378048780488e+00 2.75094291082227e-02 2.56008356221048e-04
6.26329268292683e+00 2.72786850075072e-02 2.54870420136693e-04
6.31280487804878e+00 2.70498763466348e-02 2.53729613218004e-04
6.36231707317073e+00 2.68229868911247e-02 2.52586142794775e-04
6.41182926829268e+00 2.65980005433869e-02 2.51440210977571e-04
6.46134146341463e+00 2.63749013401477e-02 2.50292014805290e-04
6.51085365853659e+00 2.61536734527263e-02 2.49141746355539e-04
6.56036585365854e+00 2.59343011845255e-02 2.47989592884074e-04
6.60987804878049e+00 2.57167689712818e-02 2.46835736928194e-04
6.65939024390244e+00 2.55010613786193e-02 2.45680356438578e-04
6.70890243902439e+00 2.52871631022747e-02 2.44523624876187e-04
6.75841463414634e+00 2.50750589657129e-02 2.43365711337040e-04
6.80792682926829e+00 2.48647339203276e-02 2.42206780643155e-04
6.85743902439024e+00 2.46561730431167e-02 2.41046993460699e-04
6.90695121951220e+00 2.44493615368607e-02 2.39886506385424e-04
6.95646341463415e+00 2.42442847278548e-02 2.38725472054661e-04
7.00597560975610e+00 2.40409280660668e-02 2.37564039227581e-04
7.05548780487805e+00 2.38392771229248e-02 2.36402352891448e-04
7.10500000000000e+00 2.36393175914545e-02 2.35240554337105e-04
7.15451219512195e+00 2.34410352841217e-02 2.34078781259866e-04
7.20402439024390e+00 2.32444161329500e-02 2.32917167830568e-04
7.25353658536585e+00 2.30494461874159e-02 2.31755844791387e-04
7.30304878048781e+00 2.28561116145488e-02 2.30594939522753e-04
7.35256097560976e+00 2.26643986968761e-02 2.29434576134492e-04
7.40207317073171e+00 2.24742938325075e-02 2.28274875528854e-04
7.45158536585366e+00 2.22857835331282e-02 2.27115955487222e-04
7.50109756097561e+00 2.20988544240676e-02 2.25957930729543e-04
7.55060975609756e+00 2.19134932423406e-02 2.24800912996922e-04
7.60012195121951e+00 2.17296868367008e-02 2.23645011107642e-04
7.64963414634146e+00 2.15474221657284e-02 2.22490331035843e-04
7.69914634146341e+00 2.13666862978690e-02 2.21336975964457e-04
7.74865853658537e+00 2.11874664095665e-02 2.20185046360157e-04
7.79817073170732e+00 2.10097497852888e-02 2.19034640023359e-04
7.84768292682927e+00 2.08335238157038e-02 2.17885852159755e-04
7.89719512195122e+00 2.06587759976930e-02 2.16738775427512e-04
7.94670731707317e+00 2.04854939325699e-02 2.15593500005548e-04
7.99621951219512e+00 2.03136653260810e-02 2.14450113638164e-04
8.04573170731707e+00 2.01432779866661e-02 2.13308701700260e-04
8.09524390243902e+00 1.99743198254481e-02 2.12169347239524e-04
8.14475609756098e+00 1.98067788545330e-02 2.11032131101742e-04
8.19426829268293e+00 1.96406431867874e-02 2.09897131718108e-04
8.24378048780488e+00 1.94759010349859e-02 2.08764425542009e-04
8.29329268292683e+00 1.93125407103699e-02 2.07634086843250e-04
8.34280487804878e+00 1.91505506226201e-02 2.06506187810836e-04
8.39231707317073e+00 1.89899192782445e-02 2.05380798608866e-04
8.44182926829268e+00 1.88306352805411e-02 2.04257987411217e-04
8.49134146341463e+00 1.86726873280220e-02 2.03137820454979e-04
8.54085365853659e+00 1.85160642143683e-02 2.02020362073334e-04
8.59036585365854e+00 1.83607548268888e-02 2.00905674746746e-04
8.63987804878049e+00 1.82067481464670e-02 1.99793819134106e-04
8.68939024390244e+00 1.80540332460546e-02 1.98684854121769e-04
8.73890243902439e+00 1.79025992906103e-02 1.97578836853047e-04
8.78841463414634e+00 1.77524355356275e-02 1.96475822775234e-04
8.83792682926829e+00 1.76035313270652e-02 1.95375865667606e-04
8.88743902439025e+00 1.74558760999088e-02 1.94279017686474e-04
8.93695121951220e+00 1.73094593780941e-02 1.93185329391718e-04
8.98646341463415e+00 1.71642707730999e-02 1.92094849790017e-04
9.03597560975610e+00 1.70202999838658e-02 1.91007626360050e-04
9.08548780487805e+00 1.68775367954157e-02 1.89923705093951e-04
9.13500000000000e+00 1.67359710787693e-02 1.88843130521202e-04
9.18451219512195e+00 1.65955927895965e-02 1.87765945748457e-04
9.23402439024390e+00 1.64563919681227e-02 1.86692192482227e-04
9.28353658536585e+00 1.63183587378128e-02 1.85621911067096e-04
9.33304878048781e+00 1.61814833052716e-02 1.84555140507273e-04
9.38256097560976e+00 1.60457559589556e-02 1.83491918503301e-04
9.43207317073171e+00 1.59111670690695e-02 1.82432281472475e-04
9.48158536585366e+00 1.57777070863057e-02 1.81376264584184e-04
9.53109756097561e+00 1.56453665417357e-02 1.80323901779274e-04
9.58060975609756e+00 1.55141360455770e-02 1.79275225803987e-04
9.63012195121951e+00 1.53840062870810e-02 1.78230268228408e-04
9.67963414634146e+00 1.52549680333257e-02 1.77189059479056e-04
9.72914634146342e+00 1.51270121290996e-02 1.76151628856407e-04
9.77865853658537e+00 1.50001294957206e-02 1.75118004566264e-04
9.82817073170732e+00 1.48743111309163e-02 1.74088213736407e-04
9.87768292682927e+00 1.47495481076680e-02 1.73062282446754e-04
9.92719512195122e+00 1.46258315740874e-02 1.72040235745159e-04
9.97670731707317e+00 1.45031527522853e-02 1.71022097634924e-04
1.00262195121951e+01 1.43815029383657e-02 1.70007891215272e-04
1.00757317073171e+01 1.42608735009551e-02 1.68997638665967e-04
1.01252439024390e+01 1.41412558813222e-02 1.67991361053544e-04
1.01747560975610e+01 1.40226415925244e-02 1.66989078608821e-04
1.02242682926829e+01 1.39050222188058e-02 1.65990810660371e-04
1.02737804878049e+01 1.37883894150007e-02 1.64996575654110e-04
1.03232926829268e+01 1.36727349059411e-02 1.64006391172768e-04
1.03728048780488e+01 1.35580504858696e-02 1.63020273954490e-04
1.04223170731707e+01 1.34443280178571e-02 1.62038239911237e-04
1.04718292682927e+01 1.33315594332256e-02 1.61060304146781e-04
1.05213414634146e+01 1.32197367309758e-02 1.60086480974332e-04
1.05708536585366e+01 1.31088519772190e-02 1.59116783933832e-04
1.06203658536585e+01 1.29988973046147e-02 1.58151225808834e-04
1.06698780487805e+01 1.28898649118122e-02 1.57189818284497e-04
1.07193902439024e+01 1.27817470638997e-02 1.56232573046380e-04
1.07689024390244e+01 1.26745360888264e-02 1.55279501071669e-04
1.08184146341463e+01 1.25682243799088e-02 1.54330611909152e-04
1.08679268292683e+01 1.24628043942669e-02 1.53385914802483e-04
1.09174390243902e+01 1.23582686522889e-02 1.52445418333453e-04
1.09669512195122e+01 1.22546097371005e-02 1.51509130436642e-04
1.10164634146341e+01 1.21518202940391e-02 1.50577058413787e-04
1.10659756097561e+01 1.20498930301313e-02 1.49649208947845e-04
1.11154878048780e+01 1.19488207135759e-02 1.48725588116781e-04
1.11650000000000e+01 1.18485961732309e-02 1.47806201407124e-04
1.12145121951220e+01 1.17492122981041e-02 1.46891053727162e-04
1.12640243902439e+01 1.16506620368492e-02 1.45980149419801e-04
1.13135365853659e+01 1.15529383972653e-02 1.45073492275401e-04
1.13630487804878e+01 1.14560344458009e-02 1.44171085544294e-04
1.14125609756098e+01 1.13599433070618e-02 1.43272931948931e-04
1.14620731707317e+01 1.12646581633233e-02 1.42379033695853e-04
1.15115853658537e+01 1.11701722540466e-02 1.41489392487432e-04
1.15610975609756e+01 1.10764788753990e-02 1.40604009533373e-04
1.16106097560976e+01 1.09835713797782e-02 1.39722885561993e-04
1.16601219512195e+01 1.08914431753410e-02 1.38846020541435e-04
1.17096341463415e+01 1.08000877263104e-02 1.37973414565382e-04
1.17591463414634e+01 1.07094985501704e-02 1.37105067278129e-04
1.18086585365854e+01 1.06196692195641e-02 1.36240977290419e-04
1.18581707317073e+01 1.05305933610459e-02 1.35381143085067e-04
1.19076829268293e+01 1.04422646546296e-02 1.34525562726623e-04
1.19571951219512e+01 1.03546768333399e-02 1.33674233871170e-04
1.20067073170732e+01 1.02678236827677e-02 1.32827153775942e-04
1.20562195121951e+01 1.01816990406291e-02 1.31984319308754e-04
1.21057317073171e+01 1.00962967963285e-02 1.31145726957241e-04
1.21552439024390e+01 1.00116108905248e-02 1.30311372837930e-04
1.22047560975610e+01 9.92763531470141e-03 1.29481252705192e-04
1.22542682926829e+01 9.84436411073998e-03 1.28655361959794e-04
1.23037804878049e+01 9.76179137049794e-03 1.27833695657452e-04
1.23532926829268e+01 9.67991123538912e-03 1.27016248517337e-04
1.24028048780488e+01 9.59871789596812e-03 1.26203014930235e-04
1.24523170731707e+01 9.51820559151807e-03 1.25393988966602e-04
1.25018292682927e+01 9.43836860964195e-03 1.24589164384427e-04
1.25513414634146e+01 9.35920128585726e-03 1.23788534636989e-04
1.26008536585366e+01 9.28069800319415e-03 1.22992092880453e-04
1.26503658536585e+01 9.20285319179687e-03 1.22199831981295e-04
1.26998780487805e+01 9.12566132852858e-03 1.21411744290868e-04
1.27493902439024e+01 9.04911693717605e-03 1.20627822355077e-04
1.27989024390244e+01 8.97321458625933e-03 1.19848058451244e-04
1.28484146341463e+01 8.89794889046047e-03 1.19072444117542e-04
1.28979268292683e+01 8.82331450963258e-03 1.18300970878711e-04
1.29474390243902e+01 8.74930614842091e-03 1.17533630011510e-04
1.29969512195122e+01 8.67591855588722e-03 1.16770412551217e-04
1.30464634146341e+01 8.60314652513713e-03 1.16011309297975e-04
1.30959756097561e+01 8.53098489295077e-03 1.15256310823044e-04
1.31454878048780e+01 8.45942853941637e-03 1.14505407474913e-04
1.31950000000000e+01 8.38847238756706e-03 1.13758589385317e-04
1.32445121951220e+01 8.31811140302055e-03 1.13015846475093e-04
1.32940243902439e+01 8.24834059362205e-03 1.12277168459885e-04
1.33435365853659e+01 8.17915500909010e-03 1.11542544855868e-04
1.33930487804878e+01 8.11054974066528e-03 1.10811964985300e-04
1.34425609756098e+01 8.04251992076196e-03 1.10085417981943e-04
1.34920731707317e+01 7.97506072262293e-03 1.09362892796399e-04
1.35415853658537e+01 7.90816735997691e-03 1.08644378201321e-04
1.35910975609756e+01 7.84183508669900e-03 1.07929862796551e-04
1.36406097560976e+01 7.77605919647392e-03 1.07219335014132e-04
1.36901219512195e+01 7.71083502246210e-03 1.06512782933850e-04
1.37396341463415e+01 7.64615793743613e-03 1.05810194859721e-04
1.37891463414634e+01 7.58202335204032e-03 1.05111558942179e-04
1.38386585365854e+01 7.51842671588677e-03 1.04416862794208e-04
1.38881707317073e+01 7.45536351675539e-03 1.03726094080902e-04
1.39376829268293e+01 7.39282928027376e-03 1.03039240327715e-04
1.39871951219512e+01 7.33081956959969e-03 1.02356288924842e-04
1.40367073170732e+01 7.26932998510638e-03 1.01677227131511e-04
1.40862195121951e+01 7.20835616407033e-03 1.01002042080187e-04
1.41357317073171e+01 7.14789378036172e-03 1.00330720780701e-04
1.41852439024390e+01 7.08793854413754e-03 9.96632501242861e-05
1.42347560975610e+01 7.02848620153719e-03 9.89996168875911e-05
1.42842682926829e+01 6.96953253438056e-03 9.83398077364729e-05
1.43337804878049e+01 6.91107335986898e-03 9.76838092298147e-05
1.43832926829268e+01 6.85310453028831e-03 9.70316078233429e-05
1.44328048780488e+01 6.79562193271470e-03 9.63831898732425e-05
1.44823170731707e+01 6.73862148872271e-03 9.57385416397489e-05
1.45318292682927e+01 6.68209915409603e-03 9.50976492906593e-05
1.45813414634146e+01 6.62605091854048e-03 9.44604989047914e-05
1.46308536585366e+01 6.57047280539946e-03 9.38270764753473e-05
1.46803658536585e+01 6.51536087137189e-03 9.31973679132358e-05
1.47298780487805e+01 6.46071120623232e-03 9.25713588973075e-05
1.47793902439024e+01 6.40651993291781e-03 9.19490353393507e-05
1.48289024390244e+01 6.35278320615289e-03 9.13303830782003e-05
1.48784146341463e+01 6.29949721328401e-03 9.07153875688937e-05
1.49279268292683e+01 6.24665817363744e-03 9.01040343582632e-05
1.49774390243902e+01 6.19426233825105e-03 8.94963089293774e-05
1.50269512195122e+01 6.14230598960835e-03 8.88921967044125e-05
1.50764634146341e+01 6.09078544137465e-03 8.82916830474682e-05
1.51259756097561e+01 6.03969703813557e-03 8.76947532673201e-05
1.51754878048780e+01 5.98903715513771e-03 8.71013926201333e-05
1.52250000000000e+01 5.93880219803138e-03 8.65115863121216e-05
1.52745121951220e+01 5.88898860261565e-03 8.59253195021296e-05
1.53240243902439e+01 5.83959283458542e-03 8.53425773041502e-05
1.53735365853659e+01 5.79061138928075e-03 8.47633447898316e-05
1.54230487804878e+01 5.74204079143814e-03 8.41876069909443e-05
1.54725609756098e+01 5.69387759494397e-03 8.36153489017584e-05
1.55220731707317e+01 5.64611838258997e-03 8.30465554813762e-05
1.55715853658537e+01 5.59875976583081e-03 8.24812116560217e-05
1.56210975609756e+01 5.55179838454365e-03 8.19193023212940e-05
