Energy (eV)          EEDF (eV^-(3/2))     First Anisotropy
5.54464285714286e-04 1.47609002731996e+01 6.86007497034177e-03
1.66339285714286e-03 1.46701143117114e+01 1.13311910005811e-02
2.77232142857143e-03 1.45798867234263e+01 1.49670880142317e-02
3.88125000000000e-03 1.44902140740908e+01 1.77345685356678e-02
4.99017857142857e-03 1.44010929504105e+01 2.00470410896472e-02
6.09910714285714e-03 1.43125199604774e+01 2.20606442054527e-02
7.20803571428571e-03 1.42244917330127e+01 2.38560983804540e-02
8.31696428571429e-03 1.41370049174808e+01 2.54821004191870e-02
9.42589285714286e-03 1.40500561839552e+01 2.69709154905808e-02
1.05348214285714e-02 1.39636422229949e+01 2.83453258771862e-02
1.16437500000000e-02 1.38777597455756e+01 2.96221799562912e-02
1.27526785714286e-02 1.37924054825943e+01 3.08143854535523e-02
1.38616071428571e-02 1.37075761853246e+01 3.19321107094830e-02
1.49705357142857e-02 1.36232686255399e+01 3.29835494745742e-02
1.60794642857143e-02 1.35394795938087e+01 3.39754291957598e-02
1.71883928571429e-02 1.34562059009644e+01 3.49133612196151e-02
1.82973214285714e-02 1.33734443778684e+01 3.58020897457986e-02
1.94062500000000e-02 1.32911918740504e+01 3.66456728337232e-02
2.05151785714286e-02 1.32094452588291e+01 3.74476171309271e-02
2.16241071428571e-02 1.31282014207778e+01 3.82109801977864e-02
2.27330357142857e-02 1.30474572679254e+01 3.89384494272284e-02
2.38419642857143e-02 1.29672097266722e+01 3.96324037071941e-02
2.49508928571429e-02 1.28874557426439e+01 4.02949622832606e-02
2.60598214285714e-02 1.28081922805238e+01 4.09280242276993e-02
2.71687500000000e-02 1.27294163231211e+01 4.15333002188394e-02
2.82776785714286e-02 1.26511248720739e+01 4.21123385847834e-02
2.93866071428571e-02 1.25733149474619e+01 4.26665469314566e-02
3.04955357142857e-02 1.24959835879168e+01 4.31972101582529e-02
3.16044642857143e-02 1.24191278498310e+01 4.37055054844458e-02
3.27133928571429e-02 1.23427448079273e+01 4.41925151145921e-02
3.38223214285714e-02 1.22668315551188e+01 4.46592372241572e-02
3.49312500000000e-02 1.21913852018019e+01 4.51065951550206e-02
3.60401785714286e-02 1.21164028763442e+01 4.55354453401755e-02
3.71491071428571e-02 1.20418817247752e+01 4.59465842471649e-02
3.82580357142857e-02 1.19678189108477e+01 4.63407544083019e-02
3.93669642857143e-02 1.18942116154156e+01 4.67186496021190e-02
4.04758928571429e-02 1.18210570368432e+01 4.70809193675576e-02
4.15848214285714e-02 1.17483523908796e+01 4.74281731612559e-02
4.26937500000000e-02 1.16760949100911e+01 4.77609838522702e-02
4.38026785714286e-02 1.16042818442193e+01 4.80798908337489e-02
4.49116071428571e-02 1.15329104599206e+01 4.83854028700851e-02
4.60205357142857e-02 1.14619780407980e+01 4.86780006348069e-02
4.71294642857143e-02 1.13914818868898e+01 4.89581389102399e-02
4.82383928571429e-02 1.13214193149759e+01 4.92262485388307e-02
4.93473214285714e-02 1.12517876584626e+01 4.94827383421387e-02
5.04562500000000e-02 1.11825842669101e+01 4.97279966953802e-02
5.15651785714286e-02 1.11138065063040e+01 4.99623929648554e-02
5.26741071428571e-02 1.10454517588298e+01 5.01862788818937e-02
5.37830357142857e-02 1.09775174228841e+01 5.03999897891597e-02
5.48919642857143e-02 1.09100009126431e+01 5.06038457120148e-02
5.60008928571429e-02 1.08428996582975e+01 5.07981523165392e-02
5.71098214285714e-02 1.07762111059451e+01 5.09832019307654e-02
5.82187500000000e-02 1.07099327171880e+01 5.11592743398390e-02
5.93276785714286e-02 1.06440619693425e+01 5.13266375282509e-02
6.04366071428571e-02 1.05785963552405e+01 5.14855484255937e-02
6.15455357142857e-02 1.05135333832262e+01 5.16362535913194e-02
6.26544642857143e-02 1.04488705767834e+01 5.17789897892710e-02
6.37633928571429e-02 1.03846054747204e+01 5.19139845012733e-02
6.48723214285714e-02 1.03207356310682e+01 5.20414565329874e-02
6.59812500000000e-02 1.02572586147304e+01 5.21616164486390e-02
6.70901785714286e-02 1.01941720096487e+01 5.22746669860402e-02
6.81991071428572e-02 1.01314734146248e+01 5.23808034994354e-02
6.93080357142857e-02 1.00691604433068e+01 5.24802143696025e-02
7.04169642857143e-02 1.00072307238630e+01 5.25730813342184e-02
7.15258928571429e-02 9.94568189912801e+00 5.26595797807116e-02
7.26348214285714e-02 9.88451162650705e+00 5.27398791380277e-02
7.37437500000000e-02 9.82371757766709e+00 5.28141431279029e-02
7.48526785714286e-02 9.76329743866876e+00 5.28825300108432e-02
7.59616071428571e-02 9.70324890980441e+00 5.29451928685582e-02
7.70705357142857e-02 9.64356970557764e+00 5.30022798670623e-02
7.81794642857143e-02 9.58425755441412e+00 5.30539344566611e-02
7.92883928571429e-02 9.52531019877808e+00 5.31002955461693e-02
8.03973214285714e-02 9.46672539508174e+00 5.31414977745385e-02
8.15062500000000e-02 9.40850091340995e+00 5.31776716616550e-02
8.26151785714286e-02 9.35063453762595e+00 5.32089437604941e-02
8.37241071428571e-02 9.29312406522316e+00 5.32354368480851e-02
8.48330357142857e-02 9.23596730729967e+00 5.32572701040988e-02
8.59419642857143e-02 9.17916208829916e+00 5.32745592365435e-02
8.70508928571429e-02 9.12270624610456e+00 5.32874165882349e-02
8.81598214285714e-02 9.06659763195178e+00 5.32959513361124e-02
8.92687500000000e-02 9.01083411018234e+00 5.33002695837935e-02
9.03776785714286e-02 8.95541355832831e+00 5.33004744586313e-02
9.14866071428571e-02 8.90033386697584e+00 5.32966662472549e-02
9.25955357142857e-02 8.84559293973600e+00 5.32889425226410e-02
9.37044642857143e-02 8.79118869301092e+00 5.32773982252642e-02
9.48133928571429e-02 8.73711905606917e+00 5.32621257289622e-02
9.59223214285714e-02 8.68338197096358e+00 5.32432149940802e-02
9.70312500000000e-02 8.62997539230733e+00 5.32207536247287e-02
9.81401785714286e-02 8.57689728734227e+00 5.31948269319933e-02
9.92491071428571e-02 8.52414563581256e+00 5.31655180341465e-02
1.00358035714286e-01 8.47171842993295e+00 5.31329079507198e-02
1.01466964285714e-01 8.41961367417633e+00 5.30970756927921e-02
1.02575892857143e-01 8.36782938515961e+00 5.30580981463894e-02
1.03684821428571e-01 8.31636359230761e+00 5.30160504430557e-02
1.04793750000000e-01 8.26521433630174e+00 5.29710058162999e-02
1.05902678571429e-01 8.21437967072098e+00 5.29230357047567e-02
1.07011607142857e-01 8.16385766028484e+00 5.28722098245001e-02
1.08120535714286e-01 8.11364638243093e+00 5.28185962096973e-02
1.09229464285714e-01 8.06374392562142e+00 5.27622613641632e-02
1.10338392857143e-01 8.01414839047538e+00 5.27032699592651e-02
1.11447321428571e-01 7.96485788967783e+00 5.26416854016056e-02
1.12556250000000e-01 7.91587054675317e+00 5.25775695397006e-02
1.13665178571429e-01 7.86718449752147e+00 5.25109827835549e-02
1.14774107142857e-01 7.81879788852747e+00 5.24419841608356e-02
1.15883035714286e-01 7.77070887844309e+00 5.23706313448654e-02
1.16991964285714e-01 7.72291563655058e+00 5.22969807852989e-02
1.18100892857143e-01 7.67541634374938e+00 5.22210874199097e-02
1.19209821428571e-01 7.62820919247058e+00 5.21430051915032e-02
1.20318750000000e-01 7.58129238557522e+00 5.20627867685275e-02
1.21427678571429e-01 7.53466413765297e+00 5.19804836484087e-02
1.22536607142857e-01 7.48832267361085e+00 5.18961462022608e-02
1.23645535714286e-01 7.44226622992584e+00 5.18098236942675e-02
1.24754464285714e-01 7.39649305328013e+00 5.17215643962412e-02
1.25863392857143e-01 7.35100140146041e+00 5.16314153143695e-02
1.26972321428571e-01 7.30578954327715e+00 5.15394226627405e-02
1.28081250000000e-01 7.26085575757089e+00 5.14456315986699e-02
1.29190178571429e-01 7.21619833437528e+00 5.13500863134600e-02
1.30299107142857e-01 7.17181557364387e+00 5.12528300687186e-02
1.31408035714286e-01 7.12770578637359e+00 5.11539052097646e-02
1.32516964285714e-01 7.08386729337177e+00 5.10533532673810e-02
1.33625892857143e-01 7.04029842606260e+00 5.09512146996614e-02
1.34734821428571e-01 6.99699752641086e+00 5.08475293278702e-02
1.35843750000000e-01 6.95396294602203e+00 5.07423360865282e-02
1.36952678571429e-01 6.91119304718795e+00 5.06356731041111e-02
1.38061607142857e-01 6.86868620173386e+00 5.05275777331064e-02
1.39170535714286e-01 6.82644079202964e+00 5.04180865591855e-02
1.40279464285714e-01 6.78445520987209e+00 5.03072354925163e-02
1.41388392857143e-01 6.74272785721049e+00 5.01950595244188e-02
1.42497321428571e-01 6.70125714607451e+00 5.00815931300432e-02
1.43606250000000e-01 6.66004149775653e+00 4.99668700328507e-02
1.44715178571429e-01 6.61907934375485e+00 4.98509232770953e-02
1.45824107142857e-01 6.57836912472628e+00 4.97337852530823e-02
1.46933035714286e-01 6.53790929139922e+00 4.96154877033091e-02
1.48041964285714e-01 6.49769830355720e+00 4.94960618050666e-02
1.49150892857143e-01 6.45773463069376e+00 4.93755379413590e-02
1.50259821428571e-01 6.41801675194418e+00 4.92539460740565e-02
1.51368750000000e-01 6.37854315534022e+00 4.91313155221784e-02
1.52477678571429e-01 6.33931233866352e+00 4.90076750275237e-02
1.53586607142857e-01 6.30032280849118e+00 4.88830527761697e-02
1.54695535714286e-01 6.26157308102274e+00 4.87574764024330e-02
1.55804464285714e-01 6.22306168115303e+00 4.86309730640927e-02
1.56913392857143e-01 6.18478714306503e+00 4.85035692268490e-02
1.58022321428571e-01 6.14674801016502e+00 4.83752910110063e-02
1.59131250000000e-01 6.10894283440157e+00 4.82461639828636e-02
1.60240178571429e-01 6.07137017703973e+00 4.81162132145193e-02
1.61349107142857e-01 6.03402860778904e+00 4.79854633024068e-02
1.62458035714286e-01 5.99691670555448e+00 4.78539383696364e-02
1.63566964285714e-01 5.96003305758862e+00 4.77216621348707e-02
1.64675892857143e-01 5.92337626002965e+00 4.75886577095971e-02
1.65784821428571e-01 5.88694491783984e+00 4.74549479208834e-02
1.66893750000000e-01 5.85073764418155e+00 4.73205551151532e-02
1.68002678571429e-01 5.81475306112140e+00 4.71855012129694e-02
1.69111607142857e-01 5.77898979883161e+00 4.70498077251606e-02
1.70220535714286e-01 5.74344649627353e+00 4.69134957539994e-02
1.71329464285714e-01 5.70812180042056e+00 4.67765860565375e-02
1.72438392857143e-01 5.67301436674749e+00 4.66390988539186e-02
1.73547321428571e-01 5.63812285917197e+00 4.65010541324141e-02
1.74656250000000e-01 5.60344594948169e+00 4.63624714588427e-02
1.75765178571429e-01 5.56898231797607e+00 4.62233700309682e-02
1.76874107142857e-01 5.53473065273336e+00 4.60837686916737e-02
1.77983035714286e-01 5.50068965023398e+00 4.59436859292621e-02
1.79091964285714e-01 5.46685801464686e+00 4.58031399359067e-02
1.80200892857143e-01 5.43323445827541e+00 4.56621484282913e-02
1.81309821428571e-01 5.39981770150191e+00 4.55207289287987e-02
1.82418750000000e-01 5.36660647226042e+00 4.53788985918685e-02
1.83527678571429e-01 5.33359950662286e+00 4.52366742505435e-02
1.84636607142857e-01 5.30079554812501e+00 4.50940724289902e-02
1.85745535714286e-01 5.26819334833616e+00 4.49511093421741e-02
1.86854464285714e-01 5.23579166620238e+00 4.48078009499780e-02
1.87963392857143e-01 5.20358926845378e+00 4.46641627884198e-02
1.89072321428571e-01 5.17158492955155e+00 4.45202102327043e-02
1.90181250000000e-01 5.13977743120213e+00 4.43759583338059e-02
1.91290178571429e-01 5.10816556289346e+00 4.42314218615703e-02
1.92399107142857e-01 5.07674812127403e+00 4.40866153158889e-02
1.93508035714286e-01 5.04552391067434e+00 4.39415529258926e-02
1.94616964285714e-01 5.01449174250160e+00 4.37962487001800e-02
1.95725892857143e-01 4.98365043561218e+00 4.36507162679752e-02
1.96834821428571e-01 4.95299881626117e+00 4.35049691254703e-02
1.97943750000000e-01 4.92253571765389e+00 4.33590204819932e-02
1.99052678571429e-01 4.89225998043728e+00 4.32128833000456e-02
2.00161607142857e-01 4.86217045212692e+00 4.30665703053089e-02
2.01270535714286e-01 4.83226598758522e+00 4.29200939854975e-02
2.02379464285714e-01 4.80254544846243e+00 4.27734666370859e-02
2.03488392857143e-01 4.77300770353800e+00 4.26267002157484e-02
2.04597321428571e-01 4.74365162867242e+00 4.24798065673191e-02
2.05706250000000e-01 4.71447610639254e+00 4.23327972829355e-02
2.06815178571429e-01 4.68548002634263e+00 4.21856837362942e-02
2.07924107142857e-01 4.65666228475475e+00 4.20384770926662e-02
2.09033035714286e-01 4.62802178488795e+00 4.18911883075093e-02
2.10141964285714e-01 4.59955743651138e+00 4.17438281700184e-02
2.11250892857143e-01 4.57126815621745e+00 4.15964071622479e-02
2.12359821428571e-01 4.54315286737600e+00 4.14489356758632e-02
2.13468750000000e-01 4.51521049975017e+00 4.13014238756846e-02
2.14577678571429e-01 4.48743998991113e+00 4.11538817344223e-02
2.15686607142857e-01 4.45984028074780e+00 4.10063190408322e-02
2.16795535714286e-01 4.43241032187085e+00 4.08587453981590e-02
2.17904464285714e-01 4.40514906913396e+00 4.07111702647919e-02
2.19013392857143e-01 4.37805548492165e+00 4.05636028215272e-02
2.20122321428571e-01 4.35112853810547e+00 4.04160521751573e-02
2.21231250000000e-01 4.32436720368788e+00 4.02685272298615e-02
2.22340178571429e-01 4.29777046318397e+00 4.01210367196597e-02
2.23449107142857e-01 4.27133730416703e+00 3.99735892158228e-02
2.24558035714286e-01 4.24506672064065e+00 3.98261931251951e-02
2.25666964285714e-01 4.21895771259478e+00 3.96788567282100e-02
2.26775892857143e-01 4.19300928627052e+00 3.95315880537636e-02
2.27884821428571e-01 4.16722045411840e+00 3.93843950705920e-02
2.28993750000000e-01 4.14159023446766e+00 3.92372855660262e-02
2.30102678571429e-01 4.11611765187805e+00 3.90902671763473e-02
2.31211607142857e-01 4.09080173671819e+00 3.89433473935381e-02
2.32320535714286e-01 4.06564152550862e+00 3.87965335635384e-02
2.33429464285714e-01 4.04063606050968e+00 3.86498329218359e-02
2.34538392857143e-01 4.01578438996542e+00 3.85032524754676e-02
2.35647321428571e-01 3.99108556806373e+00 3.83567991830454e-02
2.36756250000000e-01 3.96653865462898e+00 3.82104798404068e-02
2.37865178571429e-01 3.94214271544660e+00 3.80643011090499e-02
2.38974107142857e-01 3.91789682187137e+00 3.79182695223077e-02
2.40083035714286e-01 3.89380005114405e+00 3.77723914835622e-02
2.41191964285714e-01 3.86985148600842e+00 3.76266732995961e-02
2.42300892857143e-01 3.84605021493613e+00 3.74811210692823e-02
2.43409821428571e-01 3.82239533208869e+00 3.73357408530513e-02
2.44518750000000e-01 3.79888593703139e+00 3.71905385649942e-02
2.45627678571429e-01 3.77552113503319e+00 3.70455199995279e-02
2.46736607142857e-01 3.75230003670236e+00 3.69006908370610e-02
2.47845535714286e-01 3.72922175827907e+00 3.67560566421897e-02
2.48954464285714e-01 3.70628542127915e+00 3.66116228949888e-02
2.50063392857143e-01 3.68349015270156e+00 3.64673948859642e-02
2.51172321428571e-01 3.66083508499213e+00 3.63233778756821e-02
2.52281250000000e-01 3.63831935577713e+00 3.61795769929239e-02
2.53390178571429e-01 3.61594210814042e+00 3.60359972597141e-02
2.54499107142857e-01 3.59370249028441e+00 3.58926435965348e-02
2.55608035714286e-01 3.57159965580058e+00 3.57495208205169e-02
2.56716964285714e-01 3.54963276333773e+00 3.56066336748415e-02
2.57825892857143e-01 3.52780097679373e+00 3.54639867295556e-02
2.58934821428571e-01 3.50610346528087e+00 3.53215845320055e-02
2.60043750000000e-01 3.48453940287736e+00 3.51794315106928e-02
2.61152678571429e-01 3.46310796888395e+00 3.50375319987798e-02
2.62261607142857e-01 3.44180834750794e+00 3.48958902388909e-02
2.63370535714286e-01 3.42063972811362e+00 3.47545103813323e-02
2.64479464285714e-01 3.39960130491309e+00 3.46133965117184e-02
2.65588392857143e-01 3.37869227714351e+00 3.44725525573024e-02
2.66697321428571e-01 3.35791184903405e+00 3.43319824288324e-02
2.67806250000000e-01 3.33725922957398e+00 3.41916899297290e-02
2.68915178571429e-01 3.31673363275038e+00 3.40516787781951e-02
2.70024107142857e-01 3.29633427725340e+00 3.39119526116551e-02
2.71133035714286e-01 3.27606038670836e+00 3.37725149849909e-02
2.72241964285714e-01 3.25591118938729e+00 3.36333693965326e-02
2.73350892857143e-01 3.23588591837298e+00 3.34945191995695e-02
2.74459821428571e-01 3.21598381152741e+00 3.33559677361741e-02
2.75568750000000e-01 3.19620411127513e+00 3.32177182513921e-02
2.76677678571429e-01 3.17654606482365e+00 3.30797739140435e-02
2.77786607142857e-01 3.15700892388830e+00 3.29421378208269e-02
2.78895535714286e-01 3.13759194490753e+00 3.28048129945991e-02
2.80004464285714e-01 3.11829438877351e+00 3.26678024088413e-02
2.81113392857143e-01 3.09911552098412e+00 3.25311089040304e-02
2.82222321428571e-01 3.08005461161276e+00 3.23947353139410e-02
2.83331250000000e-01 3.06111093510591e+00 3.22586843845492e-02
2.84440178571429e-01 3.04228377048753e+00 3.21229587936174e-02
2.85549107142857e-01 3.02357240110214e+00 3.19875611544964e-02
2.86658035714286e-01 3.00497611481454e+00 3.18524940144537e-02
2.87766964285714e-01 2.98649420375815e+00 3.17177598777093e-02
2.88875892857143e-01 2.96812596447585e+00 3.15833611263803e-02
2.89984821428571e-01 2.94987069789116e+00 3.14493001397466e-02
2.91093750000000e-01 2.93172770911884e+00 3.13155792175710e-02
2.92202678571429e-01 2.91369630765471e+00 3.11822005985514e-02
2.93311607142857e-01 2.89577580713545e+00 3.10491664638581e-02
2.94420535714286e-01 2.87796552552408e+00 3.09164789355043e-02
2.95529464285714e-01 2.86026478487464e+00 3.07841400980569e-02
2.96638392857143e-01 2.84267291146284e+00 3.06521519238768e-02
2.97747321428571e-01 2.82518923575855e+00 3.05205163857782e-02
2.98856250000000e-01 2.80781309224841e+00 3.03892353845147e-02
2.99965178571429e-01 2.79054381961229e+00 3.02583107661787e-02
3.01074107142857e-01 2.77338076049853e+00 3.01277443254743e-02
3.02183035714286e-01 2.75632326169634e+00 2.99975378041490e-02
3.03291964285714e-01 2.73937067391563e+00 2.98676929114684e-02
3.04400892857143e-01 2.72252235190824e+00 2.97382112534927e-02
3.05509821428571e-01 2.70577765444164e+00 2.96090944395453e-02
3.06618750000000e-01 2.68913594413281e+00 2.94803440136051e-02
3.07727678571429e-01 2.67259658761227e+00 2.93519614707191e-02
3.08836607142857e-01 2.65615895531365e+00 2.92239482600600e-02
3.09945535714286e-01 2.63982242163412e+00 2.90963057833985e-02
3.11054464285714e-01 2.62358636472813e+00 2.89690354144189e-02
3.12163392857143e-01 2.60745016662004e+00 2.88421384318101e-02
3.13272321428571e-01 2.59141321317900e+00 2.87156161199040e-02
3.14381250000000e-01 2.57547489396325e+00 2.85894697037575e-02
3.15490178571429e-01 2.55963460237266e+00 2.84637003646422e-02
3.16599107142857e-01 2.54389173545170e+00 2.83383092428918e-02
3.17708035714286e-01 2.52824569403865e+00 2.82132974364298e-02
3.18816964285714e-01 2.51269588257241e+00 2.80886660189995e-02
3.19925892857143e-01 2.49724170919718e+00 2.79644159768364e-02
3.21034821428571e-01 2.48188258573839e+00 2.78405483038371e-02
3.22143750000000e-01 2.46661792755667e+00 2.77170639401143e-02
3.23252678571429e-01 2.45144715368993e+00 2.75939637866196e-02
3.24361607142857e-01 2.43636968666859e+00 2.74712487078008e-02
3.25470535714286e-01 2.42138495265459e+00 2.73489195301807e-02
3.26579464285714e-01 2.40649238126023e+00 2.72269770595742e-02
3.27688392857143e-01 2.39169140564551e+00 2.71054220211346e-02
3.28797321428571e-01 2.37698146249517e+00 2.69842551493801e-02
3.29906250000000e-01 2.36236199188156e+00 2.68634771300167e-02
3.31015178571429e-01 2.34783243739707e+00 2.67430886137514e-02
3.32124107142857e-01 2.33339224598080e+00 2.66230902187736e-02
3.33233035714286e-01 2.31904086804806e+00 2.65034825293843e-02
3.34341964285714e-01 2.30477775732046e+00 2.63842661122690e-02
3.35450892857143e-01 2.29060237091650e+00 2.62654414597165e-02
3.36559821428571e-01 2.27651416932955e+00 2.61470090748060e-02
3.37668750000000e-01 2.26251261629915e+00 2.60289694163168e-02
3.38777678571429e-01 2.24859717893439e+00 2.59113229117769e-02
3.39886607142857e-01 2.23476732755129e+00 2.57940699597883e-02
3.40995535714286e-01 2.22102253579351e+00 2.56772109287062e-02
3.42104464285714e-01 2.20736228047288e+00 2.55607461720087e-02
3.43213392857143e-01 2.19378604165373e+00 2.54446759745283e-02
3.44322321428571e-01 2.18029330263184e+00 2.53290006330806e-02
3.45431250000000e-01 2.16688354981352e+00 2.52137204042706e-02
3.46540178571429e-01 2.15355627283065e+00 2.50988355168360e-02
3.47649107142857e-01 2.14031096438805e+00 2.49843461738188e-02
3.48758035714286e-01 2.12714712037600e+00 2.48702525512986e-02
3.49866964285714e-01 2.11406423972054e+00 2.47565548129247e-02
