Energy (eV)          EEDF (eV^-(3/2))     First Anisotropy
3.62000000000000e-02 3.65668006885716e-01 4.25981385938474e-04
1.08600000000000e-01 3.53245005781160e-01 6.93800027217218e-04
1.81000000000000e-01 3.41244056793643e-01 8.90767737380347e-04
2.53400000000000e-01 3.29650821359730e-01 1.02592640392789e-03
3.25800000000000e-01 3.18451448046343e-01 1.12723450631550e-03
3.98200000000000e-01 3.07632556001272e-01 1.20573147644999e-03
4.70600000000000e-01 2.97181218965924e-01 1.26736071045520e-03
5.43000000000000e-01 2.87084949831211e-01 1.31584416559653e-03
6.15400000000000e-01 2.77331685718131e-01 1.35373400597926e-03
6.87800000000000e-01 2.67909773565213e-01 1.38288962613714e-03
7.60200000000000e-01 2.58807956205601e-01 1.40472559070787e-03
8.32600000000000e-01 2.50015358917155e-01 1.42035335931581e-03
9.05000000000000e-01 2.41521476429483e-01 1.43066822801860e-03
9.77400000000000e-01 2.33316160372397e-01 1.43640566827381e-03
1.04980000000000e+00 2.25389607150782e-01 1.43817947321448e-03
1.12220000000000e+00 2.17732346231401e-01 1.43650853311510e-03
1.19460000000000e+00 2.10335228827635e-01 1.43183620434112e-03
1.26700000000000e+00 2.03189416968646e-01 1.42454468375970e-03
1.33940000000000e+00 1.96286372939890e-01 1.41496591400033e-03
1.41180000000000e+00 1.89617849082381e-01 1.40339001669397e-03
1.48420000000000e+00 1.83175877938501e-01 1.39007192443851e-03
1.55660000000000e+00 1.76952762732601e-01 1.37523667413914e-03
1.62900000000000e+00 1.70941068174997e-01 1.35908368797841e-03
1.70140000000000e+00 1.65133611578394e-01 1.34179027666659e-03
1.77380000000000e+00 1.59523454276111e-01 1.32351453674733e-03
1.84620000000000e+00 1.54103893331866e-01 1.30439776972660e-03
1.91860000000000e+00 1.48868453531196e-01 1.28456651944444e-03
1.99100000000000e+00 1.43810879644967e-01 1.26413430141738e-03
2.06340000000000e+00 1.38925128955715e-01 1.24320308121317e-03
2.13580000000000e+00 1.34205364037890e-01 1.22186454651314e-03
2.20820000000000e+00 1.29645945783386e-01 1.20020120816876e-03
2.28060000000000e+00 1.25241426664014e-01 1.17828735843279e-03
2.35300000000000e+00 1.20986544222871e-01 1.15618990905691e-03
2.42540000000000e+00 1.16876214786833e-01 1.13396912767831e-03
2.49780000000000e+00 1.12905527392655e-01 1.11167928756618e-03
2.57020000000000e+00 1.09069737919418e-01 1.08936924314637e-03
2.64260000000000e+00 1.05364263420326e-01 1.06708294160492e-03
2.71500000000000e+00 1.01784676647063e-01 1.04485987916900e-03
2.78740000000000e+00 9.83267007601801e-02 1.02273550928552e-03
2.85980000000000e+00 9.49862042191885e-02 1.00074160879401e-03
2.93220000000000e+00 9.17591958462540e-02 9.78906607269058e-04
3.00460000000000e+00 8.86418200575941e-02 9.57255883947064e-04
3.07700000000000e+00 8.56303522568814e-02 9.35812036021332e-04
3.14940000000000e+00 8.27211943851484e-02 9.14595121563091e-04
3.22180000000000e+00 7.99108706218782e-02 8.93622879884799e-04
3.29420000000000e+00 7.71960232321433e-02 8.72910931790395e-04
3.36660000000000e+00 7.45734085548315e-02 8.52472961842470e-04
3.43900000000000e+00 7.20398931271658e-02 8.32320884508902e-04
3.51140000000000e+00 6.95924499408877e-02 8.12464995823124e-04
3.58380000000000e+00 6.72281548256303e-02 7.92914111996646e-04
3.65620000000000e+00 6.49441829551613e-02 7.73675696254015e-04
3.72860000000000e+00 6.27378054723210e-02 7.54755975015122e-04
3.80100000000000e+00 6.06063862286218e-02 7.36160044423847e-04
3.87340000000000e+00 5.85473786346164e-02 7.17891968112538e-04
3.94580000000000e+00 5.65583226172679e-02 6.99954866996298e-04
4.01820000000000e+00 5.46368416806902e-02 6.82351001807635e-04
4.09060000000000e+00 5.27806400667440e-02 6.65081849008726e-04
4.16300000000000e+00 5.09875000120979e-02 6.48148170654015e-04
4.23540000000000e+00 4.92552790984760e-02 6.31550078719015e-04
4.30780000000000e+00 4.75819076929272e-02 6.15287094360957e-04
4.38020000000000e+00 4.59653864750571e-02 5.99358202532170e-04
4.45260000000000e+00 4.44037840482679e-02 5.83761902327536e-04
4.52500000000000e+00 4.28952346321540e-02 5.68496253411998e-04
4.59740000000000e+00 4.14379358332935e-02 5.53558918842563e-04
4.66980000000000e+00 4.00301464917741e-02 5.38947204570983e-04
4.74220000000000e+00 3.86701846008803e-02 5.24658095888054e-04
4.81460000000000e+00 3.73564252974556e-02 5.10688291047718e-04
4.88700000000000e+00 3.60872989205386e-02 4.97034232288614e-04
4.95940000000000e+00 3.48612891359552e-02 4.83692134452412e-04
5.03180000000000e+00 3.36769311246231e-02 4.70658011381497e-04
5.10420000000000e+00 3.25328098324077e-02 4.57927700263516e-04
5.17660000000000e+00 3.14275582794348e-02 4.45496884076647e-04
5.24900000000000e+00 3.03598559268427e-02 4.33361112277065e-04
5.32140000000000e+00 2.93284270990212e-02 4.21515819858730e-04
5.39380000000000e+00 2.83320394594526e-02 4.09956344905464e-04
5.46620000000000e+00 2.73695025383332e-02 3.98677944745870e-04
5.53860000000000e+00 2.64396663102169e-02 3.87675810813078e-04
5.61100000000000e+00 2.55414198199816e-02 3.76945082303584e-04
5.68340000000000e+00 2.46736898554752e-02 3.66480858722245e-04
5.75580000000000e+00 2.38354396652574e-02 3.56278211393958e-04
5.82820000000000e+00 2.30256677199035e-02 3.46332194016585e-04
5.90060000000000e+00 2.22434065153914e-02 3.36637852324144e-04
5.97300000000000e+00 2.14877214171417e-02 3.27190232924255e-04
6.04540000000000e+00 2.07577095433290e-02 3.17984391369134e-04
6.11780000000000e+00 2.00524986861325e-02 3.09015399515188e-04
6.19020000000000e+00 1.93712462696333e-02 3.00278352222279e-04
6.26260000000000e+00 1.87131383431177e-02 2.91768373440091e-04
6.33500000000000e+00 1.80773886085797e-02 2.83480621725669e-04
6.40740000000000e+00 1.74632374812638e-02 2.75410295233077e-04
6.47980000000000e+00 1.68699511821236e-02 2.67552636213280e-04
6.55220000000000e+00 1.62968208611132e-02 2.59902935059657e-04
6.62460000000000e+00 1.57431617502631e-02 2.52456533932084e-04
6.69700000000000e+00 1.52083123455293e-02 2.45208829990317e-04
6.76940000000000e+00 1.46916336164375e-02 2.38155278265159e-04
6.84180000000000e+00 1.41925082425788e-02 2.31291394194046e-04
6.91420000000000e+00 1.37103398760436e-02 2.24612755845838e-04
6.98660000000000e+00 1.32445524289142e-02 2.18115005857842e-04
7.05900000000000e+00 1.27945893849626e-02 2.11793853106586e-04
7.13140000000000e+00 1.23599131347331e-02 2.05645074132391e-04
7.20380000000000e+00 1.19400043332141e-02 1.99664514336415e-04
7.27620000000000e+00 1.15343612793319e-02 1.93848088967550e-04
7.34860000000000e+00 1.11424993165255e-02 1.88191783915423e-04
7.42100000000000e+00 1.07639502536862e-02 1.82691656324621e-04
7.49340000000000e+00 1.03982618057686e-02 1.77343835044236e-04
7.56580000000000e+00 1.00449970534079e-02 1.72144520925870e-04
7.63820000000000e+00 9.70373392089397e-03 1.67089986982390e-04
7.71060000000000e+00 9.37406467188186e-03 1.62176578418805e-04
7.78300000000000e+00 9.05559542223393e-03 1.57400712545959e-04
7.85540000000000e+00 8.74794566941276e-03 1.52758878586942e-04
7.92780000000000e+00 8.45074783786212e-03 1.48247637385473e-04
8.00020000000000e+00 8.16364683983289e-03 1.43863621024887e-04
8.07260000000000e+00 7.88629965112928e-03 1.39603532365724e-04
8.14500000000000e+00 7.61837490126838e-03 1.35464144509436e-04
8.21740000000000e+00 7.35955247756341e-03 1.31442300195143e-04
8.28980000000000e+00 7.10952314265766e-03 1.27534911135944e-04
8.36220000000000e+00 6.86798816505202e-03 1.23738957300799e-04
8.43460000000000e+00 6.63465896218491e-03 1.20051486147605e-04
8.50700000000000e+00 6.40925675563787e-03 1.16469611812680e-04
8.57940000000000e+00 6.19151223805507e-03 1.12990514261505e-04
8.65180000000000e+00 5.98116525137874e-03 1.09611438405238e-04
8.72420000000000e+00 5.77796447601601e-03 1.06329693187184e-04
8.79660000000000e+00 5.58166713056578e-03 1.03142650643097e-04
8.86900000000000e+00 5.39203868174701e-03 1.00047744938936e-04
8.94140000000000e+00 5.20885256418166e-03 9.70424713893937e-05
9.01380000000000e+00 5.03188990969759e-03 9.41243854603157e-05
9.08620000000000e+00 4.86093928582797e-03 9.12911017578583e-05
9.15860000000000e+00 4.69579644319480e-03 8.85402930070380e-05
9.23100000000000e+00 4.53626407147462e-03 8.58696890221286e-05
9.30340000000000e+00 4.38215156365496e-03 8.32770756711538e-05
9.37580000000000e+00 4.23327478829978e-03 8.07602938365634e-05
9.44820000000000e+00 4.08945586955184e-03 7.83172383740182e-05
9.52060000000000e+00 3.95052297460915e-03 7.59458570710366e-05
9.59300000000000e+00 3.81631010842160e-03 7.36441496071359e-05
9.66540000000000e+00 3.68665691536241e-03 7.14101665169489e-05
9.73780000000000e+00 3.56140848763750e-03 6.92420081576721e-05
9.81020000000000e+00 3.44041518020387e-03 6.71378236821009e-05
9.88260000000000e+00 3.32353243197584e-03 6.50958100183775e-05
9.95500000000000e+00 3.21062059310547e-03 6.31142108574859e-05
1.00274000000000e+01 3.10154475813097e-03 6.11913156494293e-05
1.00998000000000e+01 2.99617460479351e-03 5.93254586089402e-05
1.01722000000000e+01 2.89438423833008e-03 5.75150177314838e-05
1.02446000000000e+01 2.79605204105618e-03 5.57584138202419e-05
1.03170000000000e+01 2.70106052705877e-03 5.40541095246953e-05
1.03894000000000e+01 2.60929620182573e-03 5.24006083913499e-05
1.04618000000000e+01 2.52064942664429e-03 5.07964539270902e-05
1.05342000000000e+01 2.43501428760618e-03 4.92402286755877e-05
1.06066000000000e+01 2.35228846906323e-03 4.77305533071348e-05
1.06790000000000e+01 2.27237313138212e-03 4.62660857222324e-05
1.07514000000000e+01 2.19517279285212e-03 4.48455201691980e-05
1.08238000000000e+01 2.12059521560496e-03 4.34675863760309e-05
1.08962000000000e+01 2.04855129541029e-03 4.21310486967283e-05
1.09686000000000e+01 1.97895495521525e-03 4.08347052722002e-05
1.10410000000000e+01 1.91172304230079e-03 3.95773872059058e-05
1.11134000000000e+01 1.84677522893201e-03 3.83579577543035e-05
1.11858000000000e+01 1.78403391638373e-03 3.71753115321674e-05
1.12582000000000e+01 1.72342414222659e-03 3.60283737328015e-05
1.13306000000000e+01 1.66487349076305e-03 3.49160993631624e-05
1.14030000000000e+01 1.60831200650612e-03 3.38374724938697e-05
1.14754000000000e+01 1.55367211059756e-03 3.27915055240669e-05
1.15478000000000e+01 1.50088852006558e-03 3.17772384610747e-05
1.16202000000000e+01 1.44989816982570e-03 3.07937382147624e-05
1.16926000000000e+01 1.40064013733150e-03 2.98400979065463e-05
1.17650000000000e+01 1.35305556978517e-03 2.89154361929066e-05
1.18374000000000e+01 1.30708761382110e-03 2.80188966033029e-05
1.19098000000000e+01 1.26268134757820e-03 2.71496468923589e-05
1.19822000000000e+01 1.21978371508011e-03 2.63068784061696e-05
1.20546000000000e+01 1.17834346284465e-03 2.54898054625799e-05
1.21270000000000e+01 1.13831107864686e-03 2.46976647452718e-05
1.21994000000000e+01 1.09963873236254e-03 2.39297147114891e-05
1.22718000000000e+01 1.06228021882148e-03 2.31852350132248e-05
1.23442000000000e+01 1.02619090260215e-03 2.24635259316847e-05
1.24166000000000e+01 9.91327664702000e-04 2.17639078248390e-05
1.24890000000000e+01 9.57648851019407e-04 2.10857205878698e-05
1.25614000000000e+01 9.25114222586005e-04 2.04283231263143e-05
1.26338000000000e+01 8.93684907489712e-04 1.97910928417032e-05
1.27062000000000e+01 8.63323354431129e-04 1.91734251294896e-05
1.27786000000000e+01 8.33993287857774e-04 1.85747328890616e-05
1.28510000000000e+01 8.05659664622576e-04 1.79944460456307e-05
1.29234000000000e+01 7.78288632114812e-04 1.74320110837853e-05
1.29958000000000e+01 7.51847487813493e-04 1.68868905924974e-05
1.30682000000000e+01 7.26304640214856e-04 1.63585628213713e-05
1.31406000000000e+01 7.01629571087281e-04 1.58465212479241e-05
1.32130000000000e+01 6.77792799008546e-04 1.53502741556835e-05
1.32854000000000e+01 6.54765844141838e-04 1.48693442228930e-05
1.33578000000000e+01 6.32521194208450e-04 1.44032681216123e-05
1.34302000000000e+01 6.11032271616502e-04 1.39515961270055e-05
1.35026000000000e+01 5.90273401706411e-04 1.35138917366063e-05
1.35750000000000e+01 5.70219782075170e-04 1.30897312993537e-05
1.36474000000000e+01 5.50847452942793e-04 1.26787036541916e-05
1.37198000000000e+01 5.32133268525507e-04 1.22804097780305e-05
1.37922000000000e+01 5.14054869381499e-04 1.18944624428675e-05
1.38646000000000e+01 4.96590655696175e-04 1.15204858818653e-05
1.39370000000000e+01 4.79719761475004e-04 1.11581154641930e-05
1.40094000000000e+01 4.63422029613126e-04 1.08069973784326e-05
1.40818000000000e+01 4.47677987811931e-04 1.04667883243589e-05
1.41542000000000e+01 4.32468825313829e-04 1.01371552129024e-05
1.42266000000000e+01 4.17776370427429e-04 9.81777487410778e-06
1.42990000000000e+01 4.03583068816256e-04 9.50833377290223e-06
1.43714000000000e+01 3.89871962525080e-04 9.20852773249209e-06
1.44438000000000e+01 3.76626669718794e-04 8.91806166520860e-06
1.45162000000000e+01 3.63831365109628e-04 8.63664931062562e-06
1.45886000000000e+01 3.51470761049320e-04 8.36401298077568e-06
1.46610000000000e+01 3.39530089263652e-04 8.09988331229437e-06
1.47334000000000e+01 3.27995083207523e-04 7.84399902532484e-06
1.48058000000000e+01 3.16851961019489e-04 7.59610668901769e-06
1.48782000000000e+01 3.06087409055384e-04 7.35596049346472e-06
1.49506000000000e+01 2.95688565981370e-04 7.12332202790730e-06
1.50230000000000e+01 2.85643007407401e-04 6.89796006506428e-06
1.50954000000000e+01 2.75938731042732e-04 6.67965035142612e-06
1.51678000000000e+01 2.66564142355758e-04 6.46817540336563e-06
1.52402000000000e+01 2.57508040721029e-04 6.26332430891868e-06
1.53126000000000e+01 2.48759606036902e-04 6.06489253509056e-06
1.53850000000000e+01 2.40308385797839e-04 5.87268174054784e-06
1.54574000000000e+01 2.32144282605900e-04 5.68649959355702e-06
1.55298000000000e+01 2.24257542106518e-04 5.50615959503540e-06
1.56022000000000e+01 2.16638741334129e-04 5.33148090658187e-06
1.56746000000000e+01 2.09278777453753e-04 5.16228818335787e-06
1.57470000000000e+01 2.02168856885053e-04 4.99841141169263e-06
1.58194000000000e+01 1.95300484795889e-04 4.83968575128870e-06
1.58918000000000e+01 1.88665454952817e-04 4.68595138190668e-06
1.59642000000000e+01 1.82255839916392e-04 4.53705335441084e-06
1.60366000000000e+01 1.76063981569582e-04 4.39284144606034e-06
1.61090000000000e+01 1.70082481967954e-04 4.25317001993301e-06
1.61814000000000e+01 1.64304194500718e-04 4.11789788837102e-06
1.62538000000000e+01 1.58722215352056e-04 3.98688818034140e-06
1.63262000000000e+01 1.53329875252542e-04 3.86000821260536e-06
1.63986000000000e+01 1.48120731510792e-04 3.73712936459429e-06
1.64710000000000e+01 1.43088560315831e-04 3.61812695689212e-06
1.65434000000000e+01 1.38227349300968e-04 3.50288013322568e-06
1.66158000000000e+01 1.33531290360309e-04 3.39127174586783e-06
1.66882000000000e+01 1.28994772709313e-04 3.28318824436043e-06
1.67606000000000e+01 1.24612376181106e-04 3.17851956746585e-06
1.68330000000000e+01 1.20378864750544e-04 3.07715903825853e-06
1.69054000000000e+01 1.16289180278281e-04 2.97900326226997e-06
1.69778000000000e+01 1.12338436467383e-04 2.88395202860303e-06
1.70502000000000e+01 1.08521913025241e-04 2.79190821393326e-06
1.71226000000000e+01 1.04835050023839e-04 2.70277768931697e-06
1.71950000000000e+01 1.01273442451614e-04 2.61646922972799e-06
1.72674000000000e+01 9.78328349504121e-05 2.53289442624724e-06
1.73398000000000e+01 9.45091167312444e-05 2.45196760083067e-06
1.74122000000000e+01 9.12983166627775e-05 2.37360572358332e-06
1.74846000000000e+01 8.81965985266811e-05 2.29772833246914e-06
1.75570000000000e+01 8.52002564341685e-05 2.22425745538797e-06
1.76294000000000e+01 8.23057103982538e-05 2.15311753455296e-06
1.77018000000000e+01 7.95095020564340e-05 2.08423535310332e-06
1.77742000000000e+01 7.68082905386866e-05 2.01753996388893e-06
1.78466000000000e+01 7.41988484758459e-05 1.95296262036536e-06
1.79190000000000e+01 7.16780581435874e-05 1.89043670953906e-06
1.79914000000000e+01 6.92429077374160e-05 1.82989768690449e-06
1.80638000000000e+01 6.68904877742038e-05 1.77128301331596e-06
1.81362000000000e+01 6.46179876159816e-05 1.71453209373911e-06
1.82086000000000e+01 6.24226921118286e-05 1.65958621782808e-06
1.82810000000000e+01 6.03019783538481e-05 1.60638850227575e-06
1.83534000000000e+01 5.82533125433550e-05 1.55488383488630e-06
1.84258000000000e+01 5.62742469635285e-05 1.50501882032017e-06
1.84982000000000e+01 5.43624170549153e-05 1.45674172746340e-06
1.85706000000000e+01 5.25155385902874e-05 1.41000243837411e-06
1.86430000000000e+01 5.07314049454799e-05 1.36475239876072e-06
1.87154000000000e+01 4.90078844629473e-05 1.32094456994714e-06
1.87878000000000e+01 4.73429179048902e-05 1.27853338228198e-06
1.88602000000000e+01 4.57345159929064e-05 1.23747468994963e-06
1.89326000000000e+01 4.41807570312298e-05 1.19772572714237e-06
1.90050000000000e+01 4.26797846107153e-05 1.15924506555373e-06
1.90774000000000e+01 4.12298053908278e-05 1.12199257315461e-06
1.91498000000000e+01 3.98290869569841e-05 1.08592937421439e-06
1.92222000000000e+01 3.84759557506889e-05 1.05101781053071e-06
1.92946000000000e+01 3.71687950699903e-05 1.01722140383234e-06
1.93670000000000e+01 3.59060431378680e-05 9.84504819320728e-07
1.94394000000000e+01 3.46861912362438e-05 9.52833830316510e-07
1.95118000000000e+01 3.35077819033867e-05 9.22175283978729e-07
1.95842000000000e+01 3.23694071925585e-05 8.92497068064826e-07
1.96566000000000e+01 3.12697069898188e-05 8.63768078700704e-07
1.97290000000000e+01 3.02073673889806e-05 8.35958189131048e-07
1.98014000000000e+01 2.91811191217733e-05 8.09038219420855e-07
1.98738000000000e+01 2.81897360413392e-05 7.82979907079868e-07
1.99462000000000e+01 2.72320336572510e-05 7.57755878582578e-07
2.00186000000000e+01 2.63068677202988e-05 7.33339621757159e-07
2.00910000000000e+01 2.54131328553579e-05 7.09705459017447e-07
2.01634000000000e+01 2.45497612407023e-05 6.86828521412863e-07
2.02358000000000e+01 2.37157213321860e-05 6.64684723471848e-07
2.03082000000000e+01 2.29100166307691e-05 6.43250738815153e-07
2.03806000000000e+01 2.21316844919150e-05 6.22503976515952e-07
2.04530000000000e+01 2.13797949754359e-05 6.02422558184383e-07
2.05254000000000e+01 2.06534497344139e-05 5.82985295754853e-07
2.05978000000000e+01 1.99517809418687e-05 5.64171669955068e-07
2.06702000000000e+01 1.92739502538901e-05 5.45961809436245e-07
2.07426000000000e+01 1.86191478079970e-05 5.28336470544645e-07
2.08150000000000e+01 1.79865912555249e-05 5.11277017715213e-07
2.08874000000000e+01 1.73755248268866e-05 4.94765404468504e-07
2.09598000000000e+01 1.67852184285900e-05 4.78784154992749e-07
2.10322000000000e+01 1.62149667709324e-05 4.63316346293418e-07
2.11046000000000e+01 1.56640885253305e-05 4.48345590893159e-07
2.11770000000000e+01 1.51319255102786e-05 4.33856020065399e-07
2.12494000000000e+01 1.46178419049625e-05 4.19832267585570e-07
2.13218000000000e+01 1.41212234895904e-05 4.06259453984235e-07
2.13942000000000e+01 1.36414769115313e-05 3.93123171286869e-07
2.14666000000000e+01 1.31780289763857e-05 3.80409468225637e-07
2.15390000000000e+01 1.27303259631414e-05 3.68104835908742e-07
2.16114000000000e+01 1.22978329625953e-05 3.56196193933491e-07
2.16838000000000e+01 1.18800332382515e-05 3.44670876929589e-07
2.17562000000000e+01 1.14764276089318e-05 3.33516621519556e-07
2.18286000000000e+01 1.10865338523613e-05 3.22721553683572e-07
2.19010000000000e+01 1.07098861290158e-05 3.12274176516421e-07
2.19734000000000e+01 1.03460344255436e-05 3.02163358364580e-07
2.20458000000000e+01 9.99454401709598e-06 2.92378321331850e-07
2.21182000000000e+01 9.65499494792376e-06 2.82908630142254e-07
2.21906000000000e+01 9.32698152962050e-06 2.73744181349306e-07
2.22630000000000e+01 9.01011185641160e-06 2.64875192881046e-07
2.23354000000000e+01 8.70400733691085e-06 2.56292193910560e-07
2.24078000000000e+01 8.40830224178485e-06 2.47986015041996e-07
2.24802000000000e+01 8.12264326678478e-06 2.39947778802451e-07
2.25526000000000e+01 7.84668911062346e-06 2.32168890430297e-07
2.26250000000000e+01 7.58011006719350e-06 2.24641028950858e-07
2.26974000000000e+01 7.32258763163906e-06 2.17356138530636e-07
2.27698000000000e+01 7.07381411981080e-06 2.10306420101492e-07
2.28422000000000e+01 6.83349230064921e-06 2.03484323246495e-07
