Energy (eV)          EEDF (eV^-(3/2))     First Anisotropy
1.55333333333333e-01 2.40180865181125e-01 4.91971970814166e-04
4.66000000000000e-01 2.14026933798103e-01 7.70745241830406e-04
7.76666666666667e-01 1.90720973412502e-01 9.12813338509435e-04
1.08733333333333e+00 1.69952860849215e-01 9.69783219870989e-04
1.39800000000000e+00 1.51446243079871e-01 9.82909859665254e-04
1.70866666666667e+00 1.34954860083101e-01 9.69819638327506e-04
2.01933333333333e+00 1.20259267485077e-01 9.40332776622616e-04
2.33000000000000e+00 1.07163916914858e-01 9.00589238302918e-04
2.64066666666667e+00 9.54945538299766e-02 8.54666322530387e-04
2.95133333333333e+00 8.50958986237011e-02 8.05363106348175e-04
3.26200000000000e+00 7.58295805487095e-02 7.54634515721567e-04
3.57266666666667e+00 6.75722964391693e-02 7.03853918240380e-04
3.88333333333333e+00 6.02141698865471e-02 6.53982341085125e-04
4.19400000000000e+00 5.36572892416996e-02 6.05682684834608e-04
4.50466666666667e+00 4.78144047276671e-02 5.59399524478822e-04
4.81533333333333e+00 4.26077673989921e-02 5.15416332445090e-04
5.12600000000000e+00 3.79680946133359e-02 4.73897333056200e-04
5.43666666666667e+00 3.38336481065463e-02 4.34918579045122e-04
5.74733333333333e+00 3.01494124415801e-02 3.98491279007506e-04
6.05800000000000e+00 2.68663629665008e-02 3.64579449684386e-04
6.36866666666667e+00 2.39408134582283e-02 3.33113346268267e-04
6.67933333333333e+00 2.13338347926897e-02 3.03999707541768e-04
6.99000000000000e+00 1.90107369463275e-02 2.77129577351105e-04
7.30066666666667e+00 1.69406073869980e-02 2.52384267132989e-04
7.61133333333333e+00 1.50958997242351e-02 2.29639881058123e-04
7.92200000000000e+00 1.34520671701255e-02 2.08770727272445e-04
8.23266666666667e+00 1.19872359033048e-02 1.89651863346199e-04
8.54333333333333e+00 1.06819139971290e-02 1.72160965843627e-04
8.85400000000000e+00 9.51873205443973e-03 1.56179673834442e-04
9.16466666666667e+00 8.48221207888343e-03 1.41594523466758e-04
9.47533333333334e+00 7.55856151183793e-03 1.28297564279277e-04
9.78600000000000e+00 6.73548970417150e-03 1.16186730034989e-04
1.00966666666667e+01 6.00204436882484e-03 1.05166021466992e-04
1.04073333333333e+01 5.34846584082521e-03 9.51455454563808e-05
1.07180000000000e+01 4.76605721018862e-03 8.60414463157527e-05
1.10286666666667e+01 4.24706860303654e-03 7.77757586361458e-05
1.13393333333333e+01 3.78459404015197e-03 7.02762021779609e-05
1.16500000000000e+01 3.37247955770276e-03 6.34759367038282e-05
1.19606666666667e+01 3.00524131621873e-03 5.73132925446345e-05
1.22713333333333e+01 2.67799261976791e-03 5.17314844274983e-05
1.25820000000000e+01 2.38637890095006e-03 4.66783183969509e-05
1.28926666666667e+01 2.12651977466976e-03 4.21058990966626e-05
1.32033333333333e+01 1.89495739713890e-03 3.79703400956967e-05
1.35140000000000e+01 1.68861046048136e-03 3.42314818565895e-05
1.38246666666667e+01 1.50473318986664e-03 3.08526205385454e-05
1.41353333333333e+01 1.34087880245601e-03 2.78002479847732e-05
1.44460000000000e+01 1.19486695348782e-03 2.50438047756919e-05
1.47566666666667e+01 1.06475472255717e-03 2.25554474632893e-05
1.50673333333333e+01 9.48810757220267e-04 2.03098293178246e-05
1.53780000000000e+01 8.45492237522769e-04 1.82838950977958e-05
1.56886666666667e+01 7.53424345820512e-04 1.64566899421209e-05
1.59993333333333e+01 6.71381970816067e-04 1.48091813560854e-05
1.63100000000000e+01 5.98273407448731e-04 1.33240941499884e-05
1.66206666666667e+01 5.33125829686453e-04 1.19857579750130e-05
1.69313333333333e+01 4.75072344308225e-04 1.07799663848830e-05
1.72420000000000e+01 4.23340456807665e-04 9.69384700981832e-06
1.75526666666667e+01 3.77241791901044e-04 8.71574232428871e-06
1.78633333333333e+01 3.36162932782431e-04 7.83510003398815e-06
1.81740000000000e+01 2.99557259505041e-04 7.04237259065198e-06
1.84846666666667e+01 2.66937675183644e-04 6.32892529789448e-06
1.87953333333333e+01 2.37870123847244e-04 5.68695218024855e-06
1.91060000000000e+01 2.11967815216211e-04 5.10939914011988e-06
1.94166666666667e+01 1.88886077741887e-04 4.58989391333543e-06
1.97273333333333e+01 1.68317771834089e-04 4.12268214823665e-06
2.00380000000000e+01 1.49989203272073e-04 3.70256918925147e-06
2.03486666666667e+01 1.33656481199948e-04 3.32486714748434e-06
2.06593333333333e+01 1.19102272521651e-04 2.98534672241734e-06
2.09700000000000e+01 1.06132910202622e-04 2.68019342404431e-06
2.12806666666667e+01 9.45758161762176e-05 2.40596785331978e-06
2.15913333333333e+01 8.42772047494385e-05 2.15956962341222e-06
2.19020000000000e+01 7.51000364182470e-05 1.93820463792696e-06
2.22126666666667e+01 6.69221943081218e-05 1.73935545314549e-06
2.25233333333333e+01 5.96348591005398e-05 1.56075440348599e-06
2.28340000000000e+01 5.31410611397904e-05 1.40035926566277e-06
2.31446666666667e+01 4.73543900765450e-05 1.25633124788313e-06
2.34553333333333e+01 4.21978449631326e-05 1.12701506018969e-06
2.37660000000000e+01 3.76028097155029e-05 1.01092089128071e-06
2.40766666666667e+01 3.35081400528796e-05 9.06708126909675e-07
2.43873333333333e+01 2.98593498230843e-05 8.13170625973216e-07
2.46980000000000e+01 2.66078860333758e-05 7.29223420106103e-07
2.50086666666667e+01 2.37104827659887e-05 6.53890710897734e-07
2.53193333333333e+01 2.11285854203366e-05 5.86295027000532e-07
2.56300000000000e+01 1.88278377206791e-05 5.25647439059523e-07
2.59406666666667e+01 1.67776245446405e-05 4.71238737184549e-07
2.62513333333333e+01 1.49506645157923e-05 4.22431468371366e-07
2.65620000000000e+01 1.33226470074154e-05 3.78652756834832e-07
2.68726666666667e+01 1.18719086464486e-05 3.39387835641402e-07
2.71833333333333e+01 1.05791450311055e-05 3.04174213566351e-07
2.74940000000000e+01 9.42715387275934e-06 2.72596419404496e-07
2.78046666666667e+01 8.40060608905941e-06 2.44281270216822e-07
2.81153333333333e+01 7.48584181465484e-06 2.18893607318790e-07
2.84260000000000e+01 6.67068864702417e-06 1.96132456916480e-07
2.87366666666667e+01 5.94429967119656e-06 1.75727575586990e-07
2.90473333333333e+01 5.29700911645347e-06 1.57436339229856e-07
2.93580000000000e+01 4.72020374612920e-06 1.41040943487574e-07
2.96686666666667e+01 4.20620824335688e-06 1.26345886151352e-07
2.99793333333333e+01 3.74818307339444e-06 1.13175701176945e-07
3.02900000000000e+01 3.34003347838914e-06 1.01372920636036e-07
3.06006666666667e+01 2.97632837594233e-06 9.07962428393278e-08
3.09113333333333e+01 2.65222808623175e-06 8.13188843855614e-08
3.12220000000000e+01 2.36341993624919e-06 7.28270986798430e-08
3.15326666666667e+01 2.10606087214822e-06 6.52188449043164e-08
3.18433333333333e+01 1.87672631876741e-06 5.84025911843666e-08
3.21540000000000e+01 1.67236461287024e-06 5.22962391151994e-08
3.24646666666667e+01 1.49025639544567e-06 4.68261578921916e-08
3.27753333333333e+01 1.32797842457020e-06 4.19263161875349e-08
3.30860000000000e+01 1.18337133214639e-06 3.75375023595857e-08
3.33966666666667e+01 1.05451088975493e-06 3.36066243853897e-08
3.37073333333333e+01 9.39682402537242e-07 3.00860808824591e-08
3.40180000000000e+01 8.37357893708631e-07 2.69331963308936e-08
3.43286666666667e+01 7.46175772176003e-07 2.41097142038773e-08
3.46393333333333e+01 6.64922713578027e-07 2.15813417294298e-08
3.49500000000000e+01 5.92517515938435e-07 1.93173412519630e-08
3.52606666666667e+01 5.27996712401828e-07 1.72901636037809e-08
3.55713333333333e+01 4.70501750206506e-07 1.54751189291437e-08
3.58820000000000e+01 4.19267566869092e-07 1.38500812925213e-08
3.61926666666667e+01 3.73612409706351e-07 1.23952237283141e-08
3.65033333333333e+01 3.32928763639589e-07 1.10927804273625e-08
3.68140000000000e+01 2.96675267649959e-07 9.92683338989276e-09
3.71246666666667e+01 2.64369511036598e-07 8.88312111404320e-09
3.74353333333333e+01 2.35581613904623e-07 7.94886692637096e-09
3.77460000000000e+01 2.09928507211850e-07 7.11262501325643e-09
3.80566666666667e+01 1.87068835375864e-07 6.36414238783166e-09
3.83673333333333e+01 1.66698413808404e-07 5.69423506052391e-09
3.86780000000000e+01 1.48546181450460e-07 5.09467700406293e-09
3.89886666666667e+01 1.32370593839170e-07 4.55810063243604e-09
3.92993333333333e+01 1.17956408845602e-07 4.07790754184057e-09
3.96100000000000e+01 1.05111822670395e-07 3.64818849184955e-09
3.99206666666667e+01 9.36659175652133e-08 3.26365169899995e-09
4.02313333333333e+01 8.34663874111248e-08 2.91955853858949e-09
4.05420000000000e+01 7.43775111363397e-08 2.61166591457958e-09
4.08526666666667e+01 6.62783467149331e-08 2.33617462606379e-09
4.11633333333333e+01 5.90611217791774e-08 2.08968307776305e-09
4.14740000000000e+01 5.26297996009763e-08 1.86914579900463e-09
4.17846666666667e+01 4.68988011589895e-08 1.67183628557543e-09
4.20953333333333e+01 4.17918663309750e-08 1.49531369388552e-09
4.24060000000000e+01 3.72410391759608e-08 1.33739300027317e-09
4.27166666666667e+01 3.31857636644251e-08 1.19611827459749e-09
4.30273333333333e+01 2.95720778544708e-08 1.06973872901577e-09
4.33380000000000e+01 2.63518958730692e-08 9.56687262279018e-10
4.36486666666667e+01 2.34823680515352e-08 8.55561246256135e-10
4.39593333333333e+01 2.09253107220718e-08 7.65105310475397e-10
4.42700000000000e+01 1.86466981445921e-08 6.84195922827428e-10
4.45806666666667e+01 1.66162097363128e-08 6.11827583709829e-10
4.48913333333333e+01 1.48068265939955e-08 5.47100457845321e-10
4.52020000000000e+01 1.31944719791819e-08 4.89209298184945e-10
4.55126666666667e+01 1.17576909362471e-08 4.37433530175647e-10
4.58233333333333e+01 1.04773647902590e-08 3.91128369955994e-10
4.61340000000000e+01 9.33645675279541e-09 3.49716871545313e-10
4.64446666666667e+01 8.31978521853875e-09 3.12682808131495e-10
4.67553333333333e+01 7.41382174305210e-09 2.79564296555019e-10
4.70660000000000e+01 6.60651103237422e-09 2.49948089403860e-10
4.73766666666667e+01 5.88711052688321e-09 2.23464466395993e-10
4.76873333333333e+01 5.24604744972292e-09 1.99782659726496e-10
4.79980000000000e+01 4.67479143067993e-09 1.78606758966639e-10
4.83086666666667e+01 4.16574099515373e-09 1.59672046350601e-10
4.86193333333333e+01 3.71212241116226e-09 1.42741715530054e-10
4.89300000000000e+01 3.30789955746198e-09 1.27603934647540e-10
4.92406666666667e+01 2.94769360273801e-09 1.14069218369467e-10
4.95513333333333e+01 2.62671142941752e-09 1.01968075192206e-10
4.98620000000000e+01 2.34068185597438e-09 9.11489018687059e-11
5.01726666666667e+01 2.08579880163729e-09 8.14760995378768e-11
5.04833333333333e+01 1.85867063884692e-09 7.28283873810558e-11
5.07940000000000e+01 1.65627506389321e-09 6.50972935706294e-11
5.11046666666667e+01 1.47591888005954e-09 5.81858052479102e-11
5.14153333333333e+01 1.31520215925579e-09 5.20071601869740e-11
5.17260000000000e+01 1.17198630829411e-09 4.64837656070775e-11
5.20366666666667e+01 1.04436561129787e-09 4.15462310174087e-11
5.23473333333333e+01 9.30641870355396e-10 3.71325026568973e-11
5.26580000000000e+01 8.29301809084899e-10 3.31870890895397e-11
5.29686666666667e+01 7.38996935941101e-10 2.96603685392056e-11
5.32793333333333e+01 6.58525599858128e-10 2.65079690479760e-11
5.35900000000000e+01 5.86817000919171e-10 2.36902139642813e-11
5.39006666666667e+01 5.22916941560031e-10 2.11716260038216e-11
5.42113333333333e+01 4.65975129082595e-10 1.89204834937821e-11
5.45220000000000e+01 4.15233861539202e-10 1.69084234232696e-11
5.48326666666667e+01 3.70017945233131e-10 1.51100864529005e-11
5.51433333333333e+01 3.29725709934933e-10 1.35027993060464e-11
5.54540000000000e+01 2.93821002968019e-10 1.20662906848782e-11
5.57646666666667e+01 2.61826054795808e-10 1.07824372354541e-11
5.60753333333333e+01 2.33315121358823e-10 9.63503628347137e-12
5.63860000000000e+01 2.07908819057093e-10 8.60960257520684e-12
5.66966666666667e+01 1.85269076413977e-10 7.69318653208338e-12
5.70073333333333e+01 1.65094635372614e-10 6.87421167156734e-12
5.73180000000000e+01 1.47117042706507e-10 6.14232921213894e-12
5.76286666666667e+01 1.31097077798686e-10 5.48828807685188e-12
5.79393333333333e+01 1.16821569343973e-10 4.90381861529704e-12
5.82500000000000e+01 1.04100558854912e-10 4.38152862356020e-12
5.85606666666667e+01 9.27647729454466e-11 3.91481038306805e-12
5.88713333333333e+01 8.26633708187283e-11 3.49775751596327e-12
5.91820000000000e+01 7.36619371524765e-11 3.12509063950552e-12
5.94926666666667e+01 6.56406934778127e-11 2.79209090342418e-12
5.98033333333333e+01 5.84929042940244e-11 2.49454055001534e-12
6.01140000000000e+01 5.21234568261814e-11 2.22866976830960e-12
6.04246666666667e+01 4.64475953903552e-11 1.99110918641664e-12
6.07353333333333e+01 4.13897935550292e-11 1.77884738677175e-12
6.10460000000000e+01 3.68827491718964e-11 1.58919292259656e-12
6.13566666666667e+01 3.28664888081267e-11 1.41974036608954e-12
6.16673333333333e+01 2.92875696839521e-11 1.26833994836297e-12
6.19780000000000e+01 2.60983685524427e-11 1.13307041772651e-12
6.22886666666667e+01 2.32564479925487e-11 1.01221478034913e-12
6.25993333333333e+01 2.07239916974204e-11 9.04238608735679e-13
6.29100000000000e+01 1.84673012829023e-11 8.07770650823198e-13
6.32206666666667e+01 1.64563478742031e-11 7.21585499332750e-13
6.35313333333333e+01 1.46643725139847e-11 6.44588096528432e-13
6.38420000000000e+01 1.30675301020517e-11 5.75799883231839e-13
6.41526666666667e+01 1.16445720964595e-11 5.14346420166819e-13
6.44633333333333e+01 1.03765637609130e-11 4.59446320946338e-13
6.47740000000000e+01 9.24663221507748e-12 4.10401359982869e-13
6.50846666666667e+01 8.23974191273665e-12 3.66587632376902e-13
6.53953333333333e+01 7.34249456508373e-12 3.27447650969811e-13
6.57060000000000e+01 6.54295086012345e-12 2.92483282796616e-13
6.60166666666667e+01 5.83047159020580e-12 2.61249437038094e-13
6.63273333333333e+01 5.19557607705976e-12 2.33348422451518e-13
6.66380000000000e+01 4.62981601973788e-12 2.08424904385717e-13
6.69486666666667e+01 4.12566307588475e-12 1.86161398548358e-13
6.72593333333333e+01 3.67640868280417e-12 1.66274242941965e-13
6.75700000000000e+01 3.27607479176711e-12 1.48509998009607e-13
6.78806666666667e+01 2.91933432011087e-12 1.32642230086262e-13
6.81913333333333e+01 2.60144026428095e-12 1.18468636319637e-13
6.85020000000000e+01 2.31816253507619e-12 1.05808475357744e-13
6.88126666666667e+01 2.06573166926620e-12 9.45002717179409e-14
6.91233333333333e+01 1.84078866973527e-12 8.43997639659227e-14
6.94340000000000e+01 1.64034030985361e-12 7.53780711949311e-14
6.97446666666667e+01 1.46171930361417e-12 6.73200548834680e-14
7.00553333333333e+01 1.30254881234507e-12 6.01228548063403e-14
7.03660000000000e+01 1.16071081790742e-12 5.36945807755358e-14
7.06766666666667e+01 1.03431793893991e-12 4.79531438385745e-14
7.09873333333333e+01 9.21688315685676e-13 4.28252117127132e-14
7.12980000000000e+01 8.21323230743221e-13 3.82452754388889e-14
7.16086666666667e+01 7.31887166139054e-13 3.41548155630653e-14
7.19193333333333e+01 6.52190031744055e-13 3.05015569816147e-14
7.22300000000000e+01 5.81171329629398e-13 2.72388031555631e-14
7.25406666666667e+01 5.17886042378872e-13 2.43248413449760e-14
7.28513333333333e+01 4.61492057854595e-13 2.17224111116379e-14
7.31620000000000e+01 4.11238963833472e-13 1.93982294531602e-14
7.34726666666667e+01 3.66458062525853e-13 1.73225666082003e-14
7.37833333333333e+01 3.26553472296019e-13 1.54688670020192e-14
7.40940000000000e+01 2.90994198703281e-13 1.38134105943273e-14
7.44046666666667e+01 2.59307068739188e-13 1.23350103748786e-14
7.47153333333333e+01 2.31070434373948e-13 1.10147420612648e-14
7.50260000000000e+01 2.05908561994272e-13 9.83570261693208e-15
7.53366666666667e+01 1.83486632643993e-13 8.78279455293521e-15
7.56473333333333e+01 1.63506286631565e-13 7.84253319911675e-15
7.59580000000000e+01 1.45701653474478e-13 7.00287453104094e-15
7.62686666666667e+01 1.29835814051390e-13 6.25306138584026e-15
7.65793333333333e+01 1.15697647950836e-13 5.58348605981119e-15
7.68900000000000e+01 1.03099024244496e-13 4.98556756540314e-15
7.72006666666667e+01 9.18722980932047e-14 4.45164200155085e-15
7.75113333333333e+01 8.18680799198799e-14 3.97486460601994e-15
7.78220000000000e+01 7.29532475898021e-14 3.54912226088929e-15
7.81326666666667e+01 6.50091749999423e-14 3.16895534820604e-15
7.84433333333333e+01 5.79301535379182e-14 2.82948793523749e-15
7.87540000000000e+01 5.16219854930692e-14 2.52636541265046e-15
7.90646666666667e+01 4.60007305998342e-14 2.25569879885749e-15
7.93753333333333e+01 4.09915890565780e-14 2.01401498291610e-15
7.96860000000000e+01 3.65279062178329e-14 1.79821228065422e-15
7.99966666666667e+01 3.25502856438406e-14 1.60552074288387e-15
8.03073333333333e+01 2.90057987207567e-14 1.43346669701353e-15
8.06180000000000e+01 2.58472803770389e-14 1.27984107606968e-15
8.09286666666667e+01 2.30327014740815e-14 1.14267113495898e-15
8.12393333333333e+01 2.05246095306971e-14 1.02019518425551e-15
8.15500000000000e+01 1.82896303693175e-14 9.10840023467944e-16
8.18606666666667e+01 1.62980240173268e-14 8.13200788444808e-16
8.21713333333333e+01 1.45232889617389e-14 7.26022949417167e-16
8.24820000000000e+01 1.29418095121303e-14 6.48186232899974e-16
8.27926666666667e+01 1.15325415548093e-14 5.78690264011500e-16
8.31033333333333e+01 1.02767325220343e-14 5.16641741429914e-16
8.34140000000000e+01 9.15767186466739e-15 4.61242983303283e-16
8.37246666666667e+01 8.16046869068364e-15 4.11781699081816e-16
8.40353333333333e+01 7.27185361440283e-15 3.67621853465590e-16
8.43460000000000e+01 6.48000218998095e-15 3.28195507206842e-16
8.46566666666667e+01 5.77437756761064e-15 2.92995531386432e-16
8.49673333333333e+01 5.14559028133939e-15 2.61569099827212e-16
8.52780000000000e+01 4.58527330993017e-15 2.33511877486102e-16
8.55886666666667e+01 4.08597073981690e-15 2.08462831141515e-16
8.58993333333333e+01 3.64103855046990e-15 1.86099594454756e-16
8.62100000000000e+01 3.24455620698174e-15 1.66134328848999e-16
8.65206666666667e+01 2.89124787756965e-15 1.48310027694116e-16
8.68313333333333e+01 2.57641222894981e-15 1.32397215412417e-16
8.71420000000000e+01 2.29585986891238e-15 1.18190999774750e-16
8.74526666666667e+01 2.04585759953965e-15 1.05508439967341e-16
8.77633333333333e+01 1.82307874016481e-15 9.41861959645519e-17
8.80740000000000e+01 1.62455886149857e-15 8.40784294710498e-17
8.83846666666667e+01 1.44765633900352e-15 7.50549297708401e-17
8.86953333333333e+01 1.29001720124412e-15 6.69994399359056e-17
8.90060000000000e+01 1.14954380718532e-15 5.98081622066797e-17
8.93166666666667e+01 1.02436693361682e-15 5.33884235483730e-17
8.96273333333333e+01 9.12820901721048e-16 4.76574839010205e-17
8.99380000000000e+01 8.13421413010018e-16 4.25414720280420e-17
9.02486666666667e+01 7.24845798285127e-16 3.79744354306730e-17
9.05593333333333e+01 6.45915417108578e-16 3.38974918788311e-17
9.08700000000000e+01 5.75579974427672e-16 3.02580718048234e-17
9.11806666666667e+01 5.12903544666878e-16 2.70092419201708e-17
9.14913333333333e+01 4.57052117531426e-16 2.41091011907250e-17
9.18020000000000e+01 4.07282500390826e-16 2.15202415100661e-17
9.21126666666667e+01 3.62932428875539e-16 1.92092662050958e-17
9.24233333333333e+01 3.23411754243431e-16 1.71463600619804e-17
9.27340000000000e+01 2.88194590664043e-16 1.53049054165241e-17
9.30446666666667e+01 2.56812317440795e-16 1.44477672618808e-17
