Energy (eV)          EEDF (eV^-(3/2))     First Anisotropy
1.15625000000000e-04 1.26418395046867e+02 3.74409890021875e-02
3.46875000000000e-04 1.25739586211442e+02 6.18677139572310e-02
5.78125000000000e-04 1.25064422268336e+02 8.17837318631864e-02
8.09375000000000e-04 1.24392883646136e+02 9.69820457051772e-02
1.04062500000000e-03 1.23724950878527e+02 1.09714012048525e-01
1.27187500000000e-03 1.23060604603724e+02 1.20828979966491e-01
1.50312500000000e-03 1.22399825563902e+02 1.30765578230084e-01
1.73437500000000e-03 1.21742594604645e+02 1.39788146629122e-01
1.96562500000000e-03 1.21088892674386e+02 1.48071649649071e-01
2.19687500000000e-03 1.20438700823858e+02 1.55739502683469e-01
2.42812500000000e-03 1.19792000205541e+02 1.62882882995183e-01
2.65937500000000e-03 1.19148772073119e+02 1.69571571378324e-01
2.89062500000000e-03 1.18508997780933e+02 1.75860483566802e-01
3.12187500000000e-03 1.17872658783445e+02 1.81793825771037e-01
3.35312500000000e-03 1.17239736634696e+02 1.87407856528278e-01
3.58437500000000e-03 1.16610212987776e+02 1.92732789095723e-01
3.81562500000000e-03 1.15984069594288e+02 1.97794141569613e-01
4.04687500000000e-03 1.15361288303819e+02 2.02613719661829e-01
4.27812500000000e-03 1.14741851063417e+02 2.07210347853695e-01
4.50937500000000e-03 1.14125739917067e+02 2.11600423768059e-01
4.74062500000000e-03 1.13512937005168e+02 2.15798345564456e-01
4.97187500000000e-03 1.12903424564018e+02 2.19816846338792e-01
5.20312500000000e-03 1.12297184925296e+02 2.23667259228787e-01
5.43437500000000e-03 1.11694200515554e+02 2.27359730082872e-01
5.66562500000000e-03 1.11094453855704e+02 2.30903389894739e-01
5.89687500000000e-03 1.10497927560514e+02 2.34306495976302e-01
6.12812500000000e-03 1.09904604338101e+02 2.37576548562328e-01
6.35937500000000e-03 1.09314466989432e+02 2.40720387904551e-01
6.59062500000000e-03 1.08727498407827e+02 2.43744275723273e-01
6.82187500000000e-03 1.08143681578458e+02 2.46653964007019e-01
7.05312500000000e-03 1.07562999577860e+02 2.49454753495626e-01
7.28437500000000e-03 1.06985435573441e+02 2.52151543687590e-01
7.51562500000000e-03 1.06410972822988e+02 2.54748875835220e-01
7.74687500000000e-03 1.05839594674191e+02 2.57250970100645e-01
7.97812500000000e-03 1.05271284564153e+02 2.59661757819775e-01
8.20937500000000e-03 1.04706026018910e+02 2.61984909644401e-01
8.44062500000000e-03 1.04143802652960e+02 2.64223860192723e-01
8.67187500000000e-03 1.03584598168781e+02 2.66381829727432e-01
8.90312500000000e-03 1.03028396356360e+02 2.68461843291172e-01
9.13437500000000e-03 1.02475181092728e+02 2.70466747657523e-01
9.36562500000000e-03 1.01924936341486e+02 2.72399226397179e-01
9.59687500000000e-03 1.01377646152345e+02 2.74261813311330e-01
9.82812500000000e-03 1.00833294660659e+02 2.76056904445392e-01
1.00593750000000e-02 1.00291866086971e+02 2.77786768863789e-01
1.02906250000000e-02 9.97533447365506e+01 2.79453558339949e-01
1.05218750000000e-02 9.92177149989419e+01 2.81059316093232e-01
1.07531250000000e-02 9.86849613475091e+01 2.82605984686053e-01
1.09843750000000e-02 9.81550683389880e+01 2.84095413178881e-01
1.12156250000000e-02 9.76280206130372e+01 2.85529363627372e-01
1.14468750000000e-02 9.71038028917935e+01 2.86909516994909e-01
1.16781250000000e-02 9.65823999794290e+01 2.88237478544284e-01
1.19093750000000e-02 9.60637967617101e+01 2.89514782764184e-01
1.21406250000000e-02 9.55479782055598e+01 2.90742897879116e-01
1.23718750000000e-02 9.50349293586219e+01 2.91923229985584e-01
1.26031250000000e-02 9.45246353488275e+01 2.93057126852197e-01
1.28343750000000e-02 9.40170813839639e+01 2.94145881416845e-01
1.30656250000000e-02 9.35122527512457e+01 2.95190735010322e-01
1.32968750000000e-02 9.30101348168885e+01 2.96192880332484e-01
1.35281250000000e-02 9.25107130256845e+01 2.97153464204101e-01
1.37593750000000e-02 9.20139729005810e+01 2.98073590114983e-01
1.39906250000000e-02 9.15199000422600e+01 2.98954320586784e-01
1.42218750000000e-02 9.10284801287217e+01 2.99796679366966e-01
1.44531250000000e-02 9.05396989148684e+01 3.00601653468576e-01
1.46843750000000e-02 9.00535422320924e+01 3.01370195069214e-01
1.49156250000000e-02 8.95699959878647e+01 3.02103223280989e-01
1.51468750000000e-02 8.90890461653270e+01 3.02801625802195e-01
1.53781250000000e-02 8.86106788228849e+01 3.03466260460453e-01
1.56093750000000e-02 8.81348800938040e+01 3.04097956655947e-01
1.58406250000000e-02 8.76616361858079e+01 3.04697516712767e-01
1.60718750000000e-02 8.71909333806784e+01 3.05265717145577e-01
1.63031250000000e-02 8.67227580338579e+01 3.05803309847973e-01
1.65343750000000e-02 8.62570965740538e+01 3.06311023208614e-01
1.67656250000000e-02 8.57939355028450e+01 3.06789563160482e-01
1.69968750000000e-02 8.53332613942910e+01 3.07239614168179e-01
1.72281250000000e-02 8.48750608945422e+01 3.07661840157757e-01
1.74593750000000e-02 8.44193207214530e+01 3.08056885393239e-01
1.76906250000000e-02 8.39660276641972e+01 3.08425375303612e-01
1.79218750000000e-02 8.35151685828844e+01 3.08767917263626e-01
1.81531250000000e-02 8.30667304081794e+01 3.09085101331716e-01
1.83843750000000e-02 8.26207001409233e+01 3.09377500947875e-01
1.86156250000000e-02 8.21770648517569e+01 3.09645673594214e-01
1.88468750000000e-02 8.17358116807456e+01 3.09890161420579e-01
1.90781250000000e-02 8.12969278370068e+01 3.10111491837632e-01
1.93093750000000e-02 8.08604005983391e+01 3.10310178079468e-01
1.95406250000000e-02 8.04262173108534e+01 3.10486719737536e-01
1.97718750000000e-02 7.99943653886062e+01 3.10641603267915e-01
2.00031250000000e-02 7.95648323132349e+01 3.10775302473496e-01
2.02343750000000e-02 7.91376056335947e+01 3.10888278962516e-01
2.04656250000000e-02 7.87126729653975e+01 3.10980982585011e-01
2.06968750000000e-02 7.82900219908535e+01 3.11053851848470e-01
2.09281250000000e-02 7.78696404583136e+01 3.11107314313908e-01
2.11593750000000e-02 7.74515161819144e+01 3.11141786973481e-01
2.13906250000000e-02 7.70356370412252e+01 3.11157676610740e-01
2.16218750000000e-02 7.66219909808964e+01 3.11155380144561e-01
2.18531250000000e-02 7.62105660103098e+01 3.11135284957575e-01
2.20843750000000e-02 7.58013502032317e+01 3.11097769210023e-01
2.23156250000000e-02 7.53943316974666e+01 3.11043202139846e-01
2.25468750000000e-02 7.49894986945136e+01 3.10971944349768e-01
2.27781250000000e-02 7.45868394592245e+01 3.10884348082044e-01
2.30093750000000e-02 7.41863423194633e+01 3.10780757481524e-01
2.32406250000000e-02 7.37879956657679e+01 3.10661508847701e-01
2.34718750000000e-02 7.33917879510140e+01 3.10526930876294e-01
2.37031250000000e-02 7.29977076900798e+01 3.10377344890928e-01
2.39343750000000e-02 7.26057434595135e+01 3.10213065065353e-01
2.41656250000000e-02 7.22158838972020e+01 3.10034398636771e-01
2.43968750000000e-02 7.18281177020413e+01 3.09841646110634e-01
2.46281250000000e-02 7.14424336336095e+01 3.09635101457451e-01
2.48593750000000e-02 7.10588205118404e+01 3.09415052301882e-01
2.50906250000000e-02 7.06772672166996e+01 3.09181780104502e-01
2.53218750000000e-02 7.02977626878624e+01 3.08935560336730e-01
2.55531250000000e-02 6.99202959243928e+01 3.08676662649063e-01
2.57843750000000e-02 6.95448559844247e+01 3.08405351033010e-01
2.60156250000000e-02 6.91714319848450e+01 3.08121883977094e-01
2.62468750000000e-02 6.88000131009778e+01 3.07826514617092e-01
2.64781250000000e-02 6.84305885662709e+01 3.07519490880833e-01
2.67093750000000e-02 6.80631476719835e+01 3.07201055627788e-01
2.69406250000000e-02 6.76976797668756e+01 3.06871446783670e-01
2.71718750000000e-02 6.73341742568998e+01 3.06530897470280e-01
2.74031250000000e-02 6.69726206048937e+01 3.06179636130839e-01
2.76343750000000e-02 6.66130083302747e+01 3.05817886650954e-01
2.78656250000000e-02 6.62553270087360e+01 3.05445868475478e-01
2.80968750000000e-02 6.58995662719447e+01 3.05063796721356e-01
2.83281250000000e-02 6.55457158072411e+01 3.04671882286647e-01
2.85593750000000e-02 6.51937653573396e+01 3.04270331956029e-01
2.87906250000000e-02 6.48437047200316e+01 3.03859348502631e-01
2.90218750000000e-02 6.44955237478898e+01 3.03439130786652e-01
2.92531250000000e-02 6.41492123479738e+01 3.03009873850779e-01
2.94843750000000e-02 6.38047604815377e+01 3.02571769012481e-01
2.97156250000000e-02 6.34621581637390e+01 3.02125003953378e-01
2.99468750000000e-02 6.31213954633494e+01 3.01669762805721e-01
3.01781250000000e-02 6.27824625024666e+01 3.01206226236274e-01
3.04093750000000e-02 6.24453494562280e+01 3.00734571527515e-01
3.06406250000000e-02 6.21100465525264e+01 3.00254972656325e-01
3.08718750000000e-02 6.17765440717258e+01 2.99767600370285e-01
3.11031250000000e-02 6.14448323463807e+01 2.99272622261688e-01
3.13343750000000e-02 6.11149017609550e+01 2.98770202839251e-01
3.15656250000000e-02 6.07867427515438e+01 2.98260503597734e-01
3.17968750000000e-02 6.04603458055959e+01 2.97743683085529e-01
3.20281250000000e-02 6.01357014616383e+01 2.97219896970219e-01
3.22593750000000e-02 5.98128003090015e+01 2.96689298102213e-01
3.24906250000000e-02 5.94916329875471e+01 2.96152036576569e-01
3.27218750000000e-02 5.91721901873965e+01 2.95608259793048e-01
3.29531250000000e-02 5.88544626486607e+01 2.95058112514473e-01
3.31843750000000e-02 5.85384411611722e+01 2.94501736923383e-01
3.34156250000000e-02 5.82241165642177e+01 2.93939272677151e-01
3.36468750000000e-02 5.79114797462728e+01 2.93370856961569e-01
3.38781250000000e-02 5.76005216447380e+01 2.92796624542939e-01
3.41093750000000e-02 5.72912332456755e+01 2.92216707818729e-01
3.43406250000000e-02 5.69836055835485e+01 2.91631236866869e-01
3.45718750000000e-02 5.66776297409607e+01 2.91040339493722e-01
3.48031250000000e-02 5.63732968483985e+01 2.90444141280758e-01
3.50343750000000e-02 5.60705980839733e+01 2.89842765629970e-01
3.52656250000000e-02 5.57695246731659e+01 2.89236333808140e-01
3.54968750000000e-02 5.54700678885725e+01 2.88624964989903e-01
3.57281250000000e-02 5.51722190496513e+01 2.88008776299750e-01
3.59593750000000e-02 5.48759695224710e+01 2.87387882852841e-01
3.61906250000000e-02 5.45813107194608e+01 2.86762397794830e-01
3.64218750000000e-02 5.42882340991608e+01 2.86132432340763e-01
3.66531250000000e-02 5.39967311659753e+01 2.85498095812839e-01
3.68843750000000e-02 5.37067934699256e+01 2.84859495677303e-01
3.71156250000000e-02 5.34184126064059e+01 2.84216737580440e-01
3.73468750000000e-02 5.31315802159391e+01 2.83569925383641e-01
3.75781250000000e-02 5.28462879839347e+01 2.82919161197577e-01
3.78093750000000e-02 5.25625276404475e+01 2.82264545415580e-01
3.80406250000000e-02 5.22802909599386e+01 2.81606176746269e-01
3.82718750000000e-02 5.19995697610361e+01 2.80944152245291e-01
3.85031250000000e-02 5.17203559062983e+01 2.80278567346288e-01
3.87343750000000e-02 5.14426413019782e+01 2.79609515891259e-01
3.89656250000000e-02 5.11664178977881e+01 2.78937090160097e-01
3.91968750000000e-02 5.08916776866668e+01 2.78261380899441e-01
3.94281250000000e-02 5.06184127045475e+01 2.77582477350887e-01
3.96593750000000e-02 5.03466150301265e+01 2.76900467278523e-01
3.98906250000000e-02 5.00762767846341e+01 2.76215436995838e-01
4.01218750000000e-02 4.98073901316059e+01 2.75527471392031e-01
4.03531250000000e-02 4.95399472766558e+01 2.74836653957690e-01
4.05843750000000e-02 4.92739404672498e+01 2.74143066809892e-01
4.08156250000000e-02 4.90093619924816e+01 2.73446790716771e-01
4.10468750000000e-02 4.87462041828489e+01 2.72747905121497e-01
4.12781250000000e-02 4.84844594100311e+01 2.72046488165766e-01
4.15093750000000e-02 4.82241200866682e+01 2.71342616712723e-01
4.17406250000000e-02 4.79651786661408e+01 2.70636366369426e-01
4.19718750000000e-02 4.77076276423514e+01 2.69927811508781e-01
4.22031250000000e-02 4.74514595495070e+01 2.69217025291016e-01
4.24343750000000e-02 4.71966669619022e+01 2.68504079684741e-01
4.26656250000000e-02 4.69432424937043e+01 2.67789045487455e-01
4.28968750000000e-02 4.66911787987393e+01 2.67071992345701e-01
4.31281250000000e-02 4.64404685702785e+01 2.66352988774777e-01
4.33593750000000e-02 4.61911045408274e+01 2.65632102177981e-01
4.35906250000000e-02 4.59430794819142e+01 2.64909398865506e-01
4.38218750000000e-02 4.56963862038810e+01 2.64184944072945e-01
4.40531250000000e-02 4.54510175556747e+01 2.63458801979389e-01
4.42843750000000e-02 4.52069664246404e+01 2.62731035725114e-01
4.45156250000000e-02 4.49642257363149e+01 2.62001707428992e-01
4.47468750000000e-02 4.47227884542213e+01 2.61270878205489e-01
4.49781250000000e-02 4.44826475796658e+01 2.60538608181324e-01
4.52093750000000e-02 4.42437961515340e+01 2.59804956511812e-01
4.54406250000000e-02 4.40062272460897e+01 2.59069981396866e-01
4.56718750000000e-02 4.37699339767739e+01 2.58333740096651e-01
4.59031250000000e-02 4.35349094940054e+01 2.57596288946977e-01
4.61343750000000e-02 4.33011469849819e+01 2.56857683374400e-01
4.63656250000000e-02 4.30686396734828e+01 2.56117977910897e-01
4.65968750000000e-02 4.28373808196729e+01 2.55377226208432e-01
4.68281250000000e-02 4.26073637199066e+01 2.54635481053153e-01
4.70593750000000e-02 4.23785817065337e+01 2.53892794379258e-01
4.72906250000000e-02 4.21510281477066e+01 2.53149217282691e-01
4.75218750000000e-02 4.19246964471874e+01 2.52404800034544e-01
4.77531250000000e-02 4.16995800441570e+01 2.51659592094192e-01
4.79843750000000e-02 4.14756724130250e+01 2.50913642122140e-01
4.82156250000000e-02 4.12529670632404e+01 2.50166997992701e-01
4.84468750000000e-02 4.10314575391033e+01 2.49419706806442e-01
4.86781250000000e-02 4.08111374195783e+01 2.48671814902307e-01
4.89093750000000e-02 4.05920003181077e+01 2.47923367869535e-01
4.91406250000000e-02 4.03740398824268e+01 2.47174410559464e-01
4.93718750000000e-02 4.01572497943796e+01 2.46424987097006e-01
4.96031250000000e-02 3.99416237697359e+01 2.45675140891933e-01
4.98343750000000e-02 3.97271555580087e+01 2.44924914649977e-01
5.00656250000000e-02 3.95138389422734e+01 2.44174350383715e-01
5.02968750000000e-02 3.93016677389872e+01 2.43423489423281e-01
5.05281250000000e-02 3.90906357978105e+01 2.42672372426851e-01
5.07593750000000e-02 3.88807370014279e+01 2.41921039390930e-01
5.09906250000000e-02 3.86719652653711e+01 2.41169529660541e-01
5.12218750000000e-02 3.84643145378430e+01 2.40417881939110e-01
5.14531250000000e-02 3.82577787995415e+01 2.39666134298245e-01
5.16843750000000e-02 3.80523520634855e+01 2.38914324187327e-01
5.19156250000000e-02 3.78480283748413e+01 2.38162488442974e-01
5.21468750000000e-02 3.76448018107500e+01 2.37410663298320e-01
5.23781250000000e-02 3.74426664801554e+01 2.36658884392003e-01
5.26093750000000e-02 3.72416165236341e+01 2.35907186777199e-01
5.28406250000000e-02 3.70416461132246e+01 2.35155604930403e-01
5.30718750000000e-02 3.68427494522592e+01 2.34404172760053e-01
5.33031250000000e-02 3.66449207751956e+01 2.33652923615029e-01
5.35343750000000e-02 3.64481543474497e+01 2.32901890292959e-01
5.37656250000000e-02 3.62524444652296e+01 2.32151105048457e-01
5.39968750000000e-02 3.60577854553701e+01 2.31400599601184e-01
5.42281250000000e-02 3.58641716751683e+01 2.30650405143727e-01
5.44593750000000e-02 3.56715975122200e+01 2.29900552349450e-01
5.46906250000000e-02 3.54800573842572e+01 2.29151071380141e-01
5.49218750000000e-02 3.52895457389859e+01 2.28401991893512e-01
5.51531250000000e-02 3.51000570539254e+01 2.27653343050644e-01
5.53843750000000e-02 3.49115858362484e+01 2.26905153523240e-01
5.56156250000000e-02 3.47241266226214e+01 2.26157451500836e-01
5.58468750000000e-02 3.45376739790464e+01 2.25410264697817e-01
5.60781250000000e-02 3.43522225007038e+01 2.24663620360307e-01
5.63093750000000e-02 3.41677668117950e+01 2.23917545273088e-01
5.65406250000000e-02 3.39843015653873e+01 2.23172065766249e-01
5.67718750000000e-02 3.38018214432584e+01 2.22427207721740e-01
5.70031250000000e-02 3.36203211557426e+01 2.21682996579938e-01
5.72343750000000e-02 3.34397954415769e+01 2.20939457346015e-01
5.74656250000000e-02 3.32602390677493e+01 2.20196614596196e-01
5.76968750000000e-02 3.30816468293465e+01 2.19454492483955e-01
5.79281250000000e-02 3.29040135494032e+01 2.18713114746134e-01
5.81593750000000e-02 3.27273340787519e+01 2.17972504708886e-01
5.83906250000000e-02 3.25516032958740e+01 2.17232685293584e-01
5.86218750000000e-02 3.23768161067510e+01 2.16493679022642e-01
5.88531250000000e-02 3.22029674447169e+01 2.15755508025180e-01
5.90843750000000e-02 3.20300522703115e+01 2.15018194042694e-01
5.93156250000000e-02 3.18580655711341e+01 2.14281758434559e-01
5.95468750000000e-02 3.16870023616982e+01 2.13546222183474e-01
5.97781250000000e-02 3.15168576832873e+01 2.12811605900853e-01
6.00093750000000e-02 3.13476266038108e+01 2.12077929832068e-01
6.02406250000000e-02 3.11793042176612e+01 2.11345213861651e-01
6.04718750000000e-02 3.10118856455718e+01 2.10613477518435e-01
6.07031250000000e-02 3.08453660344754e+01 2.09882739980585e-01
6.09343750000000e-02 3.06797405573635e+01 2.09153020080535e-01
6.11656250000000e-02 3.05150044131464e+01 2.08424336309886e-01
6.13968750000000e-02 3.03511528265142e+01 2.07696706824231e-01
6.16281250000000e-02 3.01881810477981e+01 2.06970149447893e-01
6.18593750000000e-02 3.00260843528329e+01 2.06244681678586e-01
6.20906250000000e-02 2.98648580428198e+01 2.05520320691991e-01
6.23218750000000e-02 2.97044974441908e+01 2.04797083346318e-01
6.25531250000000e-02 2.95449979084724e+01 2.04074986186764e-01
6.27843750000000e-02 2.93863548121515e+01 2.03354045449864e-01
6.30156250000000e-02 2.92285635565411e+01 2.02634277067856e-01
6.32468750000000e-02 2.90716195676470e+01 2.01915696672936e-01
6.34781250000000e-02 2.89155182960354e+01 2.01198319601465e-01
6.37093750000000e-02 2.87602552167007e+01 2.00482160898107e-01
6.39406250000000e-02 2.86058258289346e+01 1.99767235319887e-01
6.41718750000000e-02 2.84522256561955e+01 1.99053557340220e-01
6.44031250000000e-02 2.82994502459787e+01 1.98341141152865e-01
6.46343750000000e-02 2.81474951696876e+01 1.97630000675841e-01
6.48656250000000e-02 2.79963560225051e+01 1.96920149555271e-01
6.50968750000000e-02 2.78460284232657e+01 1.96211601169139e-01
6.53281250000000e-02 2.76965080143291e+01 1.95504368631043e-01
6.55593750000000e-02 2.75477904614533e+01 1.94798464793897e-01
6.57906250000000e-02 2.73998714536692e+01 1.94093902253521e-01
6.60218750000000e-02 2.72527467031557e+01 1.93390693352189e-01
6.62531250000000e-02 2.71064119451154e+01 1.92688850182227e-01
6.64843750000000e-02 2.69608629376507e+01 1.91988384589452e-01
6.67156250000000e-02 2.68160954616414e+01 1.91289308176572e-01
6.69468750000000e-02 2.66721053206215e+01 1.90591632306574e-01
6.71781250000000e-02 2.65288883406587e+01 1.89895368106064e-01
6.74093750000000e-02 2.63864403702323e+01 1.89200526468509e-01
6.76406250000000e-02 2.62447572801137e+01 1.88507118057505e-01
6.78718750000000e-02 2.61038349632462e+01 1.87815153309951e-01
6.81031250000000e-02 2.59636693346262e+01 1.87124642439158e-01
6.83343750000000e-02 2.58242563311845e+01 1.86435595438001e-01
6.85656250000000e-02 2.56855919116691e+01 1.85748022081943e-01
6.87968750000000e-02 2.55476720565273e+01 1.85061931932040e-01
6.90281250000000e-02 2.54104927677897e+01 1.84377334337935e-01
6.92593750000000e-02 2.52740500689542e+01 1.83694238440756e-01
6.94906250000000e-02 2.51383400048707e+01 1.83012653176000e-01
6.97218750000000e-02 2.50033586416262e+01 1.82332587276392e-01
6.99531250000000e-02 2.48691020664314e+01 1.81654049274704e-01
7.01843750000000e-02 2.47355663875067e+01 1.80977047506514e-01
7.04156250000000e-02 2.46027477339694e+01 1.80301590112935e-01
7.06468750000000e-02 2.44706422557220e+01 1.79627685043281e-01
7.08781250000000e-02 2.43392461233400e+01 1.78955340057764e-01
7.11093750000000e-02 2.42085555279612e+01 1.78284562730091e-01
7.13406250000000e-02 2.40785666811754e+01 1.77615360450037e-01
7.15718750000000e-02 2.39492758149143e+01 1.76947740426015e-01
7.18031250000000e-02 2.38206791813423e+01 1.76281709687577e-01
7.20343750000000e-02 2.36927730527482e+01 1.75617275087888e-01
7.22656250000000e-02 2.35655537214367e+01 1.74954443306174e-01
7.24968750000000e-02 2.34390174996213e+01 1.74293220850150e-01
7.27281250000000e-02 2.33131607193170e+01 1.73633614058369e-01
7.29593750000000e-02 2.31879797322343e+01 1.72975629102578e-01
