Energy (eV)          EEDF (eV^-(3/2))     First Anisotropy
3.27142857142857e-03 2.27582189892404e+01 2.83845042475654e-02
9.81428571428571e-03 2.16632941015507e+01 4.58976763645387e-02
1.63571428571429e-02 2.06210473461774e+01 5.80654803948179e-02
2.29000000000000e-02 1.96289443198375e+01 6.58971920951162e-02
2.94428571428571e-02 1.86845725439898e+01 7.13447687856584e-02
3.59857142857143e-02 1.77856356147898e+01 7.51961519083973e-02
4.25285714285714e-02 1.69299476055362e+01 7.78829539606453e-02
4.90714285714286e-02 1.61154277613836e+01 7.96789849036277e-02
5.56142857142857e-02 1.53400954327335e+01 8.07736726250728e-02
6.21571428571429e-02 1.46020652607044e+01 8.13057326977950e-02
6.87000000000000e-02 1.38995425953203e+01 8.13808649202677e-02
7.52428571428571e-02 1.32308191275274e+01 8.10819841179170e-02
8.17857142857143e-02 1.25942687386302e+01 8.04755688357848e-02
8.83285714285714e-02 1.19883435430223e+01 7.96158233405248e-02
9.48714285714286e-02 1.14115701269535e+01 7.85475284214372e-02
1.01414285714286e-01 1.08625459636853e+01 7.73080655053081e-02
1.07957142857143e-01 1.03399360044899e+01 7.59288973349063e-02
1.14500000000000e-01 9.84246943018454e+00 7.44366788727011e-02
1.21042857142857e-01 9.36893655949471e+00 7.28541084582274e-02
1.27585714285714e-01 8.91818591699589e+00 7.12005929339873e-02
1.34128571428571e-01 8.48912142258864e+00 6.94927754341649e-02
1.40671428571429e-01 8.08069972990379e+00 6.77449596200667e-02
1.47214285714286e-01 7.69192768919601e+00 6.59694556622770e-02
1.53757142857143e-01 7.32185993236881e+00 6.41768650684316e-02
1.60300000000000e-01 6.96959657411335e+00 6.23763175468693e-02
1.66842857142857e-01 6.63428102207065e+00 6.05756694049368e-02
1.73385714285714e-01 6.31509789892035e+00 5.87816714056091e-02
1.79928571428571e-01 6.01127105434599e+00 5.70001115573902e-02
1.86471428571429e-01 5.72206167954890e+00 5.52359369774281e-02
1.93014285714286e-01 5.44676651069408e+00 5.34933589429509e-02
1.99557142857143e-01 5.18471611881787e+00 5.17759436201831e-02
2.06100000000000e-01 4.93527328198081e+00 5.00866908401207e-02
2.12642857142857e-01 4.69783143486034e+00 4.84281025967934e-02
2.19185714285714e-01 4.47181319656419e+00 4.68022430813212e-02
2.25728571428571e-01 4.25666896371178e+00 4.52107913383634e-02
2.32271428571429e-01 4.05187557499522e+00 4.36550873672521e-02
2.38814285714286e-01 3.85693503901562e+00 4.21361728971170e-02
2.45357142857143e-01 3.67137332333717e+00 4.06548273581768e-02
2.51900000000000e-01 3.49473920178796e+00 3.92115997278552e-02
2.58442857142857e-01 3.32660315670686e+00 3.78068366682981e-02
2.64985714285714e-01 3.16655633611060e+00 3.64407075967355e-02
2.71528571428571e-01 3.01420955781075e+00 3.51132269722846e-02
2.78071428571429e-01 2.86919236363654e+00 3.38242739933657e-02
2.84614285714286e-01 2.73115211859808e+00 3.25736102260057e-02
2.91157142857143e-01 2.59975315339608e+00 3.13608952802583e-02
2.97700000000000e-01 2.47467594817991e+00 3.01857007922682e-02
3.04242857142857e-01 2.35561635526814e+00 2.90475228321613e-02
3.10785714285714e-01 2.24228486052846e+00 2.79457930302565e-02
3.17328571428571e-01 2.13440587836260e+00 2.68798885029970e-02
3.23871428571429e-01 2.03171708192275e+00 2.58491406180198e-02
3.30414285714286e-01 1.93396876521626e+00 2.48528428648450e-02
3.36957142857143e-01 1.84092323590344e+00 2.38902578464425e-02
3.43500000000000e-01 1.75235423730528e+00 2.29606235078821e-02
3.50042857142857e-01 1.66804639802943e+00 2.20631586360789e-02
3.56585714285714e-01 1.58779470885152e+00 2.11970677847013e-02
3.63128571428571e-01 1.51140402357933e+00 2.03615456451298e-02
3.69671428571429e-01 1.43868858473563e+00 1.95557808608886e-02
3.76214285714286e-01 1.36947157185536e+00 1.87789594369069e-02
3.82757142857143e-01 1.30358467151654e+00 1.80302677325657e-02
3.89300000000000e-01 1.24086766805568e+00 1.73088950969065e-02
3.95842857142857e-01 1.18116805385568e+00 1.66140361522941e-02
4.02385714285714e-01 1.12434065886847e+00 1.59448928146677e-02
4.08928571428571e-01 1.07024729722139e+00 1.53006760519100e-02
4.15471428571429e-01 1.01875643132807e+00 1.46806073675594e-02
4.22014285714286e-01 9.69742852031259e-01 1.40839201009582e-02
4.28557142857143e-01 9.23087374135155e-01 1.35098605279944e-02
4.35100000000000e-01 8.78676546585158e-01 1.29576887937915e-02
4.41642857142857e-01 8.36402376515837e-01 1.24266796747549e-02
4.48185714285714e-01 7.96162066882901e-01 1.19161232229183e-02
4.54728571428571e-01 7.57857766248880e-01 1.14253252882875e-02
4.61271428571429e-01 7.21396330925064e-01 1.09536079057584e-02
4.67814285714286e-01 6.86689098475943e-01 1.05003096033505e-02
4.74357142857143e-01 6.53651672121171e-01 1.00647856172934e-02
4.80900000000000e-01 6.22203715509629e-01 9.64640803152215e-03
4.87442857142857e-01 5.92268757318827e-01 9.24456583667428e-03
4.93985714285714e-01 5.63774005452438e-01 8.85866494136752e-03
5.00528571428571e-01 5.36650169876424e-01 8.48812813031401e-03
5.07071428571429e-01 5.10831294182487e-01 8.13239495786590e-03
5.13614285714286e-01 4.86254595203274e-01 7.79092161311086e-03
5.20157142857143e-01 4.62860310344205e-01 7.46318074485796e-03
5.26700000000000e-01 4.40591552260018e-01 7.14866125660527e-03
5.33242857142857e-01 4.19394170491712e-01 6.84686806656207e-03
5.39785714285714e-01 3.99216619887836e-01 6.55732185342456e-03
5.46328571428571e-01 3.80009835161835e-01 6.27955878290211e-03
5.52871428571429e-01 3.61727111616297e-01 6.01313020603467e-03
5.59414285714286e-01 3.44323991572135e-01 5.75760235262773e-03
5.65957142857143e-01 3.27758156262008e-01 5.51255601088889e-03
5.72500000000000e-01 3.11989322924664e-01 5.27758619915671e-03
5.79042857142857e-01 2.96979146829808e-01 5.05230182550284e-03
5.85585714285714e-01 2.82691128099771e-01 4.83632534845447e-03
5.92128571428571e-01 2.69090522887495e-01 4.62929243470932e-03
5.98671428571429e-01 2.56144258913613e-01 4.43085160706541e-03
6.05214285714286e-01 2.43820855045306e-01 4.24066389778353e-03
6.11757142857143e-01 2.32090344744434e-01 4.05840250074519e-03
6.18300000000000e-01 2.20924203198548e-01 3.88375242587187e-03
6.24842857142857e-01 2.10295277944329e-01 3.71641015243108e-03
6.31385714285714e-01 2.00177722883323e-01 3.55608328978724e-03
6.37928571428571e-01 1.90546935389244e-01 3.40249024236142e-03
6.44471428571429e-01 1.81379496497333e-01 3.25535987377636e-03
6.51014285714286e-01 1.72653113956979e-01 3.11443118018900e-03
6.57557142857143e-01 1.64346568024208e-01 2.97945296794310e-03
6.64100000000000e-01 1.56439659862094e-01 2.85018353758551e-03
6.70642857142857e-01 1.48913162414856e-01 2.72639037164205e-03
6.77185714285714e-01 1.41748773681399e-01 2.60784983171972e-03
6.83728571428571e-01 1.34929072182192e-01 2.49434686246846e-03
6.90271428571429e-01 1.28437474605744e-01 2.38567469872529e-03
6.96814285714286e-01 1.22258195483332e-01 2.28163458245033e-03
7.03357142857143e-01 1.16376208803871e-01 2.18203548591874e-03
7.09900000000000e-01 1.10777211475484e-01 2.08669384236929e-03
7.16442857142857e-01 1.05447588539140e-01 1.99543328214191e-03
7.22985714285714e-01 1.00374380079708e-01 1.90808437794390e-03
7.29528571428571e-01 9.55452496927110e-02 1.82448439739628e-03
7.36071428571429e-01 9.09484544927201e-02 1.74447706018906e-03
7.42614285714286e-01 8.65728165584403e-02 1.66791230423226e-03
7.49157142857143e-01 8.24076957516350e-02 1.59464605824858e-03
7.55700000000000e-01 7.84429638437350e-02 1.52454002150661e-03
7.62242857142857e-01 7.46689798833529e-02 1.45746144922855e-03
7.68785714285714e-01 7.10765667647390e-02 1.39328294606053e-03
7.75328571428571e-01 6.76569888994385e-02 1.33188226623599e-03
7.81871428571429e-01 6.44019309785160e-02 1.27314211850174e-03
7.88414285714286e-01 6.13034777524033e-02 1.21694997872789e-03
7.94957142857143e-01 5.83540947835808e-02 1.16319790836386e-03
8.01500000000000e-01 5.55466101252519e-02 1.11178237914119e-03
8.08042857142857e-01 5.28741968788766e-02 1.06260410294038e-03
8.14585714285714e-01 5.03303566014628e-02 1.01556786839330e-03
8.21128571428571e-01 4.79089034950502e-02 9.70582383214175e-04
8.27671428571429e-01 4.56039493677528e-02 9.27560120869063e-04
8.34214285714286e-01 4.34098893155747e-02 8.86417173534102e-04
8.40757142857143e-01 4.13213880931010e-02 8.47073110024026e-04
8.47300000000000e-01 3.93333671398995e-02 8.09450838914515e-04
8.53842857142857e-01 3.74409922293552e-02 7.73476476064406e-04
8.60385714285714e-01 3.56396617188205e-02 7.39079217573646e-04
8.66928571428571e-01 3.39249953542792e-02 7.06191217440960e-04
8.73471428571429e-01 3.22928236209297e-02 6.74747468922443e-04
8.80014285714286e-01 3.07391776042689e-02 6.44685690896200e-04
8.86557142857143e-01 2.92602793389789e-02 6.15946218288568e-04
8.93100000000000e-01 2.78525326221325e-02 5.88471896681859e-04
8.99642857142857e-01 2.65125142672153e-02 5.62207980523941e-04
9.06185714285714e-01 2.52369657836888e-02 5.37102035623606e-04
9.12728571428571e-01 2.40227854496137e-02 5.13103845395777e-04
9.19271428571429e-01 2.28670207705705e-02 4.90165320140378e-04
9.25814285714286e-01 2.17668613001458e-02 4.68240410229602e-04
9.32357142857143e-01 2.07196318058369e-02 4.47285022528079e-04
9.38900000000000e-01 1.97227857637483e-02 4.27256940105959e-04
9.45442857142857e-01 1.87738991654778e-02 4.08115744823198e-04
9.51985714285714e-01 1.78706646261672e-02 3.89822743237079e-04
9.58528571428571e-01 1.70108857711418e-02 3.72340895443922e-04
9.65071428571429e-01 1.61924718959165e-02 3.55634746342126e-04
9.71614285714286e-01 1.54134328822770e-02 3.39670359903648e-04
9.78157142857143e-01 1.46718743589568e-02 3.24415255971246e-04
9.84700000000000e-01 1.39659930951367e-02 3.09838349607712e-04
9.91242857142857e-01 1.32940726150365e-02 2.95909892691167e-04
9.97785714285714e-01 1.26544790256583e-02 2.82601417942639e-04
1.00432857142857e+00 1.20456570433957e-02 2.69885685786072e-04
1.01087142857143e+00 1.14661262068978e-02 2.57736632188965e-04
1.01741428571429e+00 1.09144772845585e-02 2.46129318643982e-04
1.02395714285714e+00 1.03893688486220e-02 2.35039886398712e-04
1.03050000000000e+00 9.88952400069983e-03 2.24445509971506e-04
1.03704285714286e+00 9.41372727974906e-03 2.14324352649536e-04
1.04358571428571e+00 8.96082170198875e-03 2.04655525531731e-04
1.05012857142857e+00 8.52970595073771e-03 1.95419047730677e-04
1.05667142857143e+00 8.11933168830407e-03 1.86595807295473e-04
1.06321428571429e+00 7.72870101716767e-03 1.78167523362965e-04
1.06975714285714e+00 7.35686405258323e-03 1.70116712391599e-04
1.07630000000000e+00 7.00291660425436e-03 1.62426653390521e-04
1.08284285714286e+00 6.66599798643158e-03 1.55081354780123e-04
1.08938571428571e+00 6.34528892197074e-03 1.48065523824068e-04
1.09592857142857e+00 6.04000955231908e-03 1.41364536974253e-04
1.10247142857143e+00 5.74941753432452e-03 1.34964410819231e-04
1.10901428571429e+00 5.47280624215217e-03 1.28851773982265e-04
1.11555714285714e+00 5.20950304843533e-03 1.23013841942605e-04
1.12210000000000e+00 4.95886768288363e-03 1.17438391248827e-04
1.12864285714286e+00 4.72029068132447e-03 1.12113734946949e-04
1.13518571428571e+00 4.49319190162479e-03 1.07028699871067e-04
1.14172857142857e+00 4.27701911447007e-03 1.02172604642603e-04
1.14827142857143e+00 4.07124665588216e-03 9.75352381594427e-05
1.15481428571429e+00 3.87537415376852e-03 9.31068388113880e-05
1.16135714285714e+00 3.68892531079708e-03 8.88780757877818e-05
1.16790000000000e+00 3.51144674226483e-03 8.48400300242347e-05
1.17444285714286e+00 3.34250687767378e-03 8.09841760498791e-05
1.18098571428571e+00 3.18169490989134e-03 7.73023651818405e-05
1.18752857142857e+00 3.02861979721910e-03 7.37868092635028e-05
1.19407142857143e+00 2.88290930934839e-03 7.04300647919585e-05
1.20061428571429e+00 2.74420912547954e-03 6.72250175962288e-05
1.20715714285714e+00 2.61218197246880e-03 6.41648690123250e-05
1.21370000000000e+00 2.48650680201214e-03 6.12431218496696e-05
1.22024285714286e+00 2.36687801272558e-03 5.84535670225818e-05
1.22678571428571e+00 2.25300470606803e-03 5.57902711551365e-05
1.23332857142857e+00 2.14460997966468e-03 5.32475645995680e-05
1.23987142857143e+00 2.04143025181760e-03 5.08200297589213e-05
1.24641428571429e+00 1.94321462278458e-03 4.85024898244690e-05
1.25295714285714e+00 1.84972426449552e-03 4.62899985836914e-05
1.25950000000000e+00 1.76073183797388e-03 4.41778301122359e-05
1.26604285714286e+00 1.67602094240844e-03 4.21614689554780e-05
1.27258571428571e+00 1.59538558828621e-03 4.02366010126335e-05
1.27912857142857e+00 1.51862969696667e-03 3.83991047330671e-05
1.28567142857143e+00 1.44556662241266e-03 3.66450425475211e-05
1.29221428571429e+00 1.37601869884593e-03 3.49706526098998e-05
1.29875714285714e+00 1.30981680860111e-03 3.33723413045133e-05
1.30530000000000e+00 1.24679996963908e-03 3.18466756926707e-05
1.31184285714286e+00 1.18681494537933e-03 3.03903763187055e-05
1.31838571428571e+00 1.12971587163400e-03 2.90003105226248e-05
1.32492857142857e+00 1.07536390223737e-03 2.76734859870251e-05
1.33147142857143e+00 1.02362687041270e-03 2.64070444636220e-05
1.33801428571429e+00 9.74378968423093e-04 2.51982557311915e-05
1.34455714285714e+00 9.27500441565726e-04 2.40445121006823e-05
1.35110000000000e+00 8.82877296114199e-04 2.29433228919825e-05
1.35764285714286e+00 8.40401023003947e-04 2.18923091739291e-05
1.36418571428571e+00 7.99968333669508e-04 2.08891988693575e-05
1.37072857142857e+00 7.61480909101913e-04 1.99318220350503e-05
1.37727142857143e+00 7.24845160081401e-04 1.90181062779287e-05
1.38381428571429e+00 6.89972000308904e-04 1.81460723429747e-05
1.39035714285714e+00 6.56776629720887e-04 1.73138300921935e-05
1.39690000000000e+00 6.25178327699035e-04 1.65195744734453e-05
1.40344285714286e+00 5.95100257387218e-04 1.57615816816652e-05
1.40998571428571e+00 5.66469278641114e-04 1.50382055829161e-05
1.41652857142857e+00 5.39215770326973e-04 1.43478742684557e-05
1.42307142857143e+00 5.13273460554690e-04 1.36890867114733e-05
1.42961428571429e+00 4.88579266012569e-04 1.30604095508204e-05
1.43615714285714e+00 4.65073138530733e-04 1.24604741541416e-05
1.44270000000000e+00 4.42697918663114e-04 1.18879736806111e-05
1.44924285714286e+00 4.21399197107760e-04 1.13416602840117e-05
1.45578571428571e+00 4.01125182258443e-04 1.08203425049318e-05
1.46232857142857e+00 3.81826574368430e-04 1.03228827592549e-05
1.46887142857143e+00 3.63456445346520e-04 9.84819490359421e-06
1.47541428571429e+00 3.45970124976803e-04 9.39524189435206e-06
1.48195714285714e+00 3.29325092268865e-04 8.96303364637199e-06
1.48850000000000e+00 3.13480871785834e-04 8.55062489594412e-06
1.49504285714286e+00 2.98398935504998e-04 8.15711316601684e-06
1.50158571428571e+00 2.84042609032288e-04 7.78163686740373e-06
1.50812857142857e+00 2.70376982493553e-04 7.42337347107929e-06
1.51467142857143e+00 2.57368825423352e-04 7.08153773787273e-06
1.52121428571429e+00 2.44986506188289e-04 6.75538001700081e-06
1.52775714285714e+00 2.33199915051097e-04 6.44418468715677e-06
1.53430000000000e+00 2.21980390764864e-04 6.14726860385084e-06
1.54084285714286e+00 2.11300651073051e-04 5.86397962107354e-06
1.54738571428571e+00 2.01134726300687e-04 5.59369521069923e-06
1.55392857142857e+00 1.91457896253672e-04 5.33582113422521e-06
1.56047142857143e+00 1.82246629954932e-04 5.08979015715651e-06
1.56701428571429e+00 1.73478528582103e-04 4.85506081388622e-06
1.57355714285714e+00 1.65132270988477e-04 4.63111627437703e-06
1.58010000000000e+00 1.57187561727201e-04 4.41746321744108e-06
1.58664285714286e+00 1.49625081833290e-04 4.21363075799378e-06
1.59318571428571e+00 1.42426441799976e-04 4.01916944451848e-06
1.59972857142857e+00 1.35574136895174e-04 3.83365029496516e-06
1.60627142857143e+00 1.29051504490873e-04 3.65666386422446e-06
1.61281428571429e+00 1.22842683653278e-04 3.48781934856454e-06
1.61935714285714e+00 1.16932576565650e-04 3.32674376275357e-06
1.62590000000000e+00 1.11306811726084e-04 3.17308112334469e-06
1.63244285714286e+00 1.05951709092851e-04 3.02649167111000e-06
1.63898571428571e+00 1.00854246787178e-04 2.88665114388596e-06
1.64552857142857e+00 9.60020294515274e-05 2.75325007758245e-06
1.65207142857143e+00 9.13832580359787e-05 2.62599313049963e-06
1.65861428571429e+00 8.69867011812759e-05 2.50459843465102e-06
1.66515714285714e+00 8.28016679019535e-05 2.38879699897610e-06
1.67170000000000e+00 7.88179815278876e-05 2.27833211794034e-06
1.67824285714286e+00 7.50259550213982e-05 2.17295880849985e-06
1.68478571428571e+00 7.14163673996267e-05 2.07244328324600e-06
1.69132857142857e+00 6.79804413281180e-05 1.97656244414714e-06
1.69787142857143e+00 6.47098217275060e-05 1.88510339344962e-06
1.70441428571429e+00 6.15965555079956e-05 1.79786296427726e-06
1.71095714285714e+00 5.86330722260016e-05 1.71464728826890e-06
1.71750000000000e+00 5.58121656329472e-05 1.63527136773488e-06
1.72404285714286e+00 5.31269761957370e-05 1.55955866834414e-06
1.73058571428571e+00 5.05709744015134e-05 1.48734073776670e-06
1.73712857142857e+00 4.81379448910438e-05 1.41845683935314e-06
1.74367142857143e+00 4.58219713107324e-05 1.35275359841707e-06
1.75021428571429e+00 4.36174219613487e-05 1.29008466286390e-06
1.75675714285714e+00 4.15189361007882e-05 1.23031039025330e-06
1.76330000000000e+00 3.95214108792911e-05 1.17329753854645e-06
1.76984285714286e+00 3.76199889611231e-05 1.11891897169973e-06
1.77638571428571e+00 3.58100467027088e-05 1.06705338387164e-06
1.78292857142857e+00 3.40871829170495e-05 1.01758503459039e-06
1.78947142857143e+00 3.24472081478355e-05 9.70403493158357e-07
1.79601428571429e+00 3.08861345064553e-05 9.25403393490414e-07
1.80255714285714e+00 2.94001659728324e-05 8.82484207815445e-07
1.80910000000000e+00 2.79856891445891e-05 8.41550023321200e-07
1.81564285714286e+00 2.66392644712336e-05 8.02509329526091e-07
1.82218571428571e+00 2.53576178831108e-05 7.65274818994306e-07
1.82872857142857e+00 2.41376328351866e-05 7.29763196028809e-07
1.83527142857143e+00 2.29763427123100e-05 6.95894992121185e-07
1.84181428571429e+00 2.18709236322165e-05 6.63594388980685e-07
1.84835714285714e+00 2.08186875774440e-05 6.32789055022189e-07
1.85490000000000e+00 1.98170758450344e-05 6.03409984169020e-07
1.86144285714286e+00 1.88636528389669e-05 5.75391342400156e-07
1.86798571428571e+00 1.79561001426229e-05 5.48670323859706e-07
1.87452857142857e+00 1.70922108847807e-05 5.23187012765656e-07
1.88107142857143e+00 1.62698843619543e-05 4.98884250252879e-07
1.88761428571429e+00 1.54871209418018e-05 4.75707506715317e-07
1.89415714285714e+00 1.47420171997588e-05 4.53604763750087e-07
1.90070000000000e+00 1.40327612809141e-05 4.32526397899976e-07
1.90724285714286e+00 1.33576285040957e-05 4.12425069983029e-07
1.91378571428571e+00 1.27149771645797e-05 3.93255621272609e-07
1.92032857142857e+00 1.21032445445088e-05 3.74974973888022e-07
1.92687142857143e+00 1.15209431050814e-05 3.57542034782926e-07
1.93341428571429e+00 1.09666568773841e-05 3.40917603719484e-07
1.93995714285714e+00 1.04390380185859e-05 3.25064288091987e-07
1.94650000000000e+00 9.93680352777620e-06 3.09946419133993e-07
1.95304285714286e+00 9.45873213298676e-06 2.95529972153472e-07
1.95958571428571e+00 9.00366131908662e-06 2.81782491674262e-07
1.96612857142857e+00 8.57048450265875e-06 2.68673019631246e-07
1.97267142857143e+00 8.15814833576271e-06 2.56172026185110e-07
1.97921428571429e+00 7.76565015009701e-06 2.44251343423184e-07
1.98575714285714e+00 7.39203551840064e-06 2.32884103945741e-07
1.99230000000000e+00 7.03639592899878e-06 2.22044680508108e-07
1.99884285714286e+00 6.69786658134494e-06 2.11708628564957e-07
2.00538571428571e+00 6.37562428146874e-06 2.01852632327497e-07
2.01192857142857e+00 6.06888544143664e-06 1.92454453033172e-07
2.01847142857143e+00 5.77690417019382e-06 1.83492879120258e-07
2.02501428571429e+00 5.49897046364825e-06 1.74947678490380e-07
2.03155714285714e+00 5.23440847787068e-06 1.66799554255296e-07
2.03810000000000e+00 4.98257488247991e-06 1.59030101284002e-07
2.04464285714286e+00 4.74285729955803e-06 1.51621764839624e-07
2.05118571428571e+00 4.51467281341236e-06 1.44557801730892e-07
2.05772857142857e+00 4.29746655394534e-06 1.37822243065134e-07
2.06427142857143e+00 4.09071034481061e-06 1.31399858384834e-07
