Energy (eV)          EEDF (eV^-(3/2))     First Anisotropy
1.31129032258065e-03 9.82924841697637e+00 6.24485750376911e-03
3.93387096774194e-03 9.72031071278819e+00 1.02894817032131e-02
6.55645161290323e-03 9.61258036707152e+00 1.35236659907027e-02
9.17903225806452e-03 9.50604399827502e+00 1.59447213845489e-02
1.18016129032258e-02 9.40068837347171e+00 1.79343554283765e-02
1.44241935483871e-02 9.29650040696950e+00 1.96378015454890e-02
1.70467741935484e-02 9.19346715687230e+00 2.11306705091752e-02
1.96693548387097e-02 9.09157582605652e+00 2.24588889795755e-02
2.22919354838710e-02 8.99081375809620e+00 2.36530918467542e-02
2.49145161290323e-02 8.89116843781212e+00 2.47350543389231e-02
2.75370967741936e-02 8.79262748787299e+00 2.57209861042746e-02
3.01596774193548e-02 8.69517866888626e+00 2.66233862800319e-02
3.27822580645161e-02 8.59880987670224e+00 2.74521645638970e-02
3.54048387096774e-02 8.50350914110979e+00 2.82153564916339e-02
3.80274193548387e-02 8.40926462506649e+00 2.89196004093262e-02
4.06500000000000e-02 8.31606462225269e+00 2.95704669511740e-02
4.32725806451613e-02 8.22389755652428e+00 3.01726935855217e-02
4.58951612903226e-02 8.13275197962957e+00 3.07303558758957e-02
4.85177419354839e-02 8.04261657057797e+00 3.12469952783825e-02
5.11403225806452e-02 7.95348013349238e+00 3.17257163480969e-02
5.37629032258065e-02 7.86533159691576e+00 3.21692618969708e-02
5.63854838709677e-02 7.77816001191939e+00 3.25800720456728e-02
5.90080645161290e-02 7.69195455079949e+00 3.29603310774302e-02
6.16306451612903e-02 7.60670450612106e+00 3.33120052497125e-02
6.42532258064516e-02 7.52239928886731e+00 3.36368735052682e-02
6.68758064516129e-02 7.43902842762022e+00 3.39365527031694e-02
6.94983870967742e-02 7.35658156678684e+00 3.42125185335588e-02
7.21209677419355e-02 7.27504846576491e+00 3.44661229865879e-02
7.47435483870968e-02 7.19441899723879e+00 3.46986090618890e-02
7.73661290322581e-02 7.11468314633516e+00 3.49111232312378e-02
7.99887096774194e-02 7.03583100898281e+00 3.51047260740464e-02
8.26112903225806e-02 6.95785279106247e+00 3.52804013908582e-02
8.52338709677419e-02 6.88073880690710e+00 3.54390641108551e-02
8.78564516129032e-02 6.80447947812173e+00 3.55815670688683e-02
9.04790322580645e-02 6.72906533262576e+00 3.57087069889235e-02
9.31016129032258e-02 6.65448700316647e+00 3.58212296867508e-02
9.57241935483871e-02 6.58073522645446e+00 3.59198346477964e-02
9.83467741935484e-02 6.50780084172463e+00 3.60051790718928e-02
1.00969354838710e-01 6.43567478987675e+00 3.60778814401057e-02
1.03591935483871e-01 6.36434811220338e+00 3.61385247689507e-02
1.06214516129032e-01 6.29381194892619e+00 3.61876592976166e-02
1.08837096774194e-01 6.22405753934978e+00 3.62258052217324e-02
1.11459677419355e-01 6.15507621871237e+00 3.62534549230338e-02
1.14082258064516e-01 6.08685941886659e+00 3.62710747957631e-02
1.16704838709677e-01 6.01939866714829e+00 3.62791074870139e-02
1.19327419354839e-01 5.95268558374631e+00 3.62779733889397e-02
1.21950000000000e-01 5.88671188224823e+00 3.62680719809072e-02
1.24572580645161e-01 5.82146936855577e+00 3.62497835768067e-02
1.27195161290323e-01 5.75694993843263e+00 3.62234704135719e-02
1.29817741935484e-01 5.69314557793875e+00 3.61894776349418e-02
1.32440322580645e-01 5.63004836238598e+00 3.61481346879261e-02
1.35062903225806e-01 5.56765045404666e+00 3.60997561277473e-02
1.37685483870968e-01 5.50594410249460e+00 3.60446423488640e-02
1.40308064516129e-01 5.44492164359651e+00 3.59830807250728e-02
1.42930645161290e-01 5.38457549736652e+00 3.59153461634360e-02
1.45553225806452e-01 5.32489816859385e+00 3.58417018446554e-02
1.48175806451613e-01 5.26588224439878e+00 3.57623999322501e-02
1.50798387096774e-01 5.20752039442987e+00 3.56776819776423e-02
1.53420967741936e-01 5.14980536991541e+00 3.55877797626956e-02
1.56043548387097e-01 5.09273000174306e+00 3.54929156788223e-02
1.58666129032258e-01 5.03628720059632e+00 3.53933030742518e-02
1.61288709677419e-01 4.98046995604137e+00 3.52891469732698e-02
1.63911290322581e-01 4.92527133471547e+00 3.51806443649872e-02
1.66533870967742e-01 4.87068448041158e+00 3.50679844676901e-02
1.69156451612903e-01 4.81670261319860e+00 3.49513493510072e-02
1.71779032258065e-01 4.76331902770924e+00 3.48309141560302e-02
1.74401612903226e-01 4.71052709318178e+00 3.47068472968788e-02
1.77024193548387e-01 4.65832025260964e+00 3.45793110051322e-02
1.79646774193548e-01 4.60669202112253e+00 3.44484614970715e-02
1.82269354838710e-01 4.55563598599095e+00 3.43144491272346e-02
1.84891935483871e-01 4.50514580580407e+00 3.41774188695853e-02
1.87514516129032e-01 4.45521520893698e+00 3.40375104093916e-02
1.90137096774194e-01 4.40583799375473e+00 3.38948583979012e-02
1.92759677419355e-01 4.35700802688829e+00 3.37495927084980e-02
1.95382258064516e-01 4.30871924317937e+00 3.36018384959220e-02
1.98004838709677e-01 4.26096564490596e+00 3.34517165932202e-02
2.00627419354839e-01 4.21374130038459e+00 3.32993435905220e-02
2.03250000000000e-01 4.16704034389047e+00 3.31448319067864e-02
2.05872580645161e-01 4.12085697491039e+00 3.29882901481224e-02
2.08495161290323e-01 4.07518545681359e+00 3.28298231653335e-02
2.11117741935484e-01 4.03002011675136e+00 3.26695321058161e-02
2.13740322580645e-01 3.98535534493532e+00 3.25075147390359e-02
2.16362903225806e-01 3.94118559337286e+00 3.23438654970937e-02
2.18985483870968e-01 3.89750537574943e+00 3.21786755110258e-02
2.21608064516129e-01 3.85430926673067e+00 3.20120329080457e-02
2.24230645161290e-01 3.81159190075870e+00 3.18440228115468e-02
2.26853225806452e-01 3.76934797208537e+00 3.16747274732324e-02
2.29475806451613e-01 3.72757223343223e+00 3.15042264107176e-02
2.32098387096774e-01 3.68625949584444e+00 3.13325963958937e-02
2.34720967741935e-01 3.64540462803175e+00 3.11599117116262e-02
2.37343548387097e-01 3.60500255526149e+00 3.09862441628084e-02
2.39966129032258e-01 3.56504825920126e+00 3.08116630853606e-02
2.42588709677419e-01 3.52553677728270e+00 3.06362355833780e-02
2.45211290322581e-01 3.48646320164480e+00 3.04600265328607e-02
2.47833870967742e-01 3.44782267896722e+00 3.02830985836542e-02
2.50456451612903e-01 3.40961040985605e+00 3.01055123793147e-02
2.53079032258065e-01 3.37182164783427e+00 2.99273265548928e-02
2.55701612903226e-01 3.33445169916805e+00 2.97485977333290e-02
2.58324193548387e-01 3.29749592227264e+00 2.95693807299207e-02
2.60946774193548e-01 3.26094972674804e+00 2.93897285452383e-02
2.63569354838710e-01 3.22480857319940e+00 2.92096923571859e-02
2.66191935483871e-01 3.18906797266243e+00 2.90293217116426e-02
2.68814516129032e-01 3.15372348568173e+00 2.88486644911053e-02
2.71437096774194e-01 3.11877072224105e+00 2.86677669851074e-02
2.74059677419355e-01 3.08420534074793e+00 2.84866739662325e-02
2.76682258064516e-01 3.05002304784384e+00 2.83054286549755e-02
2.79304838709677e-01 3.01621959786160e+00 2.81240728893628e-02
2.81927419354839e-01 2.98279079197165e+00 2.79426471098936e-02
2.84550000000000e-01 2.94973247798908e+00 2.77611903441050e-02
2.87172580645161e-01 2.91704054984962e+00 2.75797403656781e-02
2.89795161290323e-01 2.88471094679195e+00 2.73983336773917e-02
2.92417741935484e-01 2.85273965316289e+00 2.72170054937658e-02
2.95040322580645e-01 2.82112269791079e+00 2.70357898905819e-02
2.97662903225806e-01 2.78985615380239e+00 2.68547197862318e-02
3.00285483870968e-01 2.75893613722686e+00 2.66738269229449e-02
3.02908064516129e-01 2.72835880770590e+00 2.64931420075259e-02
3.05530645161290e-01 2.69812036714345e+00 2.63126946750892e-02
3.08153225806452e-01 2.66821705971554e+00 2.61325135348827e-02
3.10775806451613e-01 2.63864517105033e+00 2.59526262209881e-02
3.13398387096774e-01 2.60940102802977e+00 2.57730593545098e-02
3.16020967741935e-01 2.58048099832655e+00 2.55938386705449e-02
3.18643548387097e-01 2.55188148970649e+00 2.54149889972888e-02
3.21266129032258e-01 2.52359894983055e+00 2.52365342352895e-02
3.23888709677419e-01 2.49562986580740e+00 2.50584974773952e-02
3.26511290322581e-01 2.46797076352426e+00 2.48809009874206e-02
3.29133870967742e-01 2.44061820744968e+00 2.47037661789067e-02
3.31756451612903e-01 2.41356880020118e+00 2.45271137285686e-02
3.34379032258065e-01 2.38681918190308e+00 2.43509635546635e-02
3.37001612903226e-01 2.36036602999080e+00 2.41753347954944e-02
3.39624193548387e-01 2.33420605879263e+00 2.40002459168224e-02
3.42246774193548e-01 2.30833601891356e+00 2.38257146900365e-02
3.44869354838710e-01 2.28275269704128e+00 2.36517581705887e-02
3.47491935483871e-01 2.25745291554172e+00 2.34783927997803e-02
3.50114516129032e-01 2.23243353186762e+00 2.33056343702171e-02
3.52737096774194e-01 2.20769143842885e+00 2.31334980550380e-02
3.55359677419355e-01 2.18322356195124e+00 2.29619984410891e-02
3.57982258064516e-01 2.15902686328482e+00 2.27911494939158e-02
3.60604838709677e-01 2.13509833702170e+00 2.26209646505516e-02
3.63227419354839e-01 2.11143501094409e+00 2.24514567980822e-02
3.65850000000000e-01 2.08803394583502e+00 2.22826382524776e-02
3.68472580645161e-01 2.06489223510896e+00 2.21145208467209e-02
3.71095161290323e-01 2.04200700428147e+00 2.19471159096003e-02
3.73717741935484e-01 2.01937541078262e+00 2.17804342447442e-02
3.76340322580645e-01 1.99699464359983e+00 2.16144862143838e-02
3.78962903225807e-01 1.97486192276828e+00 2.14492817183950e-02
3.81585483870968e-01 1.95297449918714e+00 2.12848301736336e-02
3.84208064516129e-01 1.93132965427427e+00 2.11211405935964e-02
3.86830645161290e-01 1.90992469947637e+00 2.09582215574573e-02
3.89453225806452e-01 1.88875697613659e+00 2.07960812310495e-02
3.92075806451613e-01 1.86782385496685e+00 2.06347273911117e-02
3.94698387096774e-01 1.84712273586837e+00 2.04741673942223e-02
3.97320967741936e-01 1.82665104760513e+00 2.03144082498265e-02
3.99943548387097e-01 1.80640624734596e+00 2.01554566003492e-02
4.02566129032258e-01 1.78638582048821e+00 1.99973187016389e-02
4.05188709677419e-01 1.76658728034219e+00 1.98400004925240e-02
4.07811290322581e-01 1.74700816769070e+00 1.96835075753525e-02
4.10433870967742e-01 1.72764605061598e+00 1.95278451968083e-02
4.13056451612903e-01 1.70849852419467e+00 1.93730183141984e-02
4.15679032258065e-01 1.68956321007406e+00 1.92190315764171e-02
4.18301612903226e-01 1.67083775630252e+00 1.90658893051839e-02
4.20924193548387e-01 1.65231983703438e+00 1.89135955582451e-02
4.23546774193548e-01 1.63400715212241e+00 1.87621541107501e-02
4.26169354838710e-01 1.61589742695165e+00 1.86115684369484e-02
4.28791935483871e-01 1.59798841215398e+00 1.84618417704680e-02
4.31414516129032e-01 1.58027788321606e+00 1.83129770780507e-02
4.34037096774194e-01 1.56276364035244e+00 1.81649770740803e-02
4.36659677419355e-01 1.54544350808578e+00 1.80178442376910e-02
4.39282258064516e-01 1.52831533508585e+00 1.78715807865840e-02
4.41904838709677e-01 1.51137699389973e+00 1.77261887325506e-02
4.44527419354839e-01 1.49462638058455e+00 1.75816698641783e-02
4.47150000000000e-01 1.47806141454986e+00 1.74380257298399e-02
4.49772580645161e-01 1.46168003829691e+00 1.72952576907054e-02
4.52395161290323e-01 1.44548021706502e+00 1.71533669039157e-02
4.55017741935484e-01 1.42945993867753e+00 1.70123543060140e-02
4.57640322580645e-01 1.41361721328963e+00 1.68722206635818e-02
4.60262903225806e-01 1.39795007304795e+00 1.67329665568593e-02
4.62885483870968e-01 1.38245657194006e+00 1.65945923636374e-02
4.65508064516129e-01 1.36713478555053e+00 1.64570983076368e-02
4.68130645161290e-01 1.35198281073324e+00 1.63204844359432e-02
4.70753225806452e-01 1.33699876549260e+00 1.61847506299390e-02
4.73375806451613e-01 1.32218078863436e+00 1.60498966183618e-02
4.75998387096774e-01 1.30752703962047e+00 1.59159219548758e-02
4.78620967741936e-01 1.29303569833853e+00 1.57828260627603e-02
4.81243548387097e-01 1.27870496479432e+00 1.56506082198087e-02
4.83866129032258e-01 1.26453305897019e+00 1.55192675434968e-02
4.86488709677419e-01 1.25051822060208e+00 1.53888030337125e-02
4.89111290322581e-01 1.23665870888343e+00 1.52592135581078e-02
4.91733870967742e-01 1.22295280232695e+00 1.51304978376854e-02
4.94356451612903e-01 1.20939879854902e+00 1.50026544876686e-02
4.96979032258065e-01 1.19599501398451e+00 1.48756820032868e-02
4.99601612903226e-01 1.18273978375190e+00 1.47495787457907e-02
5.02224193548387e-01 1.16963146144484e+00 1.46243429815523e-02
5.04846774193548e-01 1.15666841885736e+00 1.44999728682624e-02
5.07469354838710e-01 1.14384904585243e+00 1.43764664413790e-02
5.10091935483871e-01 1.13117175016034e+00 1.42538216515392e-02
5.12714516129032e-01 1.11863495711395e+00 1.41320363459253e-02
5.15337096774194e-01 1.10623710954198e+00 1.40111082761505e-02
5.17959677419355e-01 1.09397666748830e+00 1.38910351078300e-02
5.20582258064516e-01 1.08185210808574e+00 1.37718144021028e-02
5.23204838709677e-01 1.06986192536546e+00 1.36534436502811e-02
5.25827419354839e-01 1.05800463000835e+00 1.35359202612120e-02
5.28450000000000e-01 1.04627874922198e+00 1.34192415488523e-02
5.31072580645161e-01 1.03468282655638e+00 1.33034047654453e-02
5.33695161290323e-01 1.02321542166434e+00 1.31884070892803e-02
5.36317741935484e-01 1.01187511018168e+00 1.30742456126495e-02
5.38940322580645e-01 1.00066048354898e+00 1.29609173736183e-02
5.41562903225806e-01 9.89570148780678e-01 1.28484193441639e-02
5.44185483870968e-01 9.78602728348385e-01 1.27367484185163e-02
5.46808064516129e-01 9.67756860008561e-01 1.26259014435868e-02
5.49430645161290e-01 9.57031196579891e-01 1.25158752031429e-02
5.52053225806452e-01 9.46424405846810e-01 1.24066664238904e-02
5.54675806451613e-01 9.35935170324408e-01 1.22982717829460e-02
5.57298387096774e-01 9.25562187146729e-01 1.21906878921627e-02
5.59920967741936e-01 9.15304167903773e-01 1.20839113263607e-02
5.62543548387097e-01 9.05159838432271e-01 1.19779386124823e-02
5.65166129032258e-01 8.95127938706971e-01 1.18727662189409e-02
5.67788709677419e-01 8.85207222683041e-01 1.17683905826740e-02
5.70411290322581e-01 8.75396458094341e-01 1.16648080986531e-02
5.73033870967742e-01 8.65694426347639e-01 1.15620151095648e-02
5.75656451612903e-01 8.56099922370235e-01 1.14600079317403e-02
5.78279032258065e-01 8.46611754415442e-01 1.13587828450016e-02
5.80901612903226e-01 8.37228743959698e-01 1.12583360826769e-02
5.83524193548387e-01 8.27949725555200e-01 1.11586638564557e-02
5.86146774193548e-01 8.18773546642343e-01 1.10597623465560e-02
5.88769354838710e-01 8.09699067449671e-01 1.09616276920692e-02
5.91391935483871e-01 8.00725160851342e-01 1.08642560147867e-02
5.94014516129032e-01 7.91850712186283e-01 1.07676434062355e-02
5.96637096774194e-01 7.83074619173951e-01 1.06717859321639e-02
5.99259677419355e-01 7.74395791724126e-01 1.05766796381334e-02
6.01882258064516e-01 7.65813151841278e-01 1.04823205366906e-02
6.04504838709677e-01 7.57325633489791e-01 1.03887046295097e-02
6.07127419354839e-01 7.48932182423849e-01 1.02958278984276e-02
6.09750000000000e-01 7.40631756094463e-01 1.02036862966334e-02
6.12372580645161e-01 7.32423323519149e-01 1.01122757699038e-02
6.14995161290323e-01 7.24305865117854e-01 1.00215922479353e-02
6.17617741935484e-01 7.16278372622580e-01 9.93163163581920e-03
6.20240322580645e-01 7.08339848951374e-01 9.84238983441035e-03
6.22862903225807e-01 7.00489308050052e-01 9.75386273194111e-03
6.25485483870968e-01 6.92725774804394e-01 9.66604619577874e-03
6.28108064516129e-01 6.85048284918263e-01 9.57893609196519e-03
6.30730645161290e-01 6.77455884760947e-01 9.49252827424159e-03
6.33353225806452e-01 6.69947631292358e-01 9.40681858755577e-03
6.35975806451613e-01 6.62522591902975e-01 9.32180287248637e-03
6.38598387096774e-01 6.55179844330039e-01 9.23747695438935e-03
6.41220967741935e-01 6.47918476542298e-01 9.15383666157707e-03
6.43843548387097e-01 6.40737586596329e-01 9.07087781767321e-03
6.46466129032258e-01 6.33636282555126e-01 8.98859623410248e-03
6.49088709677419e-01 6.26613682376648e-01 8.90698772753528e-03
6.51711290322581e-01 6.19668913775208e-01 8.82604811249995e-03
6.54333870967742e-01 6.12801114142381e-01 8.74577319411602e-03
6.56956451612903e-01 6.06009430439243e-01 8.66615878483647e-03
6.59579032258065e-01 5.99293019062628e-01 8.58720069730489e-03
6.62201612903226e-01 5.92651045768321e-01 8.50889473732995e-03
6.64824193548387e-01 5.86082685566840e-01 8.43123671995425e-03
6.67446774193548e-01 5.79587122594396e-01 8.35422246254549e-03
6.70069354838710e-01 5.73163550038317e-01 8.27784777800832e-03
6.72691935483871e-01 5.66811170036247e-01 8.20210849020723e-03
6.75314516129032e-01 5.60529193551650e-01 8.12700042499627e-03
6.77937096774194e-01 5.54316840309521e-01 8.05251941283716e-03
6.80559677419355e-01 5.48173338666298e-01 7.97866129215064e-03
6.83182258064516e-01 5.42097925538777e-01 7.90542190045015e-03
6.85804838709677e-01 5.36089846308797e-01 7.83279708870750e-03
6.88427419354839e-01 5.30148354705995e-01 7.76078271506147e-03
6.91050000000000e-01 5.24272712738792e-01 7.68937463863408e-03
6.93672580645161e-01 5.18462190602229e-01 7.61856873332330e-03
6.96295161290323e-01 5.12716066564815e-01 7.54836088172326e-03
6.98917741935484e-01 5.07033626901542e-01 7.47874696914503e-03
7.01540322580645e-01 5.01414165804747e-01 7.40972289686111e-03
7.04162903225807e-01 4.95856985274925e-01 7.34128457622765e-03
7.06785483870968e-01 4.90361395055704e-01 7.27342792290616e-03
7.09408064516129e-01 4.84926712547650e-01 7.20614886958171e-03
7.12030645161290e-01 4.79552262702881e-01 7.13944335837382e-03
7.14653225806452e-01 4.74237377968569e-01 7.07330734289823e-03
7.17275806451613e-01 4.68981398177112e-01 7.00773679093973e-03
7.19898387096774e-01 4.63783670484230e-01 6.94272767695379e-03
7.22520967741936e-01 4.58643549287434e-01 6.87827599392170e-03
7.25143548387097e-01 4.53560396126761e-01 6.81437774799703e-03
7.27766129032258e-01 4.48533579624689e-01 6.75102895324580e-03
7.30388709677419e-01 4.43562475407310e-01 6.68822564303392e-03
7.33011290322581e-01 4.38646466008501e-01 6.62596386485530e-03
7.35633870967742e-01 4.33784940811636e-01 6.56423967524510e-03
7.38256451612903e-01 4.28977295973348e-01 6.50304915071839e-03
7.40879032258065e-01 4.24222934331040e-01 6.44238838277295e-03
7.43501612903226e-01 4.19521265346322e-01 6.38225347297265e-03
7.46124193548387e-01 4.14871705031292e-01 6.32264054345583e-03
7.48746774193548e-01 4.10273675859249e-01 6.26354573210318e-03
7.51369354838710e-01 4.05726606709835e-01 6.20496518778845e-03
7.53991935483871e-01 4.01229932797725e-01 6.14689508047432e-03
7.56614516129032e-01 3.96783095586452e-01 6.08933159500981e-03
7.59237096774194e-01 3.92385542740319e-01 6.03227093268015e-03
7.61859677419355e-01 3.88036728034837e-01 5.97570931324569e-03
7.64482258064516e-01 3.83736111304526e-01 5.91964296881653e-03
7.67104838709677e-01 3.79483158375491e-01 5.86406815327111e-03
7.69727419354839e-01 3.75277340984195e-01 5.80898113785731e-03
7.72350000000000e-01 3.71118136726826e-01 5.75437820686747e-03
7.74972580645161e-01 3.67005028994098e-01 5.70025566668869e-03
7.77595161290323e-01 3.62937506892832e-01 5.64660984155356e-03
7.80217741935484e-01 3.58915065196848e-01 5.59343706935896e-03
7.82840322580645e-01 3.54937204283913e-01 5.54073371036352e-03
7.85462903225806e-01 3.51003430060032e-01 5.48849614307994e-03
7.88085483870968e-01 3.47113253911827e-01 5.43672076023645e-03
7.90708064516129e-01 3.43266192645553e-01 5.38540397713407e-03
7.93330645161290e-01 3.39461768414007e-01 5.33454222639733e-03
7.95953225806452e-01 3.35699508674543e-01 5.28413195920051e-03
7.98575806451613e-01 3.31978946113275e-01 5.23416964690084e-03
8.01198387096774e-01 3.28299618599806e-01 5.18465177585482e-03
8.03820967741936e-01 3.24661069129554e-01 5.13557485522094e-03
8.06443548387097e-01 3.21062845754843e-01 5.08693541321936e-03
8.09066129032258e-01 3.17504501541002e-01 5.03872999345458e-03
8.11688709677419e-01 3.13985594510593e-01 4.99095516241495e-03
8.14311290322581e-01 3.10505687576881e-01 4.94360750585993e-03
8.16933870967742e-01 3.07064348501254e-01 4.89668362526495e-03
8.19556451612903e-01 3.03661149839303e-01 4.85018014503008e-03
8.22179032258065e-01 3.00295668876567e-01 4.80409370898878e-03
8.24801612903226e-01 2.96967487587268e-01 4.75842097697349e-03
8.27424193548387e-01 2.93676192582147e-01 4.71315863174471e-03
