Energy (eV)          EEDF (eV^-(3/2))     First Anisotropy
4.03125000000000e-03 1.73370145590037e+00 1.12811609913311e-03
1.20937500000000e-02 1.71512193085093e+00 1.85910855048408e-03
2.01562500000000e-02 1.69674151663881e+00 2.44436769382405e-03
2.82187500000000e-02 1.67855807945783e+00 2.88303479531919e-03
3.62812500000000e-02 1.66056950836825e+00 3.24399048576117e-03
4.43437500000000e-02 1.64277371505245e+00 3.55342796747168e-03
5.24062500000000e-02 1.62516863357260e+00 3.82497655392928e-03
6.04687500000000e-02 1.60775222013085e+00 4.06691052387276e-03
6.85312500000000e-02 1.59052245283207e+00 4.28474634960807e-03
7.65937500000000e-02 1.57347733144914e+00 4.48240318500446e-03
8.46562500000000e-02 1.55661487719073e+00 4.66279706079788e-03
9.27187500000000e-02 1.53993313247158e+00 4.82817544463683e-03
1.00781250000000e-01 1.52343016068525e+00 4.98031936737881e-03
1.08843750000000e-01 1.50710404597929e+00 5.12067238831300e-03
1.16906250000000e-01 1.49095289303282e+00 5.25042655033585e-03
1.24968750000000e-01 1.47497482683653e+00 5.37058175436076e-03
1.33031250000000e-01 1.45916799247497e+00 5.48198801663911e-03
1.41093750000000e-01 1.44353055491122e+00 5.58537631637026e-03
1.49156250000000e-01 1.42806069877389e+00 5.68138161119044e-03
1.57218750000000e-01 1.41275662814633e+00 5.77056033833379e-03
1.65281250000000e-01 1.39761656635815e+00 5.85340394656447e-03
1.73343750000000e-01 1.38263875577897e+00 5.93034951489869e-03
1.81406250000000e-01 1.36782145761438e+00 6.00178819593103e-03
1.89468750000000e-01 1.35316295170409e+00 6.06807200944546e-03
1.97531250000000e-01 1.33866153632218e+00 6.12951936746591e-03
2.05593750000000e-01 1.32431552797962e+00 6.18641961150984e-03
2.13656250000000e-01 1.31012326122878e+00 6.23903677183488e-03
2.21718750000000e-01 1.29608308847010e+00 6.28761270748992e-03
2.29781250000000e-01 1.28219337976081e+00 6.33236974882770e-03
2.37843750000000e-01 1.26845252262573e+00 6.37351293670247e-03
2.45906250000000e-01 1.25485892187006e+00 6.41123193205912e-03
2.53968750000000e-01 1.24141099939419e+00 6.44570265411634e-03
2.62031250000000e-01 1.22810719401050e+00 6.47708869349939e-03
2.70093750000000e-01 1.21494596126213e+00 6.50554253753609e-03
2.78156250000000e-01 1.20192577324364e+00 6.53120663782229e-03
2.86218750000000e-01 1.18904511842370e+00 6.55421434457697e-03
2.94281250000000e-01 1.17630250146956e+00 6.57469072789331e-03
3.02343750000000e-01 1.16369644307348e+00 6.59275330247096e-03
3.10406250000000e-01 1.15122547978098e+00 6.60851266959206e-03
3.18468750000000e-01 1.13888816382098e+00 6.62207308782422e-03
3.26531250000000e-01 1.12668306293766e+00 6.63353298207757e-03
3.34593750000000e-01 1.11460876022427e+00 6.64298539912985e-03
3.42656250000000e-01 1.10266385395856e+00 6.65051841648983e-03
3.50718750000000e-01 1.09084695744012e+00 6.65621551043875e-03
3.58781250000000e-01 1.07915669882935e+00 6.66015588823502e-03
3.66843750000000e-01 1.06759172098821e+00 6.66241478875921e-03
3.74906250000000e-01 1.05615068132270e+00 6.66306375527760e-03
3.82968750000000e-01 1.04483225162695e+00 6.66217088349729e-03
3.91031250000000e-01 1.03363511792906e+00 6.65980104766743e-03
3.99093750000000e-01 1.02255798033854e+00 6.65601610711965e-03
4.07156250000000e-01 1.01159955289540e+00 6.65087509533126e-03
4.15218750000000e-01 1.00075856342091e+00 6.64443439333831e-03
4.23281250000000e-01 9.90033753369836e-01 6.63674788909851e-03
4.31343750000000e-01 9.79423877684387e-01 6.62786712421213e-03
4.39406250000000e-01 9.68927704649658e-01 6.61784142924218e-03
4.47468750000000e-01 9.58544015750639e-01 6.60671804873215e-03
4.55531250000000e-01 9.48271605530756e-01 6.59454225689556e-03
4.63593750000000e-01 9.38109281451928e-01 6.58135746483952e-03
4.71656250000000e-01 9.28055863756125e-01 6.56720532009481e-03
4.79718750000000e-01 9.18110185328405e-01 6.55212579913816e-03
4.87781250000000e-01 9.08271091561426e-01 6.53615729352110e-03
4.95843750000000e-01 8.98537440221405e-01 6.51933669015743e-03
5.03906250000000e-01 8.88908101315513e-01 6.50169944626132e-03
5.11968750000000e-01 8.79381956960692e-01 6.48327965938266e-03
5.20031250000000e-01 8.69957901253881e-01 6.46411013294068e-03
5.28093750000000e-01 8.60634840143630e-01 6.44422243761622e-03
5.36156250000000e-01 8.51411691303088e-01 6.42364696893160e-03
5.44218750000000e-01 8.42287384004356e-01 6.40241300131329e-03
5.52281250000000e-01 8.33260858994182e-01 6.38054873890674e-03
5.60343750000000e-01 8.24331068370997e-01 6.35808136338900e-03
5.68406250000000e-01 8.15496975463254e-01 6.33503707900097e-03
5.76468750000000e-01 8.06757554709088e-01 6.31144115500059e-03
5.84531250000000e-01 7.98111791537251e-01 6.28731796572507e-03
5.92593750000000e-01 7.89558682249331e-01 6.26269102842982e-03
6.00656250000000e-01 7.81097233903232e-01 6.23758303905857e-03
6.08718750000000e-01 7.72726464197903e-01 6.21201590608833e-03
6.16781250000000e-01 7.64445401359297e-01 6.18601078257767e-03
6.24843750000000e-01 7.56253084027561e-01 6.15958809653970e-03
6.32906250000000e-01 7.48148561145428e-01 6.13276757974941e-03
6.40968750000000e-01 7.40130891847809e-01 6.10556829508645e-03
6.49031250000000e-01 7.32199145352565e-01 6.07800866250755e-03
6.57093750000000e-01 7.24352400852450e-01 6.05010648373400e-03
6.65156250000000e-01 7.16589747408220e-01 6.02187896573576e-03
6.73218750000000e-01 7.08910283842873e-01 5.99334274308522e-03
6.81281250000000e-01 7.01313118637034e-01 5.96451389924801e-03
6.89343750000000e-01 6.93797369825455e-01 5.93540798687577e-03
6.97406250000000e-01 6.86362164894630e-01 5.90604004715899e-03
7.05468750000000e-01 6.79006640681500e-01 5.87642462829529e-03
7.13531250000000e-01 6.71729943273253e-01 5.84657580312388e-03
7.21593750000000e-01 6.64531227908182e-01 5.81650718597202e-03
7.29656250000000e-01 6.57409658877626e-01 5.78623194875938e-03
7.37718750000000e-01 6.50364409428945e-01 5.75576283640106e-03
7.45781250000000e-01 6.43394661669544e-01 5.72511218154731e-03
7.53843750000000e-01 6.36499606471921e-01 5.69429191869511e-03
7.61906250000000e-01 6.29678443379737e-01 5.66331359770650e-03
7.69968750000000e-01 6.22930380514885e-01 5.63218839676393e-03
7.78031250000000e-01 6.16254634485565e-01 5.60092713479206e-03
7.86093750000000e-01 6.09650430295336e-01 5.56954028337422e-03
7.94156250000000e-01 6.03117001253148e-01 5.53803797818815e-03
8.02218750000000e-01 5.96653588884332e-01 5.50643002998655e-03
8.10281250000000e-01 5.90259442842551e-01 5.47472593514324e-03
8.18343750000000e-01 5.83933820822691e-01 5.44293488578831e-03
8.26406250000000e-01 5.77675988474683e-01 5.41106577955092e-03
8.34468750000000e-01 5.71485219318256e-01 5.37912722892923e-03
8.42531250000000e-01 5.65360794658592e-01 5.34712757030498e-03
8.50593750000000e-01 5.59302003502900e-01 5.31507487261914e-03
8.58656250000000e-01 5.53308142477870e-01 5.28297694572545e-03
8.66718750000000e-01 5.47378515748019e-01 5.25084134843573e-03
8.74781250000000e-01 5.41512434934912e-01 5.21867539627159e-03
8.82843750000000e-01 5.35709219037244e-01 5.18648616893466e-03
8.90906250000000e-01 5.29968194351785e-01 5.15428051750986e-03
8.98968750000000e-01 5.24288694395168e-01 5.12206507141250e-03
9.07031250000000e-01 5.18670059826513e-01 5.08984624508938e-03
9.15093750000000e-01 5.13111638370889e-01 5.05763024448681e-03
9.23156250000000e-01 5.07612784743584e-01 5.02542307329343e-03
9.31218750000000e-01 5.02172860575199e-01 4.99323053896858e-03
9.39281250000000e-01 4.96791234337534e-01 4.96105825856599e-03
9.47343750000000e-01 4.91467281270277e-01 4.92891166435877e-03
9.55406250000000e-01 4.86200383308471e-01 4.89679600927616e-03
9.63468750000000e-01 4.80989929010765e-01 4.86471637215958e-03
9.71531250000000e-01 4.75835313488430e-01 4.83267766284440e-03
9.79593750000000e-01 4.70735938335134e-01 4.80068462707484e-03
9.87656250000000e-01 4.65691211557478e-01 4.76874185125846e-03
9.95718750000000e-01 4.60700547506265e-01 4.73685376706726e-03
1.00378125000000e+00 4.55763366808514e-01 4.70502465589106e-03
1.01184375000000e+00 4.50879096300201e-01 4.67325865314801e-03
1.01990625000000e+00 4.46047168959715e-01 4.64155975245905e-03
1.02796875000000e+00 4.41267023842036e-01 4.60993180969091e-03
1.03603125000000e+00 4.36538106013613e-01 4.57837854687236e-03
1.04409375000000e+00 4.31859866487939e-01 4.54690355598899e-03
1.05215625000000e+00 4.27231762161824e-01 4.51551030266080e-03
1.06021875000000e+00 4.22653255752337e-01 4.48420212970715e-03
1.06828125000000e+00 4.18123815734440e-01 4.45298226060261e-03
1.07634375000000e+00 4.13642916279277e-01 4.42185380282789e-03
1.08440625000000e+00 4.09210037193134e-01 4.39081975112033e-03
1.09246875000000e+00 4.04824663857044e-01 4.35988299062693e-03
1.10053125000000e+00 4.00486287167050e-01 4.32904629996282e-03
1.10859375000000e+00 3.96194403475099e-01 4.29831235417951e-03
1.11665625000000e+00 3.91948514530572e-01 4.26768372764624e-03
1.12471875000000e+00 3.87748127422445e-01 4.23716289684589e-03
1.13278125000000e+00 3.83592754522061e-01 4.20675224308981e-03
1.14084375000000e+00 3.79481913426528e-01 4.17645405515408e-03
1.14890625000000e+00 3.75415126902707e-01 4.14627053183971e-03
1.15696875000000e+00 3.71391922831818e-01 4.11620378445891e-03
1.16503125000000e+00 3.67411834154626e-01 4.08625583925037e-03
1.17309375000000e+00 3.63474398817220e-01 4.05642863972682e-03
1.18115625000000e+00 3.59579159717373e-01 4.02672404895488e-03
1.18921875000000e+00 3.55725664651479e-01 3.99714385177092e-03
1.19728125000000e+00 3.51913466262050e-01 3.96768975693555e-03
1.20534375000000e+00 3.48142121985790e-01 3.93836339922727e-03
1.21340625000000e+00 3.44411194002209e-01 3.90916634147812e-03
1.22146875000000e+00 3.40720249182800e-01 3.88010007655296e-03
1.22953125000000e+00 3.37068859040757e-01 3.85116602927382e-03
1.23759375000000e+00 3.33456599681229e-01 3.82236555829191e-03
1.24565625000000e+00 3.29883051752112e-01 3.79369995790843e-03
1.25371875000000e+00 3.26347800395365e-01 3.76517045984547e-03
1.26178125000000e+00 3.22850435198846e-01 3.73677823496885e-03
1.26984375000000e+00 3.19390550148672e-01 3.70852439496452e-03
1.27790625000000e+00 3.15967743582077e-01 3.68040999396972e-03
1.28596875000000e+00 3.12581618140791e-01 3.65243603016035e-03
1.29403125000000e+00 3.09231780724903e-01 3.62460344729586e-03
1.30209375000000e+00 3.05917842447230e-01 3.59691313622291e-03
1.31015625000000e+00 3.02639418588166e-01 3.56936593633905e-03
1.31821875000000e+00 2.99396128551026e-01 3.54196263701766e-03
1.32628125000000e+00 2.96187595817855e-01 3.51470397899541e-03
1.33434375000000e+00 2.93013447905723e-01 3.48759065572276e-03
1.34240625000000e+00 2.89873316323478e-01 3.46062331467927e-03
1.35046875000000e+00 2.86766836528974e-01 3.43380255865455e-03
1.35853125000000e+00 2.83693647886742e-01 3.40712894699538e-03
1.36659375000000e+00 2.80653393626133e-01 3.38060299682104e-03
1.37465625000000e+00 2.77645720799891e-01 3.35422518420645e-03
1.38271875000000e+00 2.74670280243186e-01 3.32799594533449e-03
1.39078125000000e+00 2.71726726533075e-01 3.30191567761960e-03
1.39884375000000e+00 2.68814717948401e-01 3.27598474080140e-03
1.40690625000000e+00 2.65933916430126e-01 3.25020345801040e-03
1.41496875000000e+00 2.63083987542081e-01 3.22457211680651e-03
1.42303125000000e+00 2.60264600432143e-01 3.19909097019115e-03
1.43109375000000e+00 2.57475427793828e-01 3.17376023759319e-03
1.43915625000000e+00 2.54716145828286e-01 3.14858010582947e-03
1.44721875000000e+00 2.51986434206721e-01 3.12355073004187e-03
1.45528125000000e+00 2.49285976033197e-01 3.09867223460967e-03
1.46334375000000e+00 2.46614457807847e-01 3.07394471403879e-03
1.47140625000000e+00 2.43971569390488e-01 3.04936823382919e-03
1.47946875000000e+00 2.41357003964606e-01 3.02494283131965e-03
1.48753125000000e+00 2.38770458001742e-01 3.00066851651176e-03
1.49559375000000e+00 2.36211631226257e-01 2.97654527287278e-03
1.50365625000000e+00 2.33680226580468e-01 2.95257305811850e-03
1.51171875000000e+00 2.31175950190166e-01 2.92875180497655e-03
1.51978125000000e+00 2.28698511330496e-01 2.90508142193018e-03
1.52784375000000e+00 2.26247622392209e-01 2.88156179394377e-03
1.53590625000000e+00 2.23822998848275e-01 2.85819278316987e-03
1.54396875000000e+00 2.21424359220846e-01 2.83497422963911e-03
1.55203125000000e+00 2.19051425048584e-01 2.81190595193214e-03
1.56009375000000e+00 2.16703920854332e-01 2.78898774783531e-03
1.56815625000000e+00 2.14381574113134e-01 2.76621939498019e-03
1.57621875000000e+00 2.12084115220597e-01 2.74360065146638e-03
1.58428125000000e+00 2.09811277461591e-01 2.72113125646968e-03
1.59234375000000e+00 2.07562796979288e-01 2.69881093083453e-03
1.60040625000000e+00 2.05338412744529e-01 2.67663937765199e-03
1.60846875000000e+00 2.03137866525522e-01 2.65461628282355e-03
1.61653125000000e+00 2.00960902857861e-01 2.63274131561040e-03
1.62459375000000e+00 1.98807269014873e-01 2.61101412916983e-03
1.63265625000000e+00 1.96676714978273e-01 2.58943436107756e-03
1.64071875000000e+00 1.94568993409145e-01 2.56800163383749e-03
1.64878125000000e+00 1.92483859619223e-01 2.54671555537903e-03
1.65684375000000e+00 1.90421071542489e-01 2.52557571954156e-03
1.66490625000000e+00 1.88380389707067e-01 2.50458170654738e-03
1.67296875000000e+00 1.86361577207427e-01 2.48373308346265e-03
1.68103125000000e+00 1.84364399676878e-01 2.46302940464699e-03
1.68909375000000e+00 1.82388625260363e-01 2.44247021219185e-03
1.69715625000000e+00 1.80434024587541e-01 2.42205503634843e-03
1.70521875000000e+00 1.78500370746161e-01 2.40178339594426e-03
1.71328125000000e+00 1.76587439255717e-01 2.38165479879003e-03
1.72134375000000e+00 1.74695008041389e-01 2.36166874207625e-03
1.72940625000000e+00 1.72822857408262e-01 2.34182471275953e-03
1.73746875000000e+00 1.70970770015822e-01 2.32212218794017e-03
1.74553125000000e+00 1.69138530852723e-01 2.30256063522967e-03
1.75359375000000e+00 1.67325927211828e-01 2.28313951310919e-03
1.76165625000000e+00 1.65532748665513e-01 2.26385827127930e-03
1.76971875000000e+00 1.63758787041241e-01 2.24471635100098e-03
1.77778125000000e+00 1.62003836397393e-01 2.22571318542783e-03
1.78584375000000e+00 1.60267692999360e-01 2.20684819993043e-03
1.79390625000000e+00 1.58550155295893e-01 2.18812081241228e-03
1.80196875000000e+00 1.56851023895703e-01 2.16953043361790e-03
1.81003125000000e+00 1.55170101544314e-01 2.15107646743323e-03
1.81809375000000e+00 1.53507193101162e-01 2.13275831117844e-03
1.82615625000000e+00 1.51862105516943e-01 2.11457535589360e-03
1.83421875000000e+00 1.50234647811202e-01 2.09652698661695e-03
1.84228125000000e+00 1.48624631050158e-01 2.07861258265608e-03
1.85034375000000e+00 1.47031868324775e-01 2.06083151785269e-03
1.85840625000000e+00 1.45456174729061e-01 2.04318316084014e-03
1.86646875000000e+00 1.43897367338602e-01 2.02566687529482e-03
1.87453125000000e+00 1.42355265189327e-01 2.00828202018093e-03
1.88259375000000e+00 1.40829689256500e-01 1.99102794998920e-03
1.89065625000000e+00 1.39320462433933e-01 1.97390401496960e-03
1.89871875000000e+00 1.37827409513431e-01 1.95690956135790e-03
1.90678125000000e+00 1.36350357164450e-01 1.94004393159641e-03
1.91484375000000e+00 1.34889133913973e-01 1.92330646454936e-03
1.92290625000000e+00 1.33443570126603e-01 1.90669649571254e-03
1.93096875000000e+00 1.32013497984873e-01 1.89021335741745e-03
1.93903125000000e+00 1.30598751469763e-01 1.87385637903033e-03
1.94709375000000e+00 1.29199166341425e-01 1.85762488714595e-03
1.95515625000000e+00 1.27814580120116e-01 1.84151820577668e-03
1.96321875000000e+00 1.26444832067338e-01 1.82553565653622e-03
1.97128125000000e+00 1.25089763167176e-01 1.80967655881847e-03
1.97934375000000e+00 1.23749216107837e-01 1.79394022997213e-03
1.98740625000000e+00 1.22423035263389e-01 1.77832598547059e-03
1.99546875000000e+00 1.21111066675693e-01 1.76283313907713e-03
2.00353125000000e+00 1.19813158036530e-01 1.74746100300595e-03
2.01159375000000e+00 1.18529158669921e-01 1.73220888807874e-03
2.01965625000000e+00 1.17258919514631e-01 1.71707610387742e-03
2.02771875000000e+00 1.16002293106868e-01 1.70206195889247e-03
2.03578125000000e+00 1.14759133563164e-01 1.68716576066737e-03
2.04384375000000e+00 1.13529296563434e-01 1.67238681593907e-03
2.05190625000000e+00 1.12312639334229e-01 1.65772443077491e-03
2.05996875000000e+00 1.11109020632154e-01 1.64317791070577e-03
2.06803125000000e+00 1.09918300727478e-01 1.62874656085518e-03
2.07609375000000e+00 1.08740341387904e-01 1.61442968606534e-03
2.08415625000000e+00 1.07575005862533e-01 1.60022659101962e-03
2.09221875000000e+00 1.06422158865975e-01 1.58613658036153e-03
2.10028125000000e+00 1.05281666562655e-01 1.57215895881033e-03
2.10834375000000e+00 1.04153396551269e-01 1.55829303127362e-03
2.11640625000000e+00 1.03037217849417e-01 1.54453810295671e-03
2.12446875000000e+00 1.01933000878393e-01 1.53089347946873e-03
2.13253125000000e+00 1.00840617448148e-01 1.51735846692596e-03
2.14059375000000e+00 9.97599407424022e-02 1.50393237205211e-03
2.14865625000000e+00 9.86908453039263e-02 1.49061450227565e-03
2.15671875000000e+00 9.76332070199762e-02 1.47740416582448e-03
2.16478125000000e+00 9.65869031078844e-02 1.46430067181777e-03
2.17284375000000e+00 9.55518121008058e-02 1.45130333035511e-03
2.18090625000000e+00 9.45278138336170e-02 1.43841145260310e-03
2.18896875000000e+00 9.35147894289658e-02 1.42562435087924e-03
2.19703125000000e+00 9.25126212834704e-02 1.41294133873344e-03
2.20509375000000e+00 9.15211930540672e-02 1.40036173102712e-03
2.21315625000000e+00 9.05403896445039e-02 1.38788484400982e-03
2.22121875000000e+00 8.95700971919782e-02 1.37550999539349e-03
2.22928125000000e+00 8.86102030539188e-02 1.36323650442448e-03
2.23734375000000e+00 8.76605957949091e-02 1.35106369195353e-03
2.24540625000000e+00 8.67211651737503e-02 1.33899088050327e-03
2.25346875000000e+00 8.57918021306630e-02 1.32701739433358e-03
2.26153125000000e+00 8.48723987746270e-02 1.31514255950515e-03
2.26959375000000e+00 8.39628483708557e-02 1.30336570394095e-03
2.27765625000000e+00 8.30630453284049e-02 1.29168615748557e-03
2.28571875000000e+00 8.21728851879152e-02 1.28010325196269e-03
2.29378125000000e+00 8.12922646094844e-02 1.26861632123068e-03
2.30184375000000e+00 8.04210813606713e-02 1.25722470123628e-03
2.30990625000000e+00 7.95592343046272e-02 1.24592773006663e-03
2.31796875000000e+00 7.87066233883544e-02 1.23472474799937e-03
2.32603125000000e+00 7.78631496310915e-02 1.22361509755107e-03
2.33409375000000e+00 7.70287151128223e-02 1.21259812352409e-03
2.34215625000000e+00 7.62032229629080e-02 1.20167317305164e-03
2.35021875000000e+00 7.53865773488418e-02 1.19083959564126e-03
2.35828125000000e+00 7.45786834651229e-02 1.18009674321681e-03
2.36634375000000e+00 7.37794475222511e-02 1.16944397015899e-03
2.37440625000000e+00 7.29887767358383e-02 1.15888063334415e-03
2.38246875000000e+00 7.22065793158368e-02 1.14840609218172e-03
2.39053125000000e+00 7.14327644558838e-02 1.13801970865040e-03
2.39859375000000e+00 7.06672423227594e-02 1.12772084733271e-03
2.40665625000000e+00 6.99099240459573e-02 1.11750887544838e-03
2.41471875000000e+00 6.91607217073682e-02 1.10738316288621e-03
2.42278125000000e+00 6.84195483310732e-02 1.09734308223478e-03
2.43084375000000e+00 6.76863178732465e-02 1.08738800881191e-03
2.43890625000000e+00 6.69609452121665e-02 1.07751732069279e-03
2.44696875000000e+00 6.62433461383338e-02 1.06773039873694e-03
2.45503125000000e+00 6.55334373446956e-02 1.05802662661413e-03
2.46309375000000e+00 6.48311364169740e-02 1.04840539082893e-03
2.47115625000000e+00 6.41363618240986e-02 1.03886608074419e-03
2.47921875000000e+00 6.34490329087415e-02 1.02940808860355e-03
2.48728125000000e+00 6.27690698779536e-02 1.02003080955283e-03
2.49534375000000e+00 6.20963937939014e-02 1.01073364166031e-03
2.50340625000000e+00 6.14309265647029e-02 1.00151598593609e-03
2.51146875000000e+00 6.07725909353621e-02 9.92377246350411e-04
2.51953125000000e+00 6.01213104787997e-02 9.83316829850944e-04
2.52759375000000e+00 5.94770095869815e-02 9.74334146379230e-04
2.53565625000000e+00 5.88396134621400e-02 9.65428608886253e-04
2.54371875000000e+00 5.82090481080919e-02 9.56599633346984e-04
