Energy (eV)          EEDF (eV^-(3/2))     First Anisotropy
1.88000000000000e-03 2.80936243496048e+00 1.45820330280417e-03
5.64000000000000e-03 2.78997998755250e+00 2.40769596024770e-03
9.40000000000000e-03 2.77073126417340e+00 3.17786952157328e-03
1.31600000000000e-02 2.75161534223101e+00 3.76263456946119e-03
1.69200000000000e-02 2.73263130549742e+00 4.25005313749468e-03
2.06800000000000e-02 2.71377824406584e+00 4.67342131635169e-03
2.44400000000000e-02 2.69505525430712e+00 5.04997033727291e-03
2.82000000000000e-02 2.67646143882644e+00 5.39010590306085e-03
3.19600000000000e-02 2.65799590642029e+00 5.70072942931306e-03
3.57200000000000e-02 2.63965777203380e+00 5.98671880911205e-03
3.94800000000000e-02 2.62144615671829e+00 6.25168499462260e-03
4.32400000000000e-02 2.60336018758915e+00 6.49839710422329e-03
4.70000000000000e-02 2.58539899778400e+00 6.72903872606839e-03
5.07600000000000e-02 2.56756172642116e+00 6.94537111678981e-03
5.45200000000000e-02 2.54984751855835e+00 7.14884175140212e-03
5.82800000000000e-02 2.53225552515176e+00 7.34065915201780e-03
6.20400000000000e-02 2.51478490301532e+00 7.52184603483224e-03
6.58000000000000e-02 2.49743481478029e+00 7.69327802699873e-03
6.95600000000000e-02 2.48020442885515e+00 7.85571249327404e-03
7.33200000000000e-02 2.46309291938571e+00 8.00981041000338e-03
7.70800000000000e-02 2.44609946621554e+00 8.15615324226848e-03
8.08400000000000e-02 2.42922325484668e+00 8.29525615928216e-03
8.46000000000000e-02 2.41246347640056e+00 8.42757851966200e-03
8.83600000000000e-02 2.39581932757926e+00 8.55353228953812e-03
9.21200000000000e-02 2.37929001062699e+00 8.67348887359237e-03
9.58800000000000e-02 2.36287473329189e+00 8.78778471222933e-03
9.96400000000000e-02 2.34657270878800e+00 8.89672590847491e-03
1.03400000000000e-01 2.33038315575760e+00 9.00059208389011e-03
1.07160000000000e-01 2.31430529823373e+00 9.09963961598186e-03
1.10920000000000e-01 2.29833836560302e+00 9.19410437505120e-03
1.14680000000000e-01 2.28248159256872e+00 9.28420405262678e-03
1.18440000000000e-01 2.26673421911406e+00 9.37014015416066e-03
1.22200000000000e-01 2.25109549046579e+00 9.45209971378341e-03
1.25960000000000e-01 2.23556465705802e+00 9.53025677747663e-03
1.29720000000000e-01 2.22014097449630e+00 9.60477369210410e-03
1.33480000000000e-01 2.20482370352193e+00 9.67580223076190e-03
1.37240000000000e-01 2.18961210997651e+00 9.74348457939567e-03
1.41000000000000e-01 2.17450546476678e+00 9.80795420523028e-03
1.44760000000000e-01 2.15950304382968e+00 9.86933662404447e-03
1.48520000000000e-01 2.14460412809762e+00 9.92775008048240e-03
1.52280000000000e-01 2.12980800346400e+00 9.98330615327993e-03
1.56040000000000e-01 2.11511396074906e+00 1.00361102954087e-02
1.59800000000000e-01 2.10052129566578e+00 1.00862623175918e-02
1.63560000000000e-01 2.08602930878623e+00 1.01338568223721e-02
1.67320000000000e-01 2.07163730550796e+00 1.01789835948539e-02
1.71080000000000e-01 2.05734459602076e+00 1.02217279553515e-02
1.74840000000000e-01 2.04315049527359e+00 1.02621710784599e-02
1.78600000000000e-01 2.02905432294173e+00 1.03003902824214e-02
1.82360000000000e-01 2.01505540339416e+00 1.03364592921458e-02
1.86120000000000e-01 2.00115306566123e+00 1.03704484788069e-02
1.89880000000000e-01 1.98734664340243e+00 1.04024250785548e-02
1.93640000000000e-01 1.97363547487453e+00 1.04324533925565e-02
1.97400000000000e-01 1.96001890289979e+00 1.04605949703117e-02
2.01160000000000e-01 1.94649627483450e+00 1.04869087779512e-02
2.04920000000000e-01 1.93306694253770e+00 1.05114513530181e-02
2.08680000000000e-01 1.91973026234009e+00 1.05342769470595e-02
2.12440000000000e-01 1.90648559501321e+00 1.05554376572062e-02
2.16200000000000e-01 1.89333230573878e+00 1.05749835477775e-02
2.19960000000000e-01 1.88026976407828e+00 1.05929627628402e-02
2.23720000000000e-01 1.86729734394273e+00 1.06094216305474e-02
2.27480000000000e-01 1.85441442356268e+00 1.06244047599915e-02
2.31240000000000e-01 1.84162038545843e+00 1.06379551312339e-02
2.35000000000000e-01 1.82891461641041e+00 1.06501141791023e-02
2.38760000000000e-01 1.81629650742977e+00 1.06609218712828e-02
2.42520000000000e-01 1.80376545372926e+00 1.06704167811886e-02
2.46280000000000e-01 1.79132085469417e+00 1.06786361560362e-02
2.50040000000000e-01 1.77896211385356e+00 1.06856159805156e-02
2.53800000000000e-01 1.76668863885172e+00 1.06913910364065e-02
2.57560000000000e-01 1.75449984141970e+00 1.06959949584607e-02
2.61320000000000e-01 1.74239513734719e+00 1.06994602868403e-02
2.65080000000000e-01 1.73037394645446e+00 1.07018185163708e-02
2.68840000000000e-01 1.71843569256458e+00 1.07031001428517e-02
2.72600000000000e-01 1.70657980347582e+00 1.07033347066417e-02
2.76360000000000e-01 1.69480571093416e+00 1.07025508337161e-02
2.80120000000000e-01 1.68311285060613e+00 1.07007762743801e-02
2.83880000000000e-01 1.67150066205174e+00 1.06980379398030e-02
2.87640000000000e-01 1.65996858869756e+00 1.06943619365237e-02
2.91400000000000e-01 1.64851607781013e+00 1.06897735990722e-02
2.95160000000000e-01 1.63714258046942e+00 1.06842975208321e-02
2.98920000000000e-01 1.62584755154251e+00 1.06779575832589e-02
3.02680000000000e-01 1.61463044965750e+00 1.06707769835708e-02
3.06440000000000e-01 1.60349073717753e+00 1.06627782610062e-02
3.10200000000000e-01 1.59242788017502e+00 1.06539833217393e-02
3.13960000000000e-01 1.58144134840609e+00 1.06444134625446e-02
3.17720000000000e-01 1.57053061528514e+00 1.06340893932842e-02
3.21480000000000e-01 1.55969515785958e+00 1.06230312582913e-02
3.25240000000000e-01 1.54893445678483e+00 1.06112586567205e-02
3.29000000000000e-01 1.53824799629936e+00 1.05987906619270e-02
3.32760000000000e-01 1.52763526420001e+00 1.05856458399271e-02
3.36520000000000e-01 1.51709575181743e+00 1.05718422670020e-02
3.40280000000000e-01 1.50662895399170e+00 1.05573975464912e-02
3.44040000000000e-01 1.49623436904811e+00 1.05423288248211e-02
3.47800000000000e-01 1.48591149877313e+00 1.05266528068147e-02
3.51560000000000e-01 1.47565984839051e+00 1.05103857703207e-02
3.55320000000000e-01 1.46547892653759e+00 1.04935435802041e-02
3.59080000000000e-01 1.45536824524172e+00 1.04761417017280e-02
3.62840000000000e-01 1.44532731989691e+00 1.04581952133624e-02
3.66600000000000e-01 1.43535566924055e+00 1.04397188190508e-02
3.70360000000000e-01 1.42545281533040e+00 1.04207268599647e-02
3.74120000000000e-01 1.41561828352164e+00 1.04012333257702e-02
3.77880000000000e-01 1.40585160244414e+00 1.03812518654342e-02
3.81640000000000e-01 1.39615230397986e+00 1.03607957975917e-02
3.85400000000000e-01 1.38651992324042e+00 1.03398781205006e-02
3.89160000000000e-01 1.37695399854482e+00 1.03185115216012e-02
3.92920000000000e-01 1.36745407139728e+00 1.02967083866998e-02
3.96680000000000e-01 1.35801968646532e+00 1.02744808087987e-02
4.00440000000000e-01 1.34865039155788e+00 1.02518405965858e-02
4.04200000000000e-01 1.33934573760369e+00 1.02287992826018e-02
4.07960000000000e-01 1.33010527862972e+00 1.02053681311036e-02
4.11720000000000e-01 1.32092857173981e+00 1.01815581456316e-02
4.15480000000000e-01 1.31181517709345e+00 1.01573800762993e-02
4.19240000000000e-01 1.30276465788468e+00 1.01328444268203e-02
4.23000000000000e-01 1.29377658032118e+00 1.01079614612792e-02
4.26760000000000e-01 1.28485051360346e+00 1.00827412106595e-02
4.30520000000000e-01 1.27598602990422e+00 1.00571934791427e-02
4.34280000000000e-01 1.26718270434783e+00 1.00313278501873e-02
4.38040000000000e-01 1.25844011498998e+00 1.00051536923947e-02
4.41800000000000e-01 1.24975784279746e+00 9.97868016517546e-03
4.45560000000000e-01 1.24113547162807e+00 9.95191622422149e-03
4.49320000000000e-01 1.23257258821065e+00 9.92487062679482e-03
4.53080000000000e-01 1.22406878212531e+00 9.89755193683794e-03
4.56840000000000e-01 1.21562364578376e+00 9.86996852991570e-03
4.60600000000000e-01 1.20723677440971e+00 9.84212859799511e-03
4.64360000000000e-01 1.19890776601957e+00 9.81404015407173e-03
4.68120000000000e-01 1.19063622140309e+00 9.78571103664416e-03
4.71880000000000e-01 1.18242174410428e+00 9.75714891404379e-03
4.75640000000000e-01 1.17426394040240e+00 9.72836128863339e-03
4.79400000000000e-01 1.16616241929306e+00 9.69935550087069e-03
4.83160000000000e-01 1.15811679246951e+00 9.67013873324357e-03
4.86920000000000e-01 1.15012667430403e+00 9.64071801408570e-03
4.90680000000000e-01 1.14219168182943e+00 9.61110022127623e-03
4.94440000000000e-01 1.13431143472069e+00 9.58129208582562e-03
4.98200000000000e-01 1.12648555527675e+00 9.55130019535496e-03
5.01960000000000e-01 1.11871366840239e+00 9.52113099746992e-03
5.05720000000000e-01 1.11099540159028e+00 9.49079080303533e-03
5.09480000000000e-01 1.10333038490308e+00 9.46028578935389e-03
5.13240000000000e-01 1.09571825095574e+00 9.42962200325222e-03
5.17000000000000e-01 1.08815863489790e+00 9.39880536407767e-03
5.20760000000000e-01 1.08065117439638e+00 9.36784166660831e-03
5.24520000000000e-01 1.07319550961780e+00 9.33673658388112e-03
5.28280000000000e-01 1.06579128321139e+00 9.30549566993951e-03
5.32040000000000e-01 1.05843814029181e+00 9.27412436250501e-03
5.35800000000000e-01 1.05113572842215e+00 9.24262798557281e-03
5.39560000000000e-01 1.04388369759706e+00 9.21101175193653e-03
5.43320000000000e-01 1.03668170022594e+00 9.17928076564450e-03
5.47080000000000e-01 1.02952939111631e+00 9.14744002438792e-03
5.50840000000000e-01 1.02242642745725e+00 9.11549442182583e-03
5.54600000000000e-01 1.01537246880299e+00 9.08344874984515e-03
5.58360000000000e-01 1.00836717705654e+00 9.05130770076263e-03
5.62120000000000e-01 1.00141021645355e+00 9.01907586946996e-03
5.65880000000000e-01 9.94501253546173e-01 8.98675775551879e-03
5.69640000000000e-01 9.87639957187103e-01 8.95435776515388e-03
5.73400000000000e-01 9.80825998513690e-01 8.92188021329275e-03
5.77160000000000e-01 9.74059050932189e-01 8.88932932545432e-03
5.80920000000000e-01 9.67338790102101e-01 8.85670923963931e-03
5.84680000000000e-01 9.60664893920625e-01 8.82402400816063e-03
5.88440000000000e-01 9.54037042507225e-01 8.79127759943059e-03
5.92200000000000e-01 9.47454918188295e-01 8.75847389970050e-03
5.95960000000000e-01 9.40918205481933e-01 8.72561671475809e-03
5.99720000000000e-01 9.34426591082821e-01 8.69270977158386e-03
6.03480000000000e-01 9.27979763847206e-01 8.65975671996445e-03
6.07240000000000e-01 9.21577414777991e-01 8.62676113406936e-03
6.11000000000000e-01 9.15219237009919e-01 8.59372651398712e-03
6.14760000000000e-01 9.08904925794871e-01 8.56065628722451e-03
6.18520000000000e-01 9.02634178487255e-01 8.52755381017196e-03
6.22280000000000e-01 8.96406694529501e-01 8.49442236953130e-03
6.26040000000000e-01 8.90222175437656e-01 8.46126518371117e-03
6.29800000000000e-01 8.84080324787079e-01 8.42808540418858e-03
6.33560000000000e-01 8.77980848198230e-01 8.39488611684014e-03
6.37320000000000e-01 8.71923453322564e-01 8.36167034324170e-03
6.41080000000000e-01 8.65907849828516e-01 8.32844104193570e-03
6.44840000000000e-01 8.59933749387585e-01 8.29520110967219e-03
6.48600000000000e-01 8.54000865660517e-01 8.26195338262059e-03
6.52360000000000e-01 8.48108914283579e-01 8.22870063755290e-03
6.56120000000000e-01 8.42257612854931e-01 8.19544559300059e-03
6.59880000000000e-01 8.36446680921087e-01 8.16219091038657e-03
6.63640000000000e-01 8.30675839963477e-01 8.12893919513025e-03
6.67400000000000e-01 8.24944813385095e-01 8.09569299772858e-03
6.71160000000000e-01 8.19253326497242e-01 8.06245481481262e-03
6.74920000000000e-01 8.13601106506362e-01 8.02922709018194e-03
6.78680000000000e-01 8.07987882500961e-01 7.99601221581526e-03
6.82440000000000e-01 8.02413385438633e-01 7.96281253285874e-03
6.86200000000000e-01 7.96877348133154e-01 7.92963033259407e-03
6.89960000000000e-01 7.91379505241681e-01 7.89646785738547e-03
6.93720000000000e-01 7.85919593252034e-01 7.86332730160487e-03
6.97480000000000e-01 7.80497350470065e-01 7.83021081253827e-03
7.01240000000000e-01 7.75112517007114e-01 7.79712049127311e-03
7.05000000000000e-01 7.69764834767554e-01 7.76405839356589e-03
7.08760000000000e-01 7.64454047436422e-01 7.73102653069282e-03
7.12520000000000e-01 7.59179900467127e-01 7.69802687028116e-03
7.16280000000000e-01 7.53942141069260e-01 7.66506133712372e-03
7.20040000000000e-01 7.48740518196469e-01 7.63213181397734e-03
7.23800000000000e-01 7.43574782534428e-01 7.59924014234263e-03
7.27560000000000e-01 7.38444686488892e-01 7.56638812322978e-03
7.31320000000000e-01 7.33349984173825e-01 7.53357751790788e-03
7.35080000000000e-01 7.28290431399616e-01 7.50081004863804e-03
7.38840000000000e-01 7.23265785661375e-01 7.46808739939392e-03
7.42600000000000e-01 7.18275806127312e-01 7.43541121656516e-03
7.46360000000000e-01 7.13320253627188e-01 7.40278310964730e-03
7.50120000000000e-01 7.08398890640858e-01 7.37020465191799e-03
7.53880000000000e-01 7.03511481286883e-01 7.33767738110038e-03
7.57640000000000e-01 6.98657791311225e-01 7.30520280001268e-03
7.61400000000000e-01 6.93837588076020e-01 7.27278237720404e-03
7.65160000000000e-01 6.89050640548428e-01 7.24041754757954e-03
7.68920000000000e-01 6.84296719289555e-01 7.20810971301115e-03
7.72680000000000e-01 6.79575596443463e-01 7.17586024293808e-03
7.76440000000000e-01 6.74887045726244e-01 7.14367047495481e-03
7.80200000000000e-01 6.70230842415175e-01 7.11154171538682e-03
7.83960000000000e-01 6.65606763337948e-01 7.07947523985694e-03
7.87720000000000e-01 6.61014586861974e-01 7.04747229383903e-03
7.91480000000000e-01 6.56454092883756e-01 7.01553409320188e-03
7.95240000000000e-01 6.51925062818346e-01 6.98366182474340e-03
7.99000000000000e-01 6.47427279588862e-01 6.95185664671297e-03
8.02760000000000e-01 6.42960527616088e-01 6.92011968932403e-03
8.06520000000000e-01 6.38524592808136e-01 6.88845205525825e-03
8.10280000000000e-01 6.34119262550192e-01 6.85685482015953e-03
8.14040000000000e-01 6.29744325694320e-01 6.82532903311895e-03
8.17800000000000e-01 6.25399572549341e-01 6.79387571714874e-03
8.21560000000000e-01 6.21084794870787e-01 6.76249586964986e-03
8.25320000000000e-01 6.16799785850916e-01 6.73119046287031e-03
8.29080000000000e-01 6.12544340108800e-01 6.69996044435335e-03
8.32840000000000e-01 6.08318253680482e-01 6.66880673737848e-03
8.36600000000000e-01 6.04121324009203e-01 6.63773024139537e-03
8.40360000000000e-01 5.99953349935688e-01 6.60673183244804e-03
8.44120000000000e-01 5.95814131688505e-01 6.57581236359157e-03
8.47880000000000e-01 5.91703470874497e-01 6.54497266530264e-03
8.51640000000000e-01 5.87621170469261e-01 6.51421354588008e-03
8.55400000000000e-01 5.83567034807717e-01 6.48353579184000e-03
8.59160000000000e-01 5.79540869574722e-01 6.45294016830315e-03
8.62920000000000e-01 5.75542481795757e-01 6.42242741937599e-03
8.66680000000000e-01 5.71571679827683e-01 6.39199826852345e-03
8.70440000000000e-01 5.67628273349547e-01 6.36165341893586e-03
8.74200000000000e-01 5.63712073353470e-01 6.33139355389003e-03
8.77960000000000e-01 5.59822892135577e-01 6.30121933710165e-03
8.81720000000000e-01 5.55960543287011e-01 6.27113141307341e-03
8.85480000000000e-01 5.52124841684988e-01 6.24113040743638e-03
8.89240000000000e-01 5.48315603483935e-01 6.21121692728556e-03
8.93000000000000e-01 5.44532646106667e-01 6.18139156150849e-03
8.96760000000000e-01 5.40775788235647e-01 6.15165488110868e-03
9.00520000000000e-01 5.37044849804285e-01 6.12200743952400e-03
9.04280000000000e-01 5.33339651988316e-01 6.09244977293828e-03
9.08040000000000e-01 5.29660017197223e-01 6.06298240058819e-03
9.11800000000000e-01 5.26005769065730e-01 6.03360582506493e-03
9.15560000000000e-01 5.22376732445345e-01 6.00432053260990e-03
9.19320000000000e-01 5.18772733395964e-01 5.97512699340526e-03
9.23080000000000e-01 5.15193599177540e-01 5.94602566186012e-03
9.26840000000000e-01 5.11639158241798e-01 5.91701697689146e-03
9.30600000000000e-01 5.08109240224015e-01 5.88810136220043e-03
9.34360000000000e-01 5.04603675934854e-01 5.85927922654323e-03
9.38120000000000e-01 5.01122297352255e-01 5.83055096399813e-03
9.41880000000000e-01 4.97664937613381e-01 5.80191695422663e-03
9.45640000000000e-01 4.94231431006621e-01 5.77337756273163e-03
9.49400000000000e-01 4.90821612963646e-01 5.74493314111093e-03
9.53160000000000e-01 4.87435320051525e-01 5.71658402730473e-03
9.56920000000000e-01 4.84072389964887e-01 5.68833054584138e-03
9.60680000000000e-01 4.80732661518142e-01 5.66017300807761e-03
9.64440000000000e-01 4.77415974637761e-01 5.63211171243401e-03
9.68200000000000e-01 4.74122170354597e-01 5.60414694462823e-03
9.71960000000000e-01 4.70851090796268e-01 5.57627897790306e-03
9.75720000000000e-01 4.67602579179593e-01 5.54850807325043e-03
9.79480000000000e-01 4.64376479803071e-01 5.52083447963283e-03
9.83240000000000e-01 4.61172638039425e-01 5.49325843420021e-03
9.87000000000000e-01 4.57990900328187e-01 5.46578016250305e-03
9.90760000000000e-01 4.54831114168338e-01 5.43839987870212e-03
9.94520000000000e-01 4.51693128111000e-01 5.41111778577535e-03
9.98280000000000e-01 4.48576791752175e-01 5.38393407572012e-03
1.00204000000000e+00 4.45481955725537e-01 5.35684892975215e-03
1.00580000000000e+00 4.42408471695275e-01 5.32986251850268e-03
1.00956000000000e+00 4.39356192348980e-01 5.30297500221161e-03
1.01332000000000e+00 4.36324971390587e-01 5.27618653091560e-03
1.01708000000000e+00 4.33314663533360e-01 5.24949724463546e-03
1.02084000000000e+00 4.30325124492931e-01 5.22290727355987e-03
1.02460000000000e+00 4.27356210980384e-01 5.19641673822508e-03
1.02836000000000e+00 4.24407780695386e-01 5.17002574969308e-03
1.03212000000000e+00 4.21479692319367e-01 5.14373440972570e-03
1.03588000000000e+00 4.18571805508748e-01 5.11754281095584e-03
1.03964000000000e+00 4.15683980888212e-01 5.09145103705675e-03
1.04340000000000e+00 4.12816080044025e-01 5.06545916290773e-03
1.04716000000000e+00 4.09967965517402e-01 5.03956725475744e-03
1.05092000000000e+00 4.07139500797917e-01 5.01377537038482e-03
1.05468000000000e+00 4.04330550316965e-01 4.98808355925691e-03
1.05844000000000e+00 4.01540979441256e-01 4.96249186268427e-03
1.06220000000000e+00 3.98770654466368e-01 4.93700031397341e-03
1.06596000000000e+00 3.96019442610339e-01 4.91160893857762e-03
1.06972000000000e+00 3.93287212007298e-01 4.88631775424495e-03
1.07348000000000e+00 3.90573831701149e-01 4.86112677116336e-03
1.07724000000000e+00 3.87879171639292e-01 4.83603599210404e-03
1.08100000000000e+00 3.85203102666391e-01 4.81104541256230e-03
1.08476000000000e+00 3.82545496518183e-01 4.78615502089574e-03
1.08852000000000e+00 3.79906225815328e-01 4.76136479846094e-03
1.09228000000000e+00 3.77285164057307e-01 4.73667471974738e-03
1.09604000000000e+00 3.74682185616360e-01 4.71208475250910e-03
1.09980000000000e+00 3.72097165731459e-01 4.68759485789515e-03
1.10356000000000e+00 3.69529980502332e-01 4.66320499057629e-03
1.10732000000000e+00 3.66980506883525e-01 4.63891509887123e-03
1.11108000000000e+00 3.64448622678503e-01 4.61472512487011e-03
1.11484000000000e+00 3.61934206533793e-01 4.59063500455604e-03
1.11860000000000e+00 3.59437137933168e-01 4.56664466792473e-03
1.12236000000000e+00 3.56957297191872e-01 4.54275403910202e-03
1.12612000000000e+00 3.54494565450879e-01 4.51896303645986e-03
1.12988000000000e+00 3.52048824671203e-01 4.49527157273027e-03
1.13364000000000e+00 3.49619957628234e-01 4.47167955511766e-03
1.13740000000000e+00 3.47207847906121e-01 4.44818688540831e-03
1.14116000000000e+00 3.44812379892197e-01 4.42479346007967e-03
1.14492000000000e+00 3.42433438771430e-01 4.40149917040698e-03
1.14868000000000e+00 3.40070910520925e-01 4.37830390256840e-03
1.15244000000000e+00 3.37724681904459e-01 4.35520753774824e-03
1.15620000000000e+00 3.35394640467050e-01 4.33220995223847e-03
1.15996000000000e+00 3.33080674529571e-01 4.30931101753927e-03
1.16372000000000e+00 3.30782673183393e-01 4.28651060045737e-03
1.16748000000000e+00 3.28500526285073e-01 4.26380856320291e-03
1.17124000000000e+00 3.26234124451075e-01 4.24120476348505e-03
1.17500000000000e+00 3.23983359052522e-01 4.21869905460519e-03
1.17876000000000e+00 3.21748122209996e-01 4.19629128554975e-03
1.18252000000000e+00 3.19528306788362e-01 4.17398130108101e-03
1.18628000000000e+00 3.17323806391638e-01 4.15176894182670e-03
