Energy (eV)          EEDF (eV^-(3/2))     First Anisotropy
5.00000000000000e-03 6.98113393918938e-01 2.25651710743732e-04
1.50000000000000e-02 6.98111537932269e-01 2.67327582739138e-04
2.50000000000000e-02 6.98106657256751e-01 3.93627277188196e-04
3.50000000000000e-02 6.98099237068029e-01 4.73174556608196e-04
4.50000000000000e-02 6.98089504664343e-01 5.39983508449061e-04
5.50000000000000e-02 6.98077151725506e-01 6.04296682600716e-04
6.50000000000000e-02 6.98062174594623e-01 6.69471101801506e-04
7.50000000000000e-02 6.98044296597730e-01 7.35600797718464e-04
8.50000000000000e-02 6.98023615958262e-01 8.03661605687081e-04
9.50000000000000e-02 6.97999892355356e-01 8.73347484674416e-04
1.05000000000000e-01 6.97972887952618e-01 9.42284365575991e-04
1.15000000000000e-01 6.97942909345699e-01 1.00819539150336e-03
1.25000000000000e-01 6.97909955975281e-01 1.07051372601015e-03
1.35000000000000e-01 6.97874001660363e-01 1.13023000726013e-03
1.45000000000000e-01 6.97835001224695e-01 1.18805989099048e-03
1.55000000000000e-01 6.97792894912251e-01 1.24453332628926e-03
1.65000000000000e-01 6.97747611421947e-01 1.30005113681863e-03
1.75000000000000e-01 6.97699070049660e-01 1.35492172025943e-03
1.85000000000000e-01 6.97647182277486e-01 1.40935635346048e-03
1.95000000000000e-01 6.97591855459058e-01 1.46331627791545e-03
2.05000000000000e-01 6.97533007537553e-01 1.51565191128160e-03
2.15000000000000e-01 6.97471285778409e-01 1.56580430183428e-03
2.25000000000000e-01 6.97406726689820e-01 1.61382008036753e-03
2.35000000000000e-01 6.97339357835098e-01 1.65998268310610e-03
2.45000000000000e-01 6.97269199301958e-01 1.70452918028432e-03
2.55000000000000e-01 6.97196264878408e-01 1.74765937900146e-03
2.65000000000000e-01 6.97120563002537e-01 1.78954286602694e-03
2.75000000000000e-01 6.97042097536462e-01 1.83032443101245e-03
2.85000000000000e-01 6.96960868413692e-01 1.87012159981254e-03
2.95000000000000e-01 6.96876872855892e-01 1.90898706451854e-03
3.05000000000000e-01 6.96790109606988e-01 1.94615803279568e-03
3.15000000000000e-01 6.96701057084087e-01 1.98072441830000e-03
3.25000000000000e-01 6.96609824578074e-01 2.01228785148464e-03
3.35000000000000e-01 6.96516531044904e-01 2.04073506389843e-03
3.45000000000000e-01 6.96421302369572e-01 2.06600720046804e-03
3.55000000000000e-01 6.96324269346894e-01 2.08808441370590e-03
3.65000000000000e-01 6.96225566204600e-01 2.10697436959647e-03
3.75000000000000e-01 6.96125329536731e-01 2.12270365935061e-03
3.85000000000000e-01 6.96023697551958e-01 2.13530879627342e-03
3.95000000000000e-01 6.95920809844071e-01 2.14481543800865e-03
4.05000000000000e-01 6.95816808641515e-01 2.15233873156897e-03
4.15000000000000e-01 6.95712226730682e-01 2.16079701209982e-03
4.25000000000000e-01 6.95606930640509e-01 2.17186724691715e-03
4.35000000000000e-01 6.95500795789231e-01 2.18536454860952e-03
4.45000000000000e-01 6.95393705024974e-01 2.20113270626554e-03
4.55000000000000e-01 6.95285547442910e-01 2.21903878458003e-03
4.65000000000000e-01 6.95176217423761e-01 2.23896880108117e-03
4.75000000000000e-01 6.95065613850070e-01 2.26082424442578e-03
4.85000000000000e-01 6.94953639467758e-01 2.28451801956938e-03
4.95000000000000e-01 6.94840200506175e-01 2.30996428850475e-03
5.05000000000000e-01 6.94725207050205e-01 2.33665617960491e-03
5.15000000000000e-01 6.94608813111590e-01 2.36395955892162e-03
5.25000000000000e-01 6.94490997846049e-01 2.39151464459231e-03
5.35000000000000e-01 6.94371754385275e-01 2.41907265725833e-03
5.45000000000000e-01 6.94251086520685e-01 2.44644606755949e-03
5.55000000000000e-01 6.94129005991826e-01 2.47349721658759e-03
5.65000000000000e-01 6.94005530284538e-01 2.50012875095280e-03
5.75000000000000e-01 6.93880680856962e-01 2.52627561522941e-03
5.85000000000000e-01 6.93754481724078e-01 2.55189766131572e-03
5.95000000000000e-01 6.93626958423405e-01 2.57696967544743e-03
6.05000000000000e-01 6.93498137596673e-01 2.60331456380936e-03
6.15000000000000e-01 6.93367863495861e-01 2.63408754620989e-03
6.25000000000000e-01 6.93235848354189e-01 2.67003994253614e-03
6.35000000000000e-01 6.93101860841308e-01 2.71016347084976e-03
6.45000000000000e-01 6.92965712914449e-01 2.75368701484812e-03
6.55000000000000e-01 6.92827249517327e-01 2.80002485026843e-03
6.65000000000000e-01 6.92686340537800e-01 2.84873562221581e-03
6.75000000000000e-01 6.92542874555567e-01 2.89948986721168e-03
6.85000000000000e-01 6.92396754007963e-01 2.95204391763880e-03
6.95000000000000e-01 6.92247891526467e-01 3.00621685368381e-03
7.05000000000000e-01 6.92096207392433e-01 3.07247367264731e-03
7.15000000000000e-01 6.91940644088587e-01 3.16756730454590e-03
7.25000000000000e-01 6.91779450643104e-01 3.29254469125157e-03
7.35000000000000e-01 6.91611389638151e-01 3.43818788414912e-03
7.45000000000000e-01 6.91435631896434e-01 3.59719063880737e-03
7.55000000000000e-01 6.91251670623358e-01 3.76380280495082e-03
7.65000000000000e-01 6.91059251655030e-01 3.93353603116121e-03
7.75000000000000e-01 6.90858317030268e-01 4.10292037289062e-03
7.85000000000000e-01 6.90648959578454e-01 4.26930281500380e-03
7.95000000000000e-01 6.90431386649229e-01 4.43067906061003e-03
8.05000000000000e-01 6.90205891533251e-01 4.58535004319159e-03
8.15000000000000e-01 6.89972851526131e-01 4.73242254318018e-03
8.25000000000000e-01 6.89732649213192e-01 4.87223844375431e-03
8.35000000000000e-01 6.89485627654837e-01 5.00558973980032e-03
8.45000000000000e-01 6.89232090235842e-01 5.13326405592192e-03
8.55000000000000e-01 6.88972301253291e-01 5.25603148071901e-03
8.65000000000000e-01 6.88706487082403e-01 5.37463442802491e-03
8.75000000000000e-01 6.88434837778305e-01 5.48978015668382e-03
8.85000000000000e-01 6.88157508990261e-01 5.60213541318376e-03
8.95000000000000e-01 6.87874624106699e-01 5.71232208121795e-03
9.05000000000000e-01 6.87586276610363e-01 5.83630969963526e-03
9.15000000000000e-01 6.87290992971288e-01 6.00258618253572e-03
9.25000000000000e-01 6.86986017860827e-01 6.22077427532183e-03
9.35000000000000e-01 6.86668915431947e-01 6.48496852903950e-03
9.45000000000000e-01 6.86337520900452e-01 6.79016476643102e-03
9.55000000000000e-01 6.85989898835872e-01 7.13213343254185e-03
9.65000000000000e-01 6.85624307407801e-01 7.50730740562907e-03
9.75000000000000e-01 6.85239167895817e-01 7.91268305965835e-03
9.85000000000000e-01 6.84833038831002e-01 8.34573299022195e-03
9.95000000000000e-01 6.84404594260958e-01 8.80432705186374e-03
1.00500000000000e+00 6.83952605819477e-01 9.38021607019569e-03
1.01500000000000e+00 6.83466103424098e-01 1.02319925685187e-02
1.02500000000000e+00 6.82927871602298e-01 1.13928081076680e-02
1.03500000000000e+00 6.82323974296218e-01 1.27996356817740e-02
1.04500000000000e+00 6.81643428081425e-01 1.43962165348966e-02
1.05500000000000e+00 6.80877874284545e-01 1.61330008178916e-02
1.06500000000000e+00 6.80021254786108e-01 1.79669967623560e-02
1.07500000000000e+00 6.79069495965389e-01 1.98615376733647e-02
1.08500000000000e+00 6.78020204700482e-01 2.17859795600330e-02
1.09500000000000e+00 6.76872379645161e-01 2.37153444118034e-02
1.10500000000000e+00 6.75626140229280e-01 2.56619351668634e-02
1.11500000000000e+00 6.74276674407152e-01 2.76657675251197e-02
1.12500000000000e+00 6.72819447738361e-01 2.97367283863346e-02
1.13500000000000e+00 6.71250962018723e-01 3.18553808456133e-02
1.14500000000000e+00 6.69568605921624e-01 3.40052319396062e-02
1.15500000000000e+00 6.67770526368129e-01 3.61723078950732e-02
1.16500000000000e+00 6.65855518353416e-01 3.83447794130299e-02
1.17500000000000e+00 6.63822931115302e-01 4.05126329125932e-02
1.18500000000000e+00 6.61672588688189e-01 4.26673837763235e-02
1.19500000000000e+00 6.59404723041575e-01 4.48018274462606e-02
1.20500000000000e+00 6.57019918189309e-01 4.69475124047780e-02
1.21500000000000e+00 6.54508096736112e-01 4.91615586937518e-02
1.22500000000000e+00 6.51862870099283e-01 5.14622889586217e-02
1.23500000000000e+00 6.49078824808307e-01 5.38295404459259e-02
1.24500000000000e+00 6.46151555512260e-01 5.62430951344218e-02
1.25500000000000e+00 6.43077686259638e-01 5.86828889897529e-02
1.26500000000000e+00 6.39854881218760e-01 6.11291919977205e-02
1.27500000000000e+00 6.36481846070249e-01 6.35627589737129e-02
1.28500000000000e+00 6.32958321362757e-01 6.59649512468557e-02
1.29500000000000e+00 6.29285069175391e-01 6.83178292939615e-02
1.30500000000000e+00 6.25463854492108e-01 7.06788724458711e-02
1.31500000000000e+00 6.21492722515817e-01 7.31694836921572e-02
1.32500000000000e+00 6.17360333566622e-01 7.58176825634335e-02
1.33500000000000e+00 6.13058005050581e-01 7.85754831688697e-02
1.34500000000000e+00 6.08579523326449e-01 8.13993410976898e-02
1.35500000000000e+00 6.03920929253389e-01 8.42504487759181e-02
1.36500000000000e+00 5.99080285653012e-01 8.70948838993899e-02
1.37500000000000e+00 5.94057434205353e-01 8.99036297236526e-02
1.38500000000000e+00 5.88853748390073e-01 9.26524882095863e-02
1.39500000000000e+00 5.83471888041906e-01 9.53219082379841e-02
1.40500000000000e+00 5.77915559957658e-01 9.79089846478986e-02
1.41500000000000e+00 5.72187878343234e-01 1.00425093117221e-01
1.42500000000000e+00 5.66291356803156e-01 1.02869948004299e-01
1.43500000000000e+00 5.60229248808650e-01 1.05232767255185e-01
1.44500000000000e+00 5.54005433644504e-01 1.07504768523907e-01
1.45500000000000e+00 5.47624317560843e-01 1.09678880079029e-01
1.46500000000000e+00 5.41090748761546e-01 1.11749481961392e-01
1.47500000000000e+00 5.34409944887645e-01 1.13712175911449e-01
1.48500000000000e+00 5.27587431697466e-01 1.15563582372152e-01
1.49500000000000e+00 5.20628991703207e-01 1.17301162166717e-01
1.50500000000000e+00 5.13540621658418e-01 1.18973282919701e-01
1.51500000000000e+00 5.06310562230585e-01 1.20671492391243e-01
1.52500000000000e+00 4.98933344549262e-01 1.22433483658684e-01
1.53500000000000e+00 4.91404294544803e-01 1.24243645175809e-01
1.54500000000000e+00 4.83719721038652e-01 1.26084012197471e-01
1.55500000000000e+00 4.75877061160571e-01 1.27934978517307e-01
1.56500000000000e+00 4.67874988526427e-01 1.29775899870478e-01
1.57500000000000e+00 4.59713489246799e-01 1.31585598560099e-01
1.58500000000000e+00 4.51393910533618e-01 1.33342777613659e-01
1.59500000000000e+00 4.42918986412920e-01 1.35026350495654e-01
1.60500000000000e+00 4.34292844990994e-01 1.36722772105299e-01
1.61500000000000e+00 4.25480022832817e-01 1.38589067944945e-01
1.62500000000000e+00 4.16463394301012e-01 1.40643520891676e-01
1.63500000000000e+00 4.07231565961082e-01 1.42797097447476e-01
1.64500000000000e+00 3.97778441285713e-01 1.44970900711274e-01
1.65500000000000e+00 3.88102710160908e-01 1.47096735083314e-01
1.66500000000000e+00 3.78207282708044e-01 1.49117361203150e-01
1.67500000000000e+00 3.68098685735786e-01 1.50986480450508e-01
1.68500000000000e+00 3.57786438401816e-01 1.52668493066296e-01
1.69500000000000e+00 3.47282421473386e-01 1.54138076686851e-01
1.70500000000000e+00 3.36600252078048e-01 1.55255496636790e-01
1.71500000000000e+00 3.25740815198121e-01 1.55799615665001e-01
1.72500000000000e+00 3.14749445188283e-01 1.55726250587783e-01
1.73500000000000e+00 3.03666703278832e-01 1.55118800806784e-01
1.74500000000000e+00 2.92528755642307e-01 1.54052168662075e-01
1.75500000000000e+00 2.81367724866390e-01 1.52593554719452e-01
1.76500000000000e+00 2.70212015439142e-01 1.50803195529535e-01
1.77500000000000e+00 2.59086613982616e-01 1.48735045874426e-01
1.78500000000000e+00 2.48013365144070e-01 1.46437407306398e-01
1.79500000000000e+00 2.37011224191705e-01 1.43953499437638e-01
1.80500000000000e+00 2.26096488327195e-01 1.41222543194221e-01
1.81500000000000e+00 2.15100583995124e-01 1.38142589865948e-01
1.82500000000000e+00 2.04069683479710e-01 1.34677636560547e-01
1.83500000000000e+00 1.93047145968859e-01 1.30892385536758e-01
1.84500000000000e+00 1.82073237091480e-01 1.26848164484694e-01
1.85500000000000e+00 1.71184878098049e-01 1.22602997685166e-01
1.86500000000000e+00 1.60415425381325e-01 1.18211665639803e-01
1.87500000000000e+00 1.49794479890622e-01 1.13725765191031e-01
1.88500000000000e+00 1.39347725257034e-01 1.09193777907193e-01
1.89500000000000e+00 1.29096792694465e-01 1.04661155011122e-01
1.90500000000000e+00 1.19059149640339e-01 9.99907466187090e-02
1.91500000000000e+00 1.09303610882699e-01 9.49055889516227e-02
1.92500000000000e+00 9.99024414429140e-02 8.93685454951876e-02
1.93500000000000e+00 9.09160163274056e-02 8.35171660360989e-02
1.94500000000000e+00 8.23930503174418e-02 7.74756023490265e-02
1.95500000000000e+00 7.43710835384603e-02 7.13536260594090e-02
1.96500000000000e+00 6.68771860783440e-02 6.52460876341263e-02
1.97500000000000e+00 5.99288437236909e-02 5.92327657720730e-02
1.98500000000000e+00 5.35349874723636e-02 5.33785485711879e-02
1.99500000000000e+00 4.76971317464062e-02 4.77338821241317e-02
2.00500000000000e+00 4.24105897452531e-02 4.24142418273455e-02
2.01500000000000e+00 3.76555444116245e-02 3.75639481568861e-02
2.02500000000000e+00 3.33858361851323e-02 3.32187686208521e-02
2.03500000000000e+00 2.95584551990718e-02 2.93321879333157e-02
2.04500000000000e+00 2.61334390746126e-02 2.58611492034038e-02
2.05500000000000e+00 2.30737591516938e-02 2.27658960047346e-02
2.06500000000000e+00 2.03451979147821e-02 2.00098067038684e-02
2.07500000000000e+00 1.79162201671371e-02 1.75592236136889e-02
2.08500000000000e+00 1.57578402310495e-02 1.53832794620037e-02
2.09500000000000e+00 1.38434871951852e-02 1.34537235381610e-02
2.10500000000000e+00 1.21488699184568e-02 1.17541470598182e-02
2.11500000000000e+00 1.06610437931903e-02 1.02645911362099e-02
2.12500000000000e+00 9.35432784272199e-03 8.96745665103966e-03
2.13500000000000e+00 8.20619622817753e-03 7.83810358517148e-03
2.14500000000000e+00 7.19688425554764e-03 6.85509844422980e-03
2.15500000000000e+00 6.30904280124918e-03 5.99980166249798e-03
2.16500000000000e+00 5.52743507535076e-03 5.25600892094857e-03
2.17500000000000e+00 4.83867043414153e-03 4.60963925911005e-03
2.18500000000000e+00 4.23097059771009e-03 4.04846397062669e-03
2.19500000000000e+00 3.69396419224842e-03 3.56187112117828e-03
2.20500000000000e+00 3.21850601163082e-03 3.13690921135615e-03
2.21500000000000e+00 2.79868787783765e-03 2.75867263011040e-03
2.22500000000000e+00 2.42897174429124e-03 2.41967879259740e-03
2.23500000000000e+00 2.10423814463745e-03 2.11672107575348e-03
2.24500000000000e+00 1.81977771740201e-03 1.84670011330429e-03
2.25500000000000e+00 1.57127898822062e-03 1.60664516545380e-03
2.26500000000000e+00 1.35481328106345e-03 1.39372942235909e-03
2.27500000000000e+00 1.16681754487739e-03 1.20527993304815e-03
2.28500000000000e+00 1.00407579976522e-03 1.03878281019532e-03
2.29500000000000e+00 8.63699829431348e-04 8.91884300754431e-04
2.30500000000000e+00 7.43109677834172e-04 7.63493933615498e-04
2.31500000000000e+00 6.39804562486038e-04 6.53192822161133e-04
2.32500000000000e+00 5.51233707763400e-04 5.59301338795420e-04
2.33500000000000e+00 4.75229644141736e-04 4.79335132266234e-04
2.34500000000000e+00 4.09949246016931e-04 4.11194918236784e-04
2.35500000000000e+00 3.53823971288124e-04 3.53105949726383e-04
2.36500000000000e+00 3.05517838173835e-04 3.03567186023533e-04
2.37500000000000e+00 2.63891912198693e-04 2.61308581500355e-04
2.38500000000000e+00 2.27974273320028e-04 2.25255181108102e-04
2.39500000000000e+00 1.96934598067668e-04 1.94496926724531e-04
2.40500000000000e+00 1.70062629126755e-04 1.68155722315534e-04
2.41500000000000e+00 1.46807216471578e-04 1.45384841084941e-04
2.42500000000000e+00 1.26694190687441e-04 1.25616380752025e-04
2.43500000000000e+00 1.09310604379922e-04 1.08459981434014e-04
2.44500000000000e+00 9.42970874871684e-05 9.35743358912447e-05
2.45500000000000e+00 8.13411423841453e-05 8.06611096463090e-05
2.46500000000000e+00 7.01712686389430e-05 6.94595788877722e-05
2.47500000000000e+00 6.05518200234838e-05 5.97419021753149e-05
2.48500000000000e+00 5.22785077868646e-05 5.13089509309127e-05
2.49500000000000e+00 4.51744743884971e-05 4.39866315113212e-05
2.50500000000000e+00 3.90868710717343e-05 3.76626407971088e-05
2.51500000000000e+00 3.38756429072657e-05 3.22635356736395e-05
2.52500000000000e+00 2.94077772229657e-05 2.76813705115878e-05
2.53500000000000e+00 2.55712037144005e-05 2.37879257353587e-05
2.54500000000000e+00 2.22713757473080e-05 2.04758601393393e-05
2.55500000000000e+00 1.94284255156597e-05 1.76552150636798e-05
2.56500000000000e+00 1.69747940964343e-05 1.52505198951610e-05
2.57500000000000e+00 1.48532549615390e-05 1.31983928127466e-05
2.58500000000000e+00 1.30152638122956e-05 1.14455499640593e-05
2.59500000000000e+00 1.14195793411924e-05 9.94715186230878e-06
2.60500000000000e+00 1.00311091495711e-05 8.66277784709271e-06
2.61500000000000e+00 8.82203762245468e-06 7.55513242206141e-06
2.62500000000000e+00 7.76796260023998e-06 6.59686663466859e-06
2.63500000000000e+00 6.84791962472051e-06 5.76711157601272e-06
2.64500000000000e+00 6.04387976517369e-06 5.04802502453410e-06
2.65500000000000e+00 5.34032282515682e-06 4.42434031854456e-06
2.66500000000000e+00 4.72387430319206e-06 3.88298435699546e-06
2.67500000000000e+00 4.18299631834655e-06 3.41275387367996e-06
2.68500000000000e+00 3.70772425109390e-06 3.00404087768259e-06
2.69500000000000e+00 3.28944214178590e-06 2.64859966075480e-06
2.70500000000000e+00 2.92069095852105e-06 2.33909543063558e-06
2.71500000000000e+00 2.59671738811179e-06 2.06768832585814e-06
2.72500000000000e+00 2.31185870827088e-06 1.82924075622385e-06
2.73500000000000e+00 2.06120592328402e-06 1.61950651427405e-06
2.74500000000000e+00 1.84050026741374e-06 1.43480404030421e-06
2.75500000000000e+00 1.64604444584076e-06 1.27193816220001e-06
2.76500000000000e+00 1.47462644920206e-06 1.12813301965568e-06
2.77500000000000e+00 1.32345410922445e-06 1.00097450953988e-06
2.78500000000000e+00 1.19009883738387e-06 8.88360860221231e-07
2.79500000000000e+00 1.07244722075530e-06 7.88460160018652e-07
2.80500000000000e+00 9.68659343672055e-07 7.00362554803608e-07
2.81500000000000e+00 8.77395856206851e-07 6.23462748569716e-07
2.82500000000000e+00 7.96895022580369e-07 5.56859100726753e-07
2.83500000000000e+00 7.25651467322533e-07 4.99142785375669e-07
2.84500000000000e+00 6.62375800150937e-07 4.49119163743343e-07
2.85500000000000e+00 6.05961004065276e-07 4.05773078720048e-07
2.86500000000000e+00 5.55454417965547e-07 3.68239908027149e-07
2.87500000000000e+00 5.10034357656833e-07 3.35781358069656e-07
2.88500000000000e+00 4.68990589602101e-07 3.07765174794817e-07
2.89500000000000e+00 4.31708010467618e-07 2.83648102374301e-07
2.90500000000000e+00 3.97652997379916e-07 2.62557003775850e-07
2.91500000000000e+00 3.66501893543430e-07 2.43356829911652e-07
2.92500000000000e+00 3.38018325781270e-07 2.25505080248077e-07
2.93500000000000e+00 3.11985964353814e-07 2.08896424136966e-07
2.94500000000000e+00 2.88206901590415e-07 1.93432860225070e-07
2.95500000000000e+00 2.66500159409057e-07 1.79023167557623e-07
2.96500000000000e+00 2.46700316143097e-07 1.65582391031903e-07
2.97500000000000e+00 2.28656243537139e-07 1.53031359988365e-07
2.98500000000000e+00 2.12229945401083e-07 1.41296237898720e-07
2.99500000000000e+00 1.97295490055281e-07 1.30308097079313e-07
3.00500000000000e+00 1.83738030019975e-07 1.20050098211172e-07
3.01500000000000e+00 1.71322605509485e-07 1.10634798876531e-07
3.02500000000000e+00 1.59945975113488e-07 1.02023873119767e-07
3.03500000000000e+00 1.49514965173287e-07 9.41421929703521e-08
3.04500000000000e+00 1.39945432319075e-07 8.69220779168368e-08
3.05500000000000e+00 1.31161337731137e-07 8.03025193402060e-08
3.06500000000000e+00 1.23093920838846e-07 7.42284883380982e-08
3.07500000000000e+00 1.15680961302934e-07 6.86503188839396e-08
3.08500000000000e+00 1.08866119423375e-07 6.35231578095787e-08
3.09500000000000e+00 1.02598346256830e-07 5.88064745327924e-08
3.10500000000000e+00 9.68313556427219e-08 5.44739552118310e-08
3.11500000000000e+00 9.15373927158200e-08 5.04995641958106e-08
3.12500000000000e+00 8.66733531028646e-08 4.68611499928152e-08
3.13500000000000e+00 8.22002949319890e-08 4.35284713800322e-08
3.14500000000000e+00 7.80829970222193e-08 4.04743787717067e-08
3.15500000000000e+00 7.42895665980683e-08 3.76744842370768e-08
