Energy (eV)          EEDF (eV^-(3/2))     First Anisotropy
1.54838709677419e-02 8.56871399814098e-02 4.07877829325091e-05
4.64516129032258e-02 8.52117263089079e-02 6.73919377751030e-05
7.74193548387097e-02 8.47389503498014e-02 8.90702684094223e-05
1.08387096774194e-01 8.42687974703348e-02 1.05603701294277e-04
1.39354838709677e-01 8.38012531153674e-02 1.19446068069488e-04
1.70322580645161e-01 8.33363028134289e-02 1.31523341046628e-04
2.01290322580645e-01 8.28739321720387e-02 1.42313835621816e-04
2.32258064516129e-01 8.24141268785820e-02 1.52105876718348e-04
2.63225806451613e-01 8.19568727017151e-02 1.61090349290071e-04
2.94193548387097e-01 8.15021554851433e-02 1.69401929992135e-04
3.25161290322581e-01 8.10499611532113e-02 1.77140138559738e-04
3.56129032258065e-01 8.06002757083504e-02 1.84381158367979e-04
3.87096774193548e-01 8.01530852306478e-02 1.91184957749481e-04
4.18064516129032e-01 7.97083758774175e-02 1.97599821375169e-04
4.49032258064516e-01 7.92661338827729e-02 2.03665362170113e-04
4.80000000000000e-01 7.88263455572019e-02 2.09414596141708e-04
5.10967741935484e-01 7.83889972871406e-02 2.14875415006774e-04
5.41935483870968e-01 7.79540755345562e-02 2.20071658240039e-04
5.72903225806452e-01 7.75215668365298e-02 2.25023910716342e-04
6.03870967741935e-01 7.70914578048372e-02 2.29750107549429e-04
6.34838709677419e-01 7.66637351255344e-02 2.34266000436353e-04
6.65806451612903e-01 7.62383855585459e-02 2.38585522565064e-04
6.96774193548387e-01 7.58153959372547e-02 2.42721077932291e-04
7.27741935483871e-01 7.53947531680952e-02 2.46683773374609e-04
7.58709677419355e-01 7.49764442307086e-02 2.50483607036285e-04
7.89677419354839e-01 7.45604561758307e-02 2.54129622309779e-04
8.20645161290323e-01 7.41467761266289e-02 2.57630034969562e-04
8.51612903225806e-01 7.37353912777139e-02 2.60992339438265e-04
8.82580645161290e-01 7.33262888947437e-02 2.64223397641485e-04
9.13548387096774e-01 7.29194563140294e-02 2.67329514140283e-04
9.44516129032258e-01 7.25148809421428e-02 2.70316500003667e-04
9.75483870967742e-01 7.21125502555275e-02 2.73189727429827e-04
1.00645161290323e+00 7.17124518001091e-02 2.75954176451083e-04
1.03741935483871e+00 7.13145731924266e-02 2.78614476838896e-04
1.06838709677419e+00 7.09189021116581e-02 2.81174941108991e-04
1.09935483870968e+00 7.05254263137231e-02 2.83639596076545e-04
1.13032258064516e+00 7.01341336185923e-02 2.86012211662245e-04
1.16129032258065e+00 6.97450119137965e-02 2.88296322421208e-04
1.19225806451613e+00 6.93580491540938e-02 2.90495249731077e-04
1.22322580645161e+00 6.89732333579221e-02 2.92612118535684e-04
1.25419354838710e+00 6.85905526166331e-02 2.94649875028489e-04
1.28516129032258e+00 6.82099950843696e-02 2.96611302545263e-04
1.31612903225806e+00 6.78315489809880e-02 2.98499032862903e-04
1.34709677419355e+00 6.74552025917147e-02 3.00315559141276e-04
1.37806451612903e+00 6.70809442640559e-02 3.02063244882713e-04
1.40903225806452e+00 6.67087624157149e-02 3.03744334600091e-04
1.44000000000000e+00 6.63386455258349e-02 3.05360963559518e-04
1.47096774193548e+00 6.59705821374739e-02 3.06915163927917e-04
1.50193548387097e+00 6.56045608572591e-02 3.08408872444365e-04
1.53290322580645e+00 6.52405703550404e-02 3.09843937383981e-04
1.56387096774194e+00 6.48785993612230e-02 3.11222122976864e-04
1.59483870967742e+00 6.45186366734278e-02 3.12545115800988e-04
1.62580645161290e+00 6.41606711490441e-02 3.13814530715407e-04
1.65677419354839e+00 6.38046917072808e-02 3.15031913871676e-04
1.68774193548387e+00 6.34506873288357e-02 3.16198747840992e-04
1.71870967741935e+00 6.30986470535016e-02 3.17316454069681e-04
1.74967741935484e+00 6.27485599860279e-02 3.18386397336810e-04
1.78064516129032e+00 6.24004152895088e-02 3.19409889940250e-04
1.81161290322581e+00 6.20542021871587e-02 3.20388193303418e-04
1.84258064516129e+00 6.17099099619943e-02 3.21322521664299e-04
1.87354838709677e+00 6.13675279546691e-02 3.22214043384883e-04
1.90451612903226e+00 6.10270455686751e-02 3.23063884217982e-04
1.93548387096774e+00 6.06884522644224e-02 3.23873130407213e-04
1.96645161290323e+00 6.03517375607904e-02 3.24642829456736e-04
1.99741935483871e+00 6.00168910348194e-02 3.25373992908133e-04
2.02838709677419e+00 5.96839023197407e-02 3.26067596955713e-04
2.05935483870968e+00 5.93527611096225e-02 3.26724584944280e-04
2.09032258064516e+00 5.90234571540321e-02 3.27345869760038e-04
2.12129032258064e+00 5.86959802594038e-02 3.27932334087794e-04
2.15225806451613e+00 5.83703202887339e-02 3.28484832582827e-04
2.18322580645161e+00 5.80464671597812e-02 3.29004192052736e-04
2.21419354838710e+00 5.77244108492419e-02 3.29491213438110e-04
2.24516129032258e+00 5.74041413879068e-02 3.29946673721373e-04
2.27612903225806e+00 5.70856488618752e-02 3.30371325862894e-04
2.30709677419355e+00 5.67689234122538e-02 3.30765900555543e-04
2.33806451612903e+00 5.64539552335053e-02 3.31131106131744e-04
2.36903225806452e+00 5.61407345772184e-02 3.31467630182480e-04
2.40000000000000e+00 5.58292517476915e-02 3.31776141126288e-04
2.43096774193548e+00 5.55194971030154e-02 3.32057287942146e-04
2.46193548387097e+00 5.52114610547775e-02 3.32311701296428e-04
2.49290322580645e+00 5.49051340677664e-02 3.32539994594486e-04
2.52387096774194e+00 5.46005066584735e-02 3.32742763687867e-04
2.55483870967742e+00 5.42975693984359e-02 3.32920588185097e-04
2.58580645161290e+00 5.39963129102733e-02 3.33074032729992e-04
2.61677419354839e+00 5.36967278686326e-02 3.33203646588448e-04
2.64774193548387e+00 5.33988049999032e-02 3.33309964848795e-04
2.67870967741935e+00 5.31025350808256e-02 3.33393508026738e-04
2.70967741935484e+00 5.28079089415388e-02 3.33454783191421e-04
2.74064516129032e+00 5.25149174619336e-02 3.33494285069403e-04
2.77161290322581e+00 5.22235515724996e-02 3.33512495557271e-04
2.80258064516129e+00 5.19338022540496e-02 3.33509884764262e-04
2.83354838709677e+00 5.16456605364240e-02 3.33486910553015e-04
2.86451612903226e+00 5.13591175012784e-02 3.33444019523762e-04
2.89548387096774e+00 5.10741642787161e-02 3.33381647983582e-04
2.92645161290323e+00 5.07907920480503e-02 3.33300221414294e-04
2.95741935483871e+00 5.05089920375367e-02 3.33200155392119e-04
2.98838709677419e+00 5.02287555231647e-02 3.33081855089812e-04
3.01935483870968e+00 4.99500738312134e-02 3.32945716149282e-04
3.05032258064516e+00 4.96729383351335e-02 3.32792125543768e-04
3.08129032258064e+00 4.93973404562360e-02 3.32621461021608e-04
3.11225806451613e+00 4.91232716634307e-02 3.32434091927860e-04
3.14322580645161e+00 4.88507234720962e-02 3.32230378684455e-04
3.17419354838710e+00 4.85796874464305e-02 3.32010673573602e-04
3.20516129032258e+00 4.83101551965552e-02 3.31775321513375e-04
3.23612903225806e+00 4.80421183791397e-02 3.31524659490835e-04
3.26709677419355e+00 4.77755686971454e-02 3.31259017303839e-04
3.29806451612903e+00 4.75104978987673e-02 3.30978717031200e-04
3.32903225806452e+00 4.72468977796003e-02 3.30684073743059e-04
3.36000000000000e+00 4.69847601799437e-02 3.30375396205112e-04
3.39096774193548e+00 4.67240769853683e-02 3.30052986310306e-04
3.42193548387097e+00 4.64648401264656e-02 3.29717139519029e-04
3.45290322580645e+00 4.62070415785997e-02 3.29368145270935e-04
3.48387096774194e+00 4.59506733609253e-02 3.29006286455442e-04
3.51483870967742e+00 4.56957275383535e-02 3.28631840048410e-04
3.54580645161290e+00 4.54421962190758e-02 3.28245077744811e-04
3.57677419354839e+00 4.51900715550693e-02 3.27846265397872e-04
3.60774193548387e+00 4.49393457418550e-02 3.27435663628980e-04
3.63870967741935e+00 4.46900110175737e-02 3.27013527303476e-04
3.66967741935484e+00 4.44420596648056e-02 3.26580106116972e-04
3.70064516129032e+00 4.41954840082558e-02 3.26135645179404e-04
3.73161290322581e+00 4.39502764152127e-02 3.25680384463474e-04
3.76258064516129e+00 4.37064292953147e-02 3.25214559368427e-04
3.79354838709677e+00 4.34639350996770e-02 3.24738400204663e-04
3.82451612903226e+00 4.32227863225808e-02 3.24252132736783e-04
3.85548387096774e+00 4.29829754993042e-02 3.23755978725706e-04
3.88645161290323e+00 4.27444952065404e-02 3.23250155389088e-04
3.91741935483871e+00 4.25073380621701e-02 3.22734875925049e-04
3.94838709677419e+00 4.22714967244377e-02 3.22210349008102e-04
3.97935483870968e+00 4.20369638935200e-02 3.21676779294657e-04
4.01032258064516e+00 4.18037323094909e-02 3.21134367928161e-04
4.04129032258064e+00 4.15717947527034e-02 3.20583312013601e-04
4.07225806451613e+00 4.13411440435677e-02 3.20023805106224e-04
4.10322580645161e+00 4.11117730417719e-02 3.19456036720065e-04
4.13419354838710e+00 4.08836746477421e-02 3.18880192800502e-04
4.16516129032258e+00 4.06568418007295e-02 3.18296456196766e-04
4.19612903225806e+00 4.04312674791593e-02 3.17705006151772e-04
4.22709677419355e+00 4.02069447004148e-02 3.17106018759728e-04
4.25806451612903e+00 3.99838665200991e-02 3.16499666488251e-04
4.28903225806452e+00 3.97620260333959e-02 3.15886118621792e-04
4.32000000000000e+00 3.95414163732692e-02 3.15265541705072e-04
4.35096774193548e+00 3.93220307107824e-02 3.14638099048762e-04
4.38193548387097e+00 3.91038622548876e-02 3.14003950984106e-04
4.41290322580645e+00 3.88869042522159e-02 3.13363255101212e-04
4.44387096774194e+00 3.86711499863853e-02 3.12716165789255e-04
4.47483870967742e+00 3.84565927792503e-02 3.12062834647821e-04
4.50580645161290e+00 3.82432259892274e-02 3.11403410898665e-04
4.53677419354839e+00 3.80310430115819e-02 3.10738040911343e-04
4.56774193548387e+00 3.78200372782247e-02 3.10066868603543e-04
4.59870967741935e+00 3.76102022570541e-02 3.09390034996050e-04
4.62967741935484e+00 3.74015314531246e-02 3.08707678600792e-04
4.66064516129032e+00 3.71940184070654e-02 3.08019935809768e-04
4.69161290322581e+00 3.69876566953437e-02 3.07326940436519e-04
4.72258064516129e+00 3.67824399300668e-02 3.06628824094254e-04
4.75354838709677e+00 3.65783617583564e-02 3.05925715765689e-04
4.78451612903226e+00 3.63754158634420e-02 3.05217742169878e-04
4.81548387096774e+00 3.61735959631668e-02 3.04505028130323e-04
4.84645161290323e+00 3.59728958102283e-02 3.03787696132228e-04
4.87741935483871e+00 3.57733091919865e-02 3.03065866680292e-04
4.90838709677419e+00 3.55748299298685e-02 3.02339657883328e-04
4.93935483870968e+00 3.53774518803916e-02 3.01609185801760e-04
4.97032258064516e+00 3.51811689337509e-02 3.00874564796457e-04
5.00129032258064e+00 3.49859750140398e-02 3.00135907101664e-04
5.03225806451613e+00 3.47918640790628e-02 2.99393323164296e-04
5.06322580645161e+00 3.45988301197686e-02 2.98646921242835e-04
5.09419354838710e+00 3.44068671612099e-02 2.97896807737151e-04
5.12516129032258e+00 3.42159692612051e-02 2.97143087519629e-04
5.15612903225806e+00 3.40261305105410e-02 2.96385863523478e-04
5.18709677419355e+00 3.38373450327904e-02 2.95625237064910e-04
5.21806451612903e+00 3.36496069837721e-02 2.94861307455938e-04
5.24903225806452e+00 3.34629105524511e-02 2.94094172318067e-04
5.28000000000000e+00 3.32772499596704e-02 2.93323927897038e-04
5.31096774193548e+00 3.30926194583369e-02 2.92550668665907e-04
5.34193548387097e+00 3.29090133332440e-02 2.91774487497956e-04
5.37290322580645e+00 3.27264259008948e-02 2.90995475828322e-04
5.40387096774194e+00 3.25448515089917e-02 2.90213723283742e-04
5.43483870967742e+00 3.23642845372701e-02 2.89429317977621e-04
5.46580645161290e+00 3.21847193963093e-02 2.88642346806218e-04
5.49677419354839e+00 3.20061505277001e-02 2.87852895069580e-04
5.52774193548387e+00 3.18285724038729e-02 2.87061046760440e-04
5.55870967741935e+00 3.16519795276109e-02 2.86266884207323e-04
5.58967741935484e+00 3.14763664328329e-02 2.85470488355643e-04
5.62064516129032e+00 3.13017276834647e-02 2.84671939050147e-04
5.65161290322581e+00 3.11280578735927e-02 2.83871314669542e-04
5.68258064516129e+00 3.09553516272971e-02 2.83068692402005e-04
5.71354838709677e+00 3.07836035981862e-02 2.82264147901192e-04
5.74451612903226e+00 3.06128084701329e-02 2.81457755554220e-04
5.77548387096774e+00 3.04429609562026e-02 2.80649588751366e-04
5.80645161290323e+00 3.02740557987936e-02 2.79839719533986e-04
5.83741935483871e+00 3.01060877694751e-02 2.79028218857305e-04
5.86838709677419e+00 2.99390516685419e-02 2.78215156258990e-04
5.89935483870968e+00 2.97729423257079e-02 2.77400600115113e-04
5.93032258064516e+00 2.96077545990862e-02 2.76584617897512e-04
5.96129032258064e+00 2.94434833753182e-02 2.75767275834729e-04
5.99225806451613e+00 2.92801235694157e-02 2.74948639163068e-04
6.02322580645161e+00 2.91176701243352e-02 2.74128771807035e-04
6.05419354838710e+00 2.89561180116307e-02 2.73307736624011e-04
6.08516129032258e+00 2.87954622304839e-02 2.72485595650229e-04
6.11612903225806e+00 2.86356978078217e-02 2.71662409774170e-04
6.14709677419355e+00 2.84768197981633e-02 2.70838238976528e-04
6.17806451612903e+00 2.83188232832123e-02 2.70013142022248e-04
6.20903225806452e+00 2.81617033724722e-02 2.69187176694485e-04
6.24000000000000e+00 2.80054552023226e-02 2.68360400029866e-04
6.27096774193548e+00 2.78500739361277e-02 2.67532868003967e-04
6.30193548387097e+00 2.76955547640863e-02 2.66704635657247e-04
6.33290322580645e+00 2.75418929030837e-02 2.65875757212928e-04
6.36387096774194e+00 2.73890835963042e-02 2.65046285782756e-04
6.39483870967742e+00 2.72371221138046e-02 2.64216273588567e-04
6.42580645161290e+00 2.70860037516425e-02 2.63385772185209e-04
6.45677419354839e+00 2.69357238319746e-02 2.62554832160149e-04
6.48774193548387e+00 2.67862777029113e-02 2.61723503351172e-04
6.51870967741935e+00 2.66376607381464e-02 2.60891834562859e-04
6.54967741935484e+00 2.64898683374975e-02 2.60059873778782e-04
6.58064516129032e+00 2.63428959260757e-02 2.59227668375038e-04
6.61161290322581e+00 2.61967389543748e-02 2.58395264830797e-04
6.64258064516129e+00 2.60513928981305e-02 2.57562708936882e-04
6.67354838709677e+00 2.59068532579649e-02 2.56730045522480e-04
6.70451612903226e+00 2.57631155598969e-02 2.55897318658455e-04
6.73548387096774e+00 2.56201753545506e-02 2.55064571862126e-04
6.76645161290323e+00 2.54780282172358e-02 2.54231847818261e-04
6.79741935483871e+00 2.53366697478121e-02 2.53399188578967e-04
6.82838709677419e+00 2.51960955703472e-02 2.52566635300375e-04
6.85935483870968e+00 2.50563013335997e-02 2.51734228437536e-04
6.89032258064516e+00 2.49172827102626e-02 2.50902007940735e-04
6.92129032258064e+00 2.47790353970379e-02 2.50070012986691e-04
6.95225806451613e+00 2.46415551145034e-02 2.49238282170244e-04
6.98322580645161e+00 2.45048376067857e-02 2.48406853250503e-04
7.01419354838710e+00 2.43688786420156e-02 2.47575763337829e-04
7.04516129032258e+00 2.42336740116063e-02 2.46745049082125e-04
7.07612903225806e+00 2.40992195303215e-02 2.45914746413876e-04
7.10709677419355e+00 2.39655110361454e-02 2.45084890728005e-04
7.13806451612903e+00 2.38325443899691e-02 2.44255516639125e-04
7.16903225806452e+00 2.37003154760210e-02 2.43426658161022e-04
7.20000000000000e+00 2.35688202011778e-02 2.42598348887357e-04
7.23096774193548e+00 2.34380544950253e-02 2.41770621742130e-04
7.26193548387097e+00 2.33080143097333e-02 2.40943509074942e-04
7.29290322580645e+00 2.31786956199301e-02 2.40117042750179e-04
7.32387096774194e+00 2.30500944224032e-02 2.39291253912989e-04
7.35483870967742e+00 2.29222067365018e-02 2.38466173160051e-04
7.38580645161290e+00 2.27950286034843e-02 2.37641830711404e-04
7.41677419354839e+00 2.26685560865733e-02 2.36818256171890e-04
7.44774193548387e+00 2.25427852708334e-02 2.35995478699213e-04
7.47870967741935e+00 2.24177122628844e-02 2.35173526778346e-04
7.50967741935484e+00 2.22933331912816e-02 2.34352428385470e-04
7.54064516129032e+00 2.21696442058920e-02 2.33532211153100e-04
7.57161290322581e+00 2.20466414779440e-02 2.32712902140109e-04
7.60258064516129e+00 2.19243211999093e-02 2.31894527993117e-04
7.63354838709677e+00 2.18026795852260e-02 2.31077114729029e-04
7.66451612903226e+00 2.16817128686599e-02 2.30260687892509e-04
7.69548387096774e+00 2.15614173057068e-02 2.29445272714687e-04
7.72645161290323e+00 2.14417891726379e-02 2.28630893891438e-04
7.75741935483871e+00 2.13228247663849e-02 2.27817575738441e-04
7.78838709677419e+00 2.12045204042739e-02 2.27005341981487e-04
7.81935483870968e+00 2.10868724243671e-02 2.26194215907820e-04
7.85032258064516e+00 2.09698771848913e-02 2.25384220518729e-04
7.88129032258064e+00 2.08535310642788e-02 2.24575378315737e-04
7.91225806451613e+00 2.07378304610554e-02 2.23767711449689e-04
7.94322580645161e+00 2.06227717935845e-02 2.22961241518476e-04
7.97419354838710e+00 2.05083515003913e-02 2.22155989712566e-04
8.00516129032258e+00 2.03945660396151e-02 2.21351976961706e-04
8.03612903225806e+00 2.02814118890463e-02 2.20549223728783e-04
8.06709677419355e+00 2.01688855460175e-02 2.19747750153150e-04
8.09806451612903e+00 2.00569835271577e-02 2.18947575855512e-04
8.12903225806452e+00 1.99457023686987e-02 2.18148720077928e-04
8.16000000000000e+00 1.98350386259512e-02 2.17351201824881e-04
8.19096774193548e+00 1.97249888733381e-02 2.16555039664523e-04
8.22193548387097e+00 1.96155497042879e-02 2.15760251802292e-04
8.25290322580645e+00 1.95067177311299e-02 2.14966856149875e-04
8.28387096774193e+00 1.93984895848594e-02 2.14174870138503e-04
8.31483870967742e+00 1.92908619154244e-02 2.13384310852471e-04
8.34580645161290e+00 1.91838313912289e-02 2.12595195163641e-04
8.37677419354839e+00 1.90773946991613e-02 2.11807539541262e-04
8.40774193548387e+00 1.89715485444920e-02 2.11021360183549e-04
8.43870967741936e+00 1.88662896506475e-02 2.10236672837607e-04
8.46967741935484e+00 1.87616147594828e-02 2.09453492927846e-04
8.50064516129032e+00 1.86575206308045e-02 2.08671835685477e-04
8.53161290322581e+00 1.85540040423966e-02 2.07891715965049e-04
8.56258064516129e+00 1.84510617899210e-02 2.07113148371068e-04
8.59354838709677e+00 1.83486906866994e-02 2.06336147084232e-04
8.62451612903226e+00 1.82468875639723e-02 2.05560725985041e-04
8.65548387096774e+00 1.81456492704414e-02 2.04786898778533e-04
8.68645161290322e+00 1.80449726722926e-02 2.04014678817213e-04
8.71741935483871e+00 1.79448546530992e-02 2.03244079222907e-04
8.74838709677419e+00 1.78452921136119e-02 2.02475112719189e-04
8.77935483870968e+00 1.77462819720043e-02 2.01707791750357e-04
8.81032258064516e+00 1.76478211634346e-02 2.00942128601449e-04
8.84129032258065e+00 1.75499066400652e-02 2.00178135227481e-04
8.87225806451613e+00 1.74525353709688e-02 1.99415823370788e-04
8.90322580645161e+00 1.73557043419266e-02 1.98655204399246e-04
8.93419354838710e+00 1.72594105556603e-02 1.97896289420882e-04
8.96516129032258e+00 1.71636510314125e-02 1.97139089399453e-04
8.99612903225806e+00 1.70684228049634e-02 1.96383614989684e-04
9.02709677419355e+00 1.69737229285396e-02 1.95629876650247e-04
9.05806451612903e+00 1.68795484706195e-02 1.94877884487607e-04
9.08903225806452e+00 1.67858965161538e-02 1.94127648366461e-04
9.12000000000000e+00 1.66927641661624e-02 1.93379178021038e-04
9.15096774193548e+00 1.66001485377494e-02 1.92632482896103e-04
9.18193548387097e+00 1.65080467640139e-02 1.91887572204668e-04
9.21290322580645e+00 1.64164559939613e-02 1.91144454982084e-04
9.24387096774194e+00 1.63253733923173e-02 1.90403139936455e-04
9.27483870967742e+00 1.62347961397351e-02 1.89663635554128e-04
9.30580645161290e+00 1.61447214324113e-02 1.88925950206035e-04
9.33677419354839e+00 1.60551464820987e-02 1.88190091995453e-04
9.36774193548387e+00 1.59660685160204e-02 1.87456068862064e-04
9.39870967741935e+00 1.58774847766895e-02 1.86723888437554e-04
9.42967741935484e+00 1.57893925221067e-02 1.85993558147310e-04
9.46064516129032e+00 1.57017890253915e-02 1.85265085312891e-04
9.49161290322581e+00 1.56146715747926e-02 1.84538477005021e-04
9.52258064516129e+00 1.55280374736044e-02 1.83813740143913e-04
9.55354838709677e+00 1.54418840399936e-02 1.83090881359875e-04
9.58451612903226e+00 1.53562086071865e-02 1.82369907091251e-04
9.61548387096774e+00 1.52710085231149e-02 1.81650823683257e-04
9.64645161290323e+00 1.51862811504247e-02 1.80933637246065e-04
9.67741935483871e+00 1.51020238663948e-02 1.80218353751466e-04
9.70838709677419e+00 1.50182340627697e-02 1.79504978898278e-04
9.73935483870968e+00 1.49349091459376e-02 1.78793518206758e-04
9.77032258064516e+00 1.48520465365900e-02 1.78083977113916e-04
