Energy (eV)          EEDF (eV^-(3/2))     First Anisotropy
9.52830188679245e-03 2.25902013466399e-01 1.16245220457184e-04
2.85849056603774e-02 2.24430332039011e-01 1.91974018073164e-04
4.76415094339623e-02 2.22968238163612e-01 2.53480762831601e-04
6.66981132075472e-02 2.21515669374638e-01 3.00240391795787e-04
8.57547169811321e-02 2.20072563619436e-01 3.39265399708863e-04
1.04811320754717e-01 2.18638859249392e-01 3.73205709001260e-04
1.23867924528302e-01 2.17214495013342e-01 4.03431962947249e-04
1.42924528301887e-01 2.15799410076691e-01 4.30771444927740e-04
1.61981132075472e-01 2.14393543976338e-01 4.55772556142640e-04
1.81037735849057e-01 2.12996836654885e-01 4.78822705061240e-04
2.00094339622642e-01 2.11609228445914e-01 5.00208532890196e-04
2.19150943396226e-01 2.10230660071891e-01 5.20149743258359e-04
2.38207547169811e-01 2.08861072647465e-01 5.38819497180537e-04
2.57264150943396e-01 2.07500407658256e-01 5.56357394402392e-04
2.76320754716981e-01 2.06148606977468e-01 5.72878105693724e-04
2.95377358490566e-01 2.04805612857036e-01 5.88477324473182e-04
3.14433962264151e-01 2.03471367929490e-01 6.03235993042812e-04
3.33490566037736e-01 2.02145815192086e-01 6.17223379109984e-04
3.52547169811321e-01 2.00828898017998e-01 6.30499365701748e-04
3.71603773584906e-01 1.99520560149275e-01 6.43116190241129e-04
3.90660377358491e-01 1.98220745697885e-01 6.55119786026868e-04
4.09716981132075e-01 1.96929399132980e-01 6.66550831010655e-04
4.28773584905660e-01 1.95646465288990e-01 6.77445579556575e-04
4.47830188679245e-01 1.94371889359680e-01 6.87836532034591e-04
4.66886792452830e-01 1.93105616895895e-01 6.97752976238249e-04
4.85943396226415e-01 1.91847593805832e-01 7.07221432670578e-04
5.05000000000000e-01 1.90597766344713e-01 7.16266020909269e-04
5.24056603773585e-01 1.89356081120597e-01 7.24908764732053e-04
5.43113207547170e-01 1.88122485089370e-01 7.33169849653043e-04
5.62169811320755e-01 1.86896925554700e-01 7.41067840541149e-04
5.81226415094340e-01 1.85679350159082e-01 7.48619865543038e-04
6.00283018867925e-01 1.84469706888368e-01 7.55841773349917e-04
6.19339622641509e-01 1.83267944067244e-01 7.62748270066530e-04
6.38396226415094e-01 1.82074010357063e-01 7.69353036078935e-04
6.57452830188679e-01 1.80887854755456e-01 7.75668829036875e-04
6.76509433962264e-01 1.79709426588617e-01 7.81707572368470e-04
6.95566037735849e-01 1.78538675514727e-01 7.87480432785606e-04
7.14622641509434e-01 1.77375551519931e-01 7.92997889647309e-04
7.33679245283019e-01 1.76220004917788e-01 7.98269796184090e-04
7.52735849056604e-01 1.75071986342339e-01 8.03305432773480e-04
7.71792452830189e-01 1.73931446750850e-01 8.08113554259212e-04
7.90849056603774e-01 1.72798337420075e-01 8.12702433234855e-04
8.09905660377359e-01 1.71672609945585e-01 8.17079898738275e-04
8.28962264150943e-01 1.70554216235477e-01 8.21253370058126e-04
8.48018867924528e-01 1.69443108512574e-01 8.25229887101392e-04
8.67075471698113e-01 1.68339239310942e-01 8.29016139008631e-04
8.86132075471698e-01 1.67242561473879e-01 8.32618488867801e-04
9.05188679245283e-01 1.66153028153102e-01 8.36042997249944e-04
9.24245283018868e-01 1.65070592803091e-01 8.39295442509143e-04
9.43301886792453e-01 1.63995209182782e-01 8.42381339224341e-04
9.62358490566038e-01 1.62926831352357e-01 8.45305955938919e-04
9.81415094339623e-01 1.61865413672365e-01 8.48074331344585e-04
1.00047169811321e+00 1.60810910798500e-01 8.50691288308007e-04
1.01952830188679e+00 1.59763277682961e-01 8.53161445906983e-04
1.03858490566038e+00 1.58722469575361e-01 8.55489235876831e-04
1.05764150943396e+00 1.57688442003032e-01 8.57678907626982e-04
1.07669811320755e+00 1.56661150802700e-01 8.59734542936542e-04
1.09575471698113e+00 1.55640552079476e-01 8.61660064525353e-04
1.11481132075472e+00 1.54626602243381e-01 8.63459242764287e-04
1.13386792452830e+00 1.53619257978756e-01 8.65135711713576e-04
1.15292452830189e+00 1.52618476243557e-01 8.66692965176827e-04
1.17198113207547e+00 1.51624214293689e-01 8.68134369599075e-04
1.19103773584906e+00 1.50636429654557e-01 8.69463176113840e-04
1.21009433962264e+00 1.49655080120333e-01 8.70682515686062e-04
1.22915094339623e+00 1.48680123776422e-01 8.71795412081093e-04
1.24820754716981e+00 1.47711518965280e-01 8.72804785563412e-04
1.26726415094340e+00 1.46749224316477e-01 8.73713455994543e-04
1.28632075471698e+00 1.45793198721092e-01 8.74524154461822e-04
1.30537735849057e+00 1.44843401330840e-01 8.75239517390208e-04
1.32443396226415e+00 1.43899791578210e-01 8.75862095820270e-04
1.34349056603774e+00 1.42962329152499e-01 8.76394364145911e-04
1.36254716981132e+00 1.42030973998919e-01 8.76838713941509e-04
1.38160377358491e+00 1.41105686337313e-01 8.77197463835713e-04
1.40066037735849e+00 1.40186426633205e-01 8.77472861257995e-04
1.41971698113208e+00 1.39273155622928e-01 8.77667083773795e-04
1.43877358490566e+00 1.38365834291868e-01 8.77782248162787e-04
1.45783018867925e+00 1.37464423873484e-01 8.77820403922390e-04
1.47688679245283e+00 1.36568885866213e-01 8.77783540441017e-04
1.49594339622642e+00 1.35679182012995e-01 8.77673593794257e-04
1.51500000000000e+00 1.34795274300279e-01 8.77492440227535e-04
1.53405660377358e+00 1.33917124973826e-01 8.77241904118179e-04
1.55311320754717e+00 1.33044696513860e-01 8.76923758706873e-04
1.57216981132075e+00 1.32177951656357e-01 8.76539726519381e-04
1.59122641509434e+00 1.31316853374301e-01 8.76091486812604e-04
1.61028301886792e+00 1.30461364876669e-01 8.75580669045660e-04
1.62933962264151e+00 1.29611449622772e-01 8.75008858708586e-04
1.64839622641509e+00 1.28767071304559e-01 8.74377602870413e-04
1.66745283018868e+00 1.27928193845576e-01 8.73688403743112e-04
1.68650943396226e+00 1.27094781414444e-01 8.72942725354785e-04
1.70556603773585e+00 1.26266798403307e-01 8.72141993729186e-04
1.72462264150943e+00 1.25444209446050e-01 8.71287596816606e-04
1.74367924528302e+00 1.24626979401997e-01 8.70380890808163e-04
1.76273584905660e+00 1.23815073354872e-01 8.69423193828484e-04
1.78179245283019e+00 1.23008456625089e-01 8.68415790838435e-04
1.80084905660377e+00 1.22207094754310e-01 8.67359938318302e-04
1.81990566037736e+00 1.21410953504385e-01 8.66256858100669e-04
1.83896226415094e+00 1.20619998868941e-01 8.65107743112909e-04
1.85801886792453e+00 1.19834197054540e-01 8.63913757249128e-04
1.87707547169811e+00 1.19053514496388e-01 8.62676035033608e-04
1.89613207547170e+00 1.18277917844046e-01 8.61395687098869e-04
1.91518867924528e+00 1.17507373960388e-01 8.60073794208679e-04
1.93424528301887e+00 1.16741849932207e-01 8.58711411482767e-04
1.95330188679245e+00 1.15981313056641e-01 8.57309572444033e-04
1.97235849056604e+00 1.15225730840113e-01 8.55869283198274e-04
1.99141509433962e+00 1.14475071008362e-01 8.54391527466963e-04
2.01047169811321e+00 1.13729301489853e-01 8.52877266287021e-04
2.02952830188679e+00 1.12988390429427e-01 8.51327437530574e-04
2.04858490566038e+00 1.12252306175674e-01 8.49742960734614e-04
2.06764150943396e+00 1.11521017279910e-01 8.48124731493382e-04
2.08669811320755e+00 1.10794492505391e-01 8.46473626143294e-04
2.10575471698113e+00 1.10072700811893e-01 8.44790501389966e-04
2.12481132075472e+00 1.09355611368297e-01 8.43076193769368e-04
2.14386792452830e+00 1.08643193540853e-01 8.41331524156468e-04
2.16292452830189e+00 1.07935416892151e-01 8.39557292375409e-04
2.18198113207547e+00 1.07232251189621e-01 8.37754280640541e-04
2.20103773584906e+00 1.06533666394330e-01 8.35923256865515e-04
2.22009433962264e+00 1.05839632659965e-01 8.34064969429712e-04
2.23915094339623e+00 1.05150120340889e-01 8.32180151364616e-04
2.25820754716981e+00 1.04465099978435e-01 8.30269519919372e-04
2.27726415094340e+00 1.03784542311935e-01 8.28333775978598e-04
2.29632075471698e+00 1.03108418268268e-01 8.26373608105978e-04
2.31537735849057e+00 1.02436698960850e-01 8.24389687525890e-04
2.33443396226415e+00 1.01769355697088e-01 8.22382671197506e-04
2.35349056603774e+00 1.01106359968374e-01 8.20353204776191e-04
2.37254716981132e+00 1.00447683449095e-01 8.18301917743512e-04
2.39160377358491e+00 9.97932980037029e-02 8.16229427178401e-04
2.41066037735849e+00 9.91431756744757e-02 8.14136337294498e-04
2.42971698113208e+00 9.84972886912311e-02 8.12023238844868e-04
2.44877358490566e+00 9.78556094619679e-02 8.09890712774809e-04
2.46783018867925e+00 9.72181105718897e-02 8.07739325557769e-04
2.48688679245283e+00 9.65847647899608e-02 8.05569631963544e-04
2.50594339622642e+00 9.59555450599357e-02 8.03382177729100e-04
2.52500000000000e+00 9.53304244993959e-02 8.01177495033558e-04
2.54405660377358e+00 9.47093764059860e-02 7.98956105916072e-04
2.56311320754717e+00 9.40923742464324e-02 7.96718521805385e-04
2.58216981132075e+00 9.34793916651367e-02 7.94465242929671e-04
2.60122641509434e+00 9.28704024757623e-02 7.92196761634670e-04
2.62028301886792e+00 9.22653806602917e-02 7.89913558052192e-04
2.63933962264151e+00 9.16643003748167e-02 7.87616102608615e-04
2.65839622641509e+00 9.10671359414633e-02 7.85304858448125e-04
2.67745283018868e+00 9.04738618474598e-02 7.82980277230072e-04
2.69650943396226e+00 8.98844527506548e-02 7.80642802242385e-04
2.71556603773585e+00 8.92988834696307e-02 7.78292867935872e-04
2.73462264150943e+00 8.87171289913323e-02 7.75930899349107e-04
2.75367924528302e+00 8.81391644634761e-02 7.73557315136336e-04
2.77273584905660e+00 8.75649651936426e-02 7.71172523545918e-04
2.79179245283019e+00 8.69945066544069e-02 7.68776924704261e-04
2.81084905660377e+00 8.64277644760452e-02 7.66370912824850e-04
2.82990566037736e+00 8.58647144456361e-02 7.63954872305725e-04
2.84896226415094e+00 8.53053325119579e-02 7.61529180576231e-04
2.86801886792453e+00 8.47495947765592e-02 7.59094207643590e-04
2.88707547169811e+00 8.41974775005526e-02 7.56650315539393e-04
2.90613207547170e+00 8.36489570977448e-02 7.54197861092301e-04
2.92518867924528e+00 8.31040101337636e-02 7.51737192193787e-04
2.94424528301887e+00 8.25626133306184e-02 7.49268649885823e-04
2.96330188679245e+00 8.20247435600920e-02 7.46792570382194e-04
2.98235849056604e+00 8.14903778428758e-02 7.44309281444074e-04
3.00141509433962e+00 8.09594933529290e-02 7.41819104991155e-04
3.02047169811321e+00 8.04320674093899e-02 7.39322356664839e-04
3.03952830188679e+00 7.99080774826436e-02 7.36819345299801e-04
3.05858490566038e+00 7.93875011880857e-02 7.34310375470492e-04
3.07764150943396e+00 7.88703162852857e-02 7.31795744022311e-04
3.09669811320755e+00 7.83565006820507e-02 7.29275742555848e-04
3.11575471698113e+00 7.78460324267981e-02 7.26750656999475e-04
3.13481132075472e+00 7.73388897142299e-02 7.24220767094450e-04
3.15386792452830e+00 7.68350508794496e-02 7.21686348819056e-04
3.17292452830189e+00 7.63344943971423e-02 7.19147671068866e-04
3.19198113207547e+00 7.58371988853727e-02 7.16604997475604e-04
3.21103773584906e+00 7.53431430999114e-02 7.14058588170740e-04
3.23009433962264e+00 7.48523059334321e-02 7.11508696561843e-04
3.24915094339623e+00 7.43646664191419e-02 7.08955571620470e-04
3.26820754716981e+00 7.38802037238452e-02 7.06399457474923e-04
3.28726415094340e+00 7.33988971530310e-02 7.03840592922553e-04
3.30632075471698e+00 7.29207261455118e-02 7.01279213664404e-04
3.32537735849057e+00 7.24456702726394e-02 6.98715549219552e-04
3.34443396226415e+00 7.19737092417013e-02 6.96149824599532e-04
3.36349056603774e+00 7.15048228907470e-02 6.93582261933603e-04
3.38254716981132e+00 7.10389911878183e-02 6.91013077471647e-04
3.40160377358491e+00 7.05761942341999e-02 6.88442483695070e-04
3.42066037735849e+00 7.01164122580972e-02 6.85870688930539e-04
3.43971698113208e+00 6.96596256192080e-02 6.83297896889538e-04
3.45877358490566e+00 6.92058148038256e-02 6.80724308732024e-04
3.47783018867925e+00 6.87549604240897e-02 6.78150120196612e-04
3.49688679245283e+00 6.83070432210302e-02 6.75575523145584e-04
3.51594339622642e+00 6.78620440598390e-02 6.73000707065436e-04
3.53500000000000e+00 6.74199439291331e-02 6.70425856278546e-04
3.55405660377359e+00 6.69807239438709e-02 6.67851151894497e-04
3.57311320754717e+00 6.65443653395781e-02 6.65276771444873e-04
3.59216981132075e+00 6.61108494764628e-02 6.62702888449110e-04
3.61122641509434e+00 6.56801578349360e-02 6.60129674323510e-04
3.63028301886792e+00 6.52522720148949e-02 6.57557295710740e-04
3.64933962264151e+00 6.48271737384562e-02 6.54985915907659e-04
3.66839622641509e+00 6.44048448456266e-02 6.52415696253296e-04
3.68745283018868e+00 6.39852672935982e-02 6.49846793533298e-04
3.70650943396226e+00 6.35684231593696e-02 6.47279361786319e-04
3.72556603773585e+00 6.31542946344616e-02 6.44713551959340e-04
3.74462264150943e+00 6.27428640286300e-02 6.42149511499235e-04
3.76367924528302e+00 6.23341137657579e-02 6.39587386121123e-04
3.78273584905660e+00 6.19280263831726e-02 6.37027317321646e-04
3.80179245283019e+00 6.15245845341033e-02 6.34469443700882e-04
3.82084905660377e+00 6.11237709837098e-02 6.31913902247925e-04
3.83990566037736e+00 6.07255686084096e-02 6.29360825923378e-04
3.85896226415094e+00 6.03299603982369e-02 6.26810345333863e-04
3.87801886792453e+00 5.99369294519990e-02 6.24262588407270e-04
3.89707547169811e+00 5.95464589806309e-02 6.21717680008717e-04
3.91613207547170e+00 5.91585323034231e-02 6.19175743580742e-04
3.93518867924528e+00 5.87731328473705e-02 6.16636898826550e-04
3.95424528301887e+00 5.83902441493853e-02 6.14101262935337e-04
3.97330188679245e+00 5.80098498526488e-02 6.11568951774604e-04
3.99235849056604e+00 5.76319337059690e-02 6.09040077637216e-04
4.01141509433962e+00 5.72564795659068e-02 6.06514750795536e-04
4.03047169811321e+00 5.68834713923298e-02 6.03993079195719e-04
4.04952830188679e+00 5.65128932514469e-02 6.01475168096929e-04
4.06858490566038e+00 5.61447293123401e-02 5.98961121594391e-04
4.08764150943396e+00 5.57789638463430e-02 5.96451040459652e-04
4.10669811320755e+00 5.54155812290370e-02 5.93945023627899e-04
4.12575471698113e+00 5.50545659360281e-02 5.91443167902534e-04
4.14481132075472e+00 5.46959025458051e-02 5.88945567606955e-04
4.16386792452830e+00 5.43395757364433e-02 5.86452316042482e-04
4.18292452830189e+00 5.39855702849996e-02 5.83963503417919e-04
4.20198113207547e+00 5.36338710693900e-02 5.81479217936575e-04
4.22103773584906e+00 5.32844630651957e-02 5.78999546855024e-04
4.24009433962264e+00 5.29373313450704e-02 5.76524574468860e-04
4.25915094339623e+00 5.25924610805432e-02 5.74054383495087e-04
4.27820754716981e+00 5.22498375381329e-02 5.71589054794357e-04
4.29726415094340e+00 5.19094460819400e-02 5.69128667044376e-04
4.31632075471698e+00 5.15712721706085e-02 5.66673298095644e-04
4.33537735849057e+00 5.12353013567491e-02 5.64223023039678e-04
4.35443396226415e+00 5.09015192886368e-02 5.61777915219638e-04
4.37349056603774e+00 5.05699117072652e-02 5.59338047214980e-04
4.39254716981132e+00 5.02404644457815e-02 5.56903488961684e-04
4.41160377358491e+00 4.99131634311171e-02 5.54474309038551e-04
4.43066037735849e+00 4.95879946804075e-02 5.52050574406198e-04
4.44971698113208e+00 4.92649443033457e-02 5.49632350100517e-04
4.46877358490566e+00 4.89439984993783e-02 5.47219700494566e-04
4.48783018867925e+00 4.86251435571570e-02 5.44812687495475e-04
4.50688679245283e+00 4.83083658560728e-02 5.42411371484675e-04
4.52594339622642e+00 4.79936518635384e-02 5.40015812234401e-04
4.54500000000000e+00 4.76809881344484e-02 5.37626067152703e-04
4.56405660377358e+00 4.73703613126559e-02 5.35242192481171e-04
4.58311320754717e+00 4.70617581276704e-02 5.32864243049832e-04
4.60216981132075e+00 4.67551653967964e-02 5.30492271989418e-04
4.62122641509434e+00 4.64505700225434e-02 5.28126331906850e-04
4.64028301886792e+00 4.61479589921036e-02 5.25766473201374e-04
4.65933962264151e+00 4.58473193787411e-02 5.23412744940082e-04
4.67839622641509e+00 4.55486383392801e-02 5.21065195711683e-04
4.69745283018868e+00 4.52519031135911e-02 5.18723871987213e-04
4.71650943396226e+00 4.49571010259283e-02 5.16388819236018e-04
4.73556603773585e+00 4.46642194818806e-02 5.14060081695618e-04
4.75462264150943e+00 4.43732459703182e-02 5.11737702101844e-04
4.77367924528302e+00 4.40841680609961e-02 5.09421722784436e-04
4.79273584905660e+00 4.37969734040575e-02 5.07112184093834e-04
4.81179245283019e+00 4.35116497312933e-02 5.04809125217087e-04
4.83084905660377e+00 4.32281848538173e-02 5.02512584973720e-04
4.84990566037736e+00 4.29465666615777e-02 5.00222600283798e-04
4.86896226415094e+00 4.26667831245695e-02 4.97939207208592e-04
4.88801886792453e+00 4.23888222900165e-02 4.95662440734406e-04
4.90707547169811e+00 4.21126722841438e-02 4.93392334519374e-04
4.92613207547170e+00 4.18383213099596e-02 4.91128921915494e-04
4.94518867924528e+00 4.15657576467823e-02 4.88872234498006e-04
4.96424528301887e+00 4.12949696513832e-02 4.86622302826254e-04
4.98330188679245e+00 4.10259457558334e-02 4.84379157186155e-04
5.00235849056604e+00 4.07586744670386e-02 4.82142826157899e-04
5.02141509433962e+00 4.04931443678399e-02 4.79913337586982e-04
5.04047169811321e+00 4.02293441144061e-02 4.77690718381191e-04
5.05952830188679e+00 3.99672624378495e-02 4.75474994273062e-04
5.07858490566038e+00 3.97068881421707e-02 4.73266190773779e-04
5.09764150943396e+00 3.94482101038085e-02 4.71064331797976e-04
5.11669811320755e+00 3.91912172726769e-02 4.68869440595450e-04
5.13575471698113e+00 3.89358986696779e-02 4.66681539555382e-04
5.15481132075472e+00 3.86822433882298e-02 4.64500649977344e-04
5.17386792452830e+00 3.84302405923051e-02 4.62326792986873e-04
5.19292452830189e+00 3.81798795159932e-02 4.60159988214863e-04
5.21198113207547e+00 3.79311494644798e-02 4.58000254478147e-04
5.23103773584906e+00 3.76840398121408e-02 4.55847610444202e-04
5.25009433962264e+00 3.74385400021133e-02 4.53702073344617e-04
5.26915094339623e+00 3.71946395472387e-02 4.51563659845219e-04
5.28820754716981e+00 3.69523280277576e-02 4.49432385862220e-04
5.30726415094340e+00 3.67115950927053e-02 4.47308266347413e-04
5.32632075471698e+00 3.64724304580904e-02 4.45191316143332e-04
5.34537735849057e+00 3.62348239064798e-02 4.43081548747571e-04
5.36443396226415e+00 3.59987652878884e-02 4.40978976948449e-04
5.38349056603774e+00 3.57642445180094e-02 4.38883613446000e-04
5.40254716981132e+00 3.55312515778068e-02 4.36795469647884e-04
5.42160377358491e+00 3.52997765143728e-02 4.34714556482454e-04
5.44066037735849e+00 3.50698094387901e-02 4.32640884226145e-04
5.45971698113208e+00 3.48413405274063e-02 4.30574462301804e-04
5.47877358490566e+00 3.46143600201435e-02 4.28515300077956e-04
5.49783018867925e+00 3.43888582201025e-02 4.26463405712144e-04
5.51688679245283e+00 3.41648254943725e-02 4.24418786744908e-04
5.53594339622641e+00 3.39422522723872e-02 4.22381450680179e-04
5.55500000000000e+00 3.37211290455367e-02 4.20351403858067e-04
5.57405660377359e+00 3.35014463679481e-02 4.18328652214866e-04
5.59311320754717e+00 3.32831948545013e-02 4.16313201120971e-04
5.61216981132076e+00 3.30663651819941e-02 4.14305055191623e-04
5.63122641509434e+00 3.28509480875713e-02 4.12304219034172e-04
5.65028301886792e+00 3.26369343683482e-02 4.10310696165047e-04
5.66933962264151e+00 3.24243148821473e-02 4.08324489565076e-04
5.68839622641509e+00 3.22130805459705e-02 4.06345602222165e-04
5.70745283018868e+00 3.20032223356296e-02 4.04374036075644e-04
5.72650943396226e+00 3.17947312864570e-02 4.02409792727102e-04
5.74556603773585e+00 3.15875984914630e-02 4.00452873288076e-04
5.76462264150943e+00 3.13818151024016e-02 3.98503278202392e-04
5.78367924528302e+00 3.11773723283094e-02 3.96561007945273e-04
5.80273584905660e+00 3.09742614351477e-02 3.94626062008759e-04
5.82179245283019e+00 3.07724737464734e-02 3.92698439421095e-04
5.84084905660377e+00 3.05720006420175e-02 3.90778139254519e-04
5.85990566037736e+00 3.03728335573339e-02 3.88865159636150e-04
5.87896226415094e+00 3.01749639844466e-02 3.86959498413170e-04
5.89801886792453e+00 2.99783834701370e-02 3.85061153009719e-04
5.91707547169811e+00 2.97830836169200e-02 3.83170120260047e-04
5.93613207547170e+00 2.95890560816836e-02 3.81286397062818e-04
5.95518867924528e+00 2.93962925753492e-02 3.79409979430385e-04
5.97424528301887e+00 2.92047848634823e-02 3.77540862974804e-04
5.99330188679245e+00 2.90145247649695e-02 3.75679043383084e-04
6.01235849056604e+00 2.88255041516847e-02 3.73824515490243e-04
