Energy (eV)          EEDF (eV^-(3/2))     First Anisotropy
9.92307692307692e-03 1.71985468077838e+00 1.74215444954081e-03
2.97692307692308e-02 1.67483827900681e+00 2.84871965577875e-03
4.96153846153846e-02 1.63100016068597e+00 3.68698981871689e-03
6.94615384615385e-02 1.58830948489696e+00 4.28070920251577e-03
8.93076923076923e-02 1.54673621779634e+00 4.74139190034877e-03
1.09153846153846e-01 1.50625111177839e+00 5.11251078288935e-03
1.29000000000000e-01 1.46682568472066e+00 5.41721331895532e-03
1.48846153846154e-01 1.42843219996036e+00 5.66985845677604e-03
1.68692307692308e-01 1.39104364689435e+00 5.88021433522201e-03
1.88538461538462e-01 1.35463372190987e+00 6.05535202834741e-03
2.08384615384615e-01 1.31917681004799e+00 6.20062448396284e-03
2.28230769230769e-01 1.28464796644604e+00 6.32022295877219e-03
2.48076923076923e-01 1.25102289935178e+00 6.41751642350976e-03
2.67923076923077e-01 1.21827795283705e+00 6.49527026103051e-03
2.87769230769231e-01 1.18639009015392e+00 6.55579344555052e-03
3.07615384615385e-01 1.15533687753238e+00 6.60104123584408e-03
3.27461538461538e-01 1.12509646839528e+00 6.63268900610080e-03
3.47307692307692e-01 1.09564758807321e+00 6.65218671950742e-03
3.67153846153846e-01 1.06696951857677e+00 6.66079998158762e-03
3.87000000000000e-01 1.03904208429062e+00 6.65964159056588e-03
4.06846153846154e-01 1.01184563768616e+00 6.64969622043795e-03
4.26692307692308e-01 9.85361045499642e-01 6.63183998730638e-03
4.46538461538462e-01 9.59569675271851e-01 6.60685618191810e-03
4.66384615384615e-01 9.34453382292006e-01 6.57544808345236e-03
4.86230769230769e-01 9.09994496670288e-01 6.53824948392413e-03
5.06076923076923e-01 8.86175811073839e-01 6.49583342813123e-03
5.25923076923077e-01 8.62980568563653e-01 6.44871955435125e-03
5.45769230769231e-01 8.40392450805408e-01 6.39738028327420e-03
5.65615384615385e-01 8.18395566589954e-01 6.34224608889201e-03
5.85461538461538e-01 7.96974440653102e-01 6.28371001334004e-03
6.05307692307692e-01 7.76114002822075e-01 6.22213156978797e-03
6.25153846153846e-01 7.55799577309929e-01 6.15784011690112e-03
6.45000000000000e-01 7.36016872497012e-01 6.09113780102709e-03
6.64846153846154e-01 7.16751970840056e-01 6.02230214734875e-03
6.84692307692308e-01 6.97991319081032e-01 5.95158833211375e-03
7.04538461538462e-01 6.79721718712231e-01 5.87923119275788e-03
7.24384615384615e-01 6.61930316714519e-01 5.80544702005098e-03
7.44230769230769e-01 6.44604596441899e-01 5.73043514665768e-03
7.64076923076923e-01 6.27732368890708e-01 5.65437936742016e-03
7.83923076923077e-01 6.11301764098789e-01 5.57744922348310e-03
8.03769230769231e-01 5.95301222794619e-01 5.49980115063702e-03
8.23615384615385e-01 5.79719488265366e-01 5.42157951780429e-03
8.43461538461538e-01 5.64545598437427e-01 5.34291756563082e-03
8.63307692307692e-01 5.49768878180960e-01 5.26393826367579e-03
8.83153846153846e-01 5.35378931748831e-01 5.18475508333385e-03
9.03000000000000e-01 5.21365635515088e-01 5.10547270201975e-03
9.22846153846154e-01 5.07719130834959e-01 5.02618765378753e-03
9.42692307692308e-01 4.94429817109134e-01 4.94698891905619e-03
9.62538461538462e-01 4.81488345029573e-01 4.86795846570783e-03
9.82384615384615e-01 4.68885610014407e-01 4.78917175053080e-03
1.00223076923077e+00 4.56612745764733e-01 4.71069817933770e-03
1.02207692307692e+00 4.44661118020188e-01 4.63260150998282e-03
1.04192307692308e+00 4.33022318655049e-01 4.55494026289581e-03
1.06176923076923e+00 4.21688159526007e-01 4.47776809774508e-03
1.08161538461538e+00 4.10650666714758e-01 4.40113409569397e-03
1.10146153846154e+00 3.99902075216582e-01 4.32508310545494e-03
1.12130769230769e+00 3.89434823079631e-01 4.24965602279241e-03
1.14115384615385e+00 3.79241546467593e-01 4.17489004384958e-03
1.16100000000000e+00 3.69315074194022e-01 4.10081894891225e-03
1.18084615384615e+00 3.59648422697474e-01 4.02747327977899e-03
1.20069230769231e+00 3.50234791368841e-01 3.95488057972102e-03
1.22053846153846e+00 3.41067557519039e-01 3.88306561632090e-03
1.24038461538462e+00 3.32140271737040e-01 3.81205052053933e-03
1.26023076923077e+00 3.23446653562545e-01 3.74185498994991e-03
1.28007692307692e+00 3.14980586788162e-01 3.67249644574785e-03
1.29992307692308e+00 3.06736115425648e-01 3.60399017485123e-03
1.31976923076923e+00 2.98707439314950e-01 3.53634949920392e-03
1.33961538461538e+00 2.90888910057536e-01 3.46958586873169e-03
1.35946153846154e+00 2.83275027213135e-01 3.40370901050201e-03
1.37930769230769e+00 2.75860434202908e-01 3.33872704061217e-03
1.39915384615385e+00 2.68639914759977e-01 3.27464656512878e-03
1.41900000000000e+00 2.61608389096472e-01 3.21147280559240e-03
1.43884615384615e+00 2.54760910340514e-01 3.14920966125547e-03
1.45869230769231e+00 2.48092661195523e-01 3.08785981544549e-03
1.47853846153846e+00 2.41598950407598e-01 3.02742483492747e-03
1.49838461538462e+00 2.35275209474415e-01 2.96790521889611e-03
1.51823076923077e+00 2.29116989554259e-01 2.90930049232641e-03
1.53807692307692e+00 2.23119958172479e-01 2.85160927247151e-03
1.55792307692308e+00 2.17279896331475e-01 2.79482932835476e-03
1.57776923076923e+00 2.11592695424672e-01 2.73895766022038e-03
1.59761538461538e+00 2.06054354353645e-01 2.68399053181662e-03
1.61746153846154e+00 2.00660976814484e-01 2.62992354099821e-03
1.63730769230769e+00 1.95408768421890e-01 2.57675166805355e-03
1.65715384615385e+00 1.90294034169885e-01 2.52446931860461e-03
1.67700000000000e+00 1.85313175735294e-01 2.47307038400490e-03
1.69684615384615e+00 1.80462688952270e-01 2.42254826203831e-03
1.71669230769231e+00 1.75739161430757e-01 2.37289590759356e-03
1.73653846153846e+00 1.71139270069821e-01 2.32410588005678e-03
1.75638461538462e+00 1.66659778725055e-01 2.27617035893209e-03
1.77623076923077e+00 1.62297536006237e-01 2.22908118944937e-03
1.79607692307692e+00 1.58049472961392e-01 2.18282991159363e-03
1.81592307692308e+00 1.53912601013258e-01 2.13740778543434e-03
1.83576923076923e+00 1.49884009785472e-01 2.09280583035904e-03
1.85561538461538e+00 1.45960865059443e-01 2.04901483414829e-03
1.87546153846154e+00 1.42140406842119e-01 2.00602538788439e-03
1.89530769230769e+00 1.38419947342152e-01 1.96382790691344e-03
1.91515384615385e+00 1.34796869158375e-01 1.92241264885495e-03
1.93500000000000e+00 1.31268623379212e-01 1.88176974369853e-03
1.95484615384615e+00 1.27832727792992e-01 1.84188919830603e-03
1.97469230769231e+00 1.24486765193080e-01 1.80276092114116e-03
1.99453846153846e+00 1.21228381624573e-01 1.76437474533819e-03
2.01438461538462e+00 1.18055284731347e-01 1.72672043122553e-03
2.03423076923077e+00 1.14965242189245e-01 1.68978768906153e-03
2.05407692307692e+00 1.11956080074555e-01 1.65356619120636e-03
2.07392307692308e+00 1.09025681393652e-01 1.61804558220685e-03
2.09376923076923e+00 1.06171984549587e-01 1.58321549843014e-03
2.11361538461538e+00 1.03392981894320e-01 1.54906556803797e-03
2.13346153846154e+00 1.00686718354651e-01 1.51558542837561e-03
2.15330769230769e+00 9.80512900057481e-02 1.48276473440280e-03
2.17315384615385e+00 9.54848427810831e-02 1.45059316543045e-03
2.19300000000000e+00 9.29855711312328e-02 1.41906044013655e-03
2.21284615384615e+00 9.05517167557524e-02 1.38815631481240e-03
2.23269230769231e+00 8.81815673983352e-02 1.35787059527033e-03
2.25253846153846e+00 8.58734556092426e-02 1.32819314787441e-03
2.27238461538462e+00 8.36257575740983e-02 1.29911389708398e-03
2.29223076923077e+00 8.14368920003223e-02 1.27062283664831e-03
2.31207692307692e+00 7.93053189663430e-02 1.24271003394227e-03
2.33192307692308e+00 7.72295388753215e-02 1.21536563307810e-03
2.35176923076923e+00 7.52080913724760e-02 1.18857986455232e-03
2.37161538461538e+00 7.32395543192774e-02 1.16234304191698e-03
2.39146153846154e+00 7.13225428171514e-02 1.13664557022346e-03
2.41130769230769e+00 6.94557082009700e-02 1.11147794862066e-03
2.43115384615385e+00 6.76377371214202e-02 1.08683077194920e-03
2.45100000000000e+00 6.58673505977827e-02 1.06269473799855e-03
2.47084615384615e+00 6.41433031194400e-02 1.03906064365705e-03
2.49069230769231e+00 6.24643817900258e-02 1.01591939031578e-03
2.51053846153846e+00 6.08294054532425e-02 9.93261988799848e-04
2.53038461538462e+00 5.92372238630521e-02 9.71079555354867e-04
2.55023076923077e+00 5.76867168927860e-02 9.49363316883443e-04
2.57007692307692e+00 5.61767937227441e-02 9.28104611672979e-04
2.58992307692308e+00 5.47063920963843e-02 9.07294889388799e-04
2.60976923076923e+00 5.32744775553896e-02 8.86925715540406e-04
2.62961538461538e+00 5.18800427128877e-02 8.66988767308523e-04
2.64946153846154e+00 5.05221065601942e-02 8.47475837358112e-04
2.66930769230769e+00 4.91997137560871e-02 8.28378833795461e-04
2.68915384615385e+00 4.79119339746291e-02 8.09689779518575e-04
2.70900000000000e+00 4.66578612358051e-02 7.91400815444613e-04
2.72884615384615e+00 4.54366132689564e-02 7.73504196323170e-04
2.74869230769231e+00 4.42473309051585e-02 7.55992292838627e-04
2.76853846153846e+00 4.30891774593964e-02 7.38857593456773e-04
2.78838461538462e+00 4.19613381426652e-02 7.22092700294702e-04
2.80823076923077e+00 4.08630195005316e-02 7.05690331280191e-04
2.82807692307692e+00 3.97934488392609e-02 6.89643319321271e-04
2.84792307692308e+00 3.87518736973883e-02 6.73944611028103e-04
2.86776923076923e+00 3.77375613050210e-02 6.58587268501622e-04
2.88761538461538e+00 3.67497980689375e-02 6.43564465332189e-04
2.90746153846154e+00 3.57878890805311e-02 6.28869488034044e-04
2.92730769230769e+00 3.48511576136652e-02 6.14495734916406e-04
2.94715384615385e+00 3.39389446614376e-02 6.00436714583345e-04
2.96700000000000e+00 3.30506084629678e-02 5.86686047093026e-04
2.98684615384615e+00 3.21855240524178e-02 5.73237460138279e-04
3.00669230769231e+00 3.13430828277731e-02 5.60084789515096e-04
3.02653846153846e+00 3.05226921140259e-02 5.47221979453999e-04
3.04638461538462e+00 2.97237747466763e-02 5.34643078935335e-04
3.06623076923077e+00 2.89457686733237e-02 5.22342242294507e-04
3.08607692307692e+00 2.81881265480985e-02 5.10313727831737e-04
3.10592307692308e+00 2.74503153564359e-02 4.98551896146615e-04
3.12576923076923e+00 2.67318160327445e-02 4.87051210579221e-04
3.14561538461538e+00 2.60321230956255e-02 4.75806233751021e-04
3.16546153846154e+00 2.53507442987397e-02 4.64811627817187e-04
3.18530769230769e+00 2.46872002758797e-02 4.54062153004713e-04
3.20515384615385e+00 2.40410242120865e-02 4.43552665921813e-04
3.22500000000000e+00 2.34117615089997e-02 4.33278119695150e-04
3.24484615384615e+00 2.27989694653665e-02 4.23233560748011e-04
3.26469230769231e+00 2.22022169711045e-02 4.13414128510680e-04
3.28453846153846e+00 2.16210841983695e-02 4.03815055059215e-04
3.30438461538462e+00 2.10551623064926e-02 3.94431662043282e-04
3.32423076923077e+00 2.05040531593404e-02 3.85259360548664e-04
3.34407692307692e+00 1.99673690385886e-02 3.76293649621118e-04
3.36392307692308e+00 1.94447323773834e-02 3.67530114620185e-04
3.38376923076923e+00 1.89357754899180e-02 3.58964427023044e-04
3.40361538461538e+00 1.84401403130103e-02 3.50592341590155e-04
3.42346153846154e+00 1.79574781584420e-02 3.42409696072084e-04
3.44330769230769e+00 1.74874494620059e-02 3.34412409764637e-04
3.46315384615385e+00 1.70297235500893e-02 3.26596481922508e-04
3.48300000000000e+00 1.65839784029553e-02 3.18957991431861e-04
3.50284615384615e+00 1.61499004284072e-02 3.11493094207850e-04
3.52269230769231e+00 1.57271842447862e-02 3.04198022602498e-04
3.54253846153846e+00 1.53155324624317e-02 2.97069084777180e-04
3.56238461538462e+00 1.49146554746527e-02 2.90102662238375e-04
3.58223076923077e+00 1.45242712572601e-02 2.83295209386128e-04
3.60207692307692e+00 1.41441051658016e-02 2.76643252160840e-04
3.62192307692308e+00 1.37738897465692e-02 2.70143386584798e-04
3.64176923076923e+00 1.34133645452867e-02 2.63792278303784e-04
3.66161538461538e+00 1.30622759240384e-02 2.57586660338008e-04
3.68146153846154e+00 1.27203768856236e-02 2.51523332577320e-04
3.70130769230769e+00 1.23874268960743e-02 2.45599160499694e-04
3.72115384615385e+00 1.20631917190383e-02 2.39811073802138e-04
3.74100000000000e+00 1.17474432483010e-02 2.34156065900370e-04
3.76084615384615e+00 1.14399593474455e-02 2.28631191882649e-04
3.78069230769231e+00 1.11405236959604e-02 2.23233567845239e-04
3.80053846153846e+00 1.08489256346157e-02 2.17960370212104e-04
3.82038461538462e+00 1.05649600173844e-02 2.12808833806374e-04
3.84023076923077e+00 1.02884270692818e-02 2.07776251305349e-04
3.86007692307692e+00 1.00191322429435e-02 2.02859972086133e-04
3.87992307692308e+00 9.75688608454852e-03 1.98057401006162e-04
3.89976923076923e+00 9.50150409845178e-03 1.93365997874724e-04
3.91961538461538e+00 9.25280661749431e-03 1.88783275705599e-04
3.93946153846154e+00 9.01061867845231e-03 1.84306800169572e-04
3.95930769230769e+00 8.77476989648903e-03 1.79934188521480e-04
3.97915384615385e+00 8.54509434767077e-03 1.75663108473142e-04
3.99900000000000e+00 8.32143045045684e-03 1.71491277666889e-04
4.01884615384615e+00 8.10362085211342e-03 1.67416462095882e-04
4.03869230769231e+00 7.89151231959378e-03 1.63436475475915e-04
4.05853846153846e+00 7.68495563012020e-03 1.59549178611898e-04
4.07838461538462e+00 7.48380546628410e-03 1.55752477913792e-04
4.09823076923077e+00 7.28792031524831e-03 1.52044324865538e-04
4.11807692307692e+00 7.09716236728134e-03 1.48422715081019e-04
4.13792307692308e+00 6.91139742065777e-03 1.44885687319865e-04
4.15776923076923e+00 6.73049478586230e-03 1.41431322981492e-04
4.17761538461538e+00 6.55432719371704e-03 1.38057744767429e-04
4.19746153846154e+00 6.38277070707350e-03 1.34763116170643e-04
4.21730769230769e+00 6.21570463198695e-03 1.31545640608458e-04
4.23715384615385e+00 6.05301143439111e-03 1.28403560522156e-04
4.25700000000000e+00 5.89457665622797e-03 1.25335156892458e-04
4.27684615384615e+00 5.74028883498327e-03 1.22338748035754e-04
4.29669230769231e+00 5.59003942632260e-03 1.19412689056850e-04
4.31653846153846e+00 5.44372272665330e-03 1.16555371301612e-04
4.33638461538462e+00 5.30123579881352e-03 1.13765221228743e-04
4.35623076923077e+00 5.16247840061040e-03 1.11040699939202e-04
4.37607692307692e+00 5.02735291302631e-03 1.08380302425070e-04
4.39592307692308e+00 4.89576427277601e-03 1.05782556793791e-04
4.41576923076923e+00 4.76761990450671e-03 1.03246023823925e-04
4.43561538461539e+00 4.64282965571565e-03 1.00769295952128e-04
4.45546153846154e+00 4.52130573414539e-03 9.83509968311648e-05
4.47530769230769e+00 4.40296264493070e-03 9.59897806456114e-05
4.49515384615385e+00 4.28771713150890e-03 9.36843314071962e-05
4.51500000000000e+00 4.17548811625809e-03 9.14333625385392e-05
4.53484615384615e+00 4.06619664349651e-03 8.92356159647152e-05
4.55469230769231e+00 3.95976582463841e-03 8.70898616585432e-05
4.57453846153846e+00 3.85612078338354e-03 8.49948971881695e-05
4.59438461538462e+00 3.75518860307561e-03 8.29495468671853e-05
4.61423076923077e+00 3.65689827604355e-03 8.09526613592882e-05
4.63407692307692e+00 3.56118065279614e-03 7.90031170919667e-05
4.65392307692308e+00 3.46796839419919e-03 7.70998156552224e-05
4.67376923076923e+00 3.37719592348527e-03 7.52416834303934e-05
4.69361538461538e+00 3.28879938014969e-03 7.34276708293173e-05
4.71346153846154e+00 3.20271657557193e-03 7.16567519283826e-05
4.73330769230769e+00 3.11888694853535e-03 6.99279239375365e-05
4.75315384615385e+00 3.03725152332930e-03 6.82402066569611e-05
4.77300000000000e+00 2.95775286773020e-03 6.65926421340175e-05
4.79284615384615e+00 2.88033505262279e-03 6.49842939827986e-05
4.81269230769231e+00 2.80494361312385e-03 6.34142470177307e-05
4.83253846153846e+00 2.73152550978405e-03 6.18816068903318e-05
4.85238461538462e+00 2.66002909129724e-03 6.03854994535234e-05
4.87223076923077e+00 2.59040405859160e-03 5.89250704405783e-05
4.89207692307692e+00 2.52260142887321e-03 5.74994850138362e-05
4.91192307692308e+00 2.45657350171918e-03 5.61079273044328e-05
4.93176923076923e+00 2.39227382510635e-03 5.47496001119474e-05
4.95161538461539e+00 2.32965716275170e-03 5.34237243366572e-05
4.97146153846154e+00 2.26867946265604e-03 5.21295386852643e-05
4.99130769230769e+00 2.20929782562286e-03 5.08662992640017e-05
5.01115384615385e+00 2.15147047555338e-03 4.96332791643813e-05
5.03100000000000e+00 2.09515672970149e-03 4.84297681881876e-05
5.05084615384615e+00 2.04031697006990e-03 4.72550723408116e-05
5.07069230769231e+00 1.98691261585465e-03 4.61085135422539e-05
5.09053846153846e+00 1.93490609597947e-03 4.49894293413653e-05
5.11038461538462e+00 1.88426082267955e-03 4.38971724430497e-05
5.13023076923077e+00 1.83494116604978e-03 4.28311104535467e-05
5.15007692307692e+00 1.78691242859496e-03 4.17906255367650e-05
5.16992307692308e+00 1.74014082119180e-03 4.07751140653094e-05
5.18976923076923e+00 1.69459343903969e-03 3.97839863827872e-05
5.20961538461538e+00 1.65023823852510e-03 3.88166663823444e-05
5.22946153846154e+00 1.60704401492621e-03 3.78725912748303e-05
5.24930769230769e+00 1.56498038013013e-03 3.69512112800123e-05
5.26915384615385e+00 1.52401774157438e-03 3.60519893134752e-05
5.28900000000000e+00 1.48412728118907e-03 3.51744007704436e-05
5.30884615384615e+00 1.44528093513439e-03 3.43179331503264e-05
5.32869230769231e+00 1.40745137427044e-03 3.34820858323109e-05
5.34853846153846e+00 1.37061198471283e-03 3.26663698539062e-05
5.36838461538462e+00 1.33473684911984e-03 3.18703075609133e-05
5.38823076923077e+00 1.29980072865355e-03 3.10934324087261e-05
5.40807692307692e+00 1.26577904496527e-03 3.03352887028013e-05
5.42792307692308e+00 1.23264786315531e-03 2.95954313360677e-05
5.44776923076923e+00 1.20038387474687e-03 2.88734256038457e-05
5.46761538461539e+00 1.16896438129717e-03 2.81688468923084e-05
5.48746153846154e+00 1.13836727859600e-03 2.74812804985859e-05
5.50730769230769e+00 1.10857104089247e-03 2.68103213982189e-05
5.52715384615385e+00 1.07955470596731e-03 2.61555740101502e-05
5.54700000000000e+00 1.05129786022430e-03 2.55166520292551e-05
5.56684615384615e+00 1.02378062433666e-03 2.48931781492131e-05
5.58669230769231e+00 9.96983639405616e-04 2.42847838903217e-05
5.60653846153846e+00 9.70888053193943e-04 2.36911094298352e-05
5.62638461538462e+00 9.45475506870118e-04 2.31118033438049e-05
5.64623076923077e+00 9.20728122223967e-04 2.25465224540544e-05
5.66607692307692e+00 8.96628488914268e-04 2.19949316334956e-05
5.68592307692308e+00 8.73159652389939e-04 2.14567036097424e-05
5.70576923076923e+00 8.50305101835514e-04 2.09315188227681e-05
5.72561538461538e+00 8.28048758561566e-04 2.04190651954386e-05
5.74546153846154e+00 8.06374964806213e-04 1.99190379955304e-05
5.76530769230769e+00 7.85268472569097e-04 1.94311396616787e-05
5.78515384615385e+00 7.64714433030275e-04 1.89550796279843e-05
5.80500000000000e+00 7.44698385994721e-04 1.84905741957209e-05
5.82484615384615e+00 7.25206249724505e-04 1.80373463294644e-05
5.84469230769231e+00 7.06224311129533e-04 1.75951255262018e-05
5.86453846153846e+00 6.87739216020568e-04 1.71636476865205e-05
5.88438461538462e+00 6.69737959719044e-04 1.67426549248158e-05
5.90423076923077e+00 6.52207877997051e-04 1.63318954526097e-05
5.92407692307692e+00 6.35136638049461e-04 1.59311234333122e-05
5.94392307692308e+00 6.18512229932512e-04 1.55400988360864e-05
5.96376923076923e+00 6.02322958028774e-04 1.51585873274284e-05
5.98361538461539e+00 5.86557432823167e-04 1.47863601026578e-05
6.00346153846154e+00 5.71204562966927e-04 1.44231937810462e-05
6.02330769230769e+00 5.56253547372630e-04 1.40688702762134e-05
6.04315384615385e+00 5.41693867714488e-04 1.37231766658369e-05
6.06300000000000e+00 5.27515280954576e-04 1.33859050942396e-05
6.08284615384615e+00 5.13707812140162e-04 1.30568526228347e-05
6.10269230769231e+00 5.00261747452279e-04 1.27358211313704e-05
6.12253846153846e+00 4.87167627304343e-04 1.24226172208414e-05
6.14238461538462e+00 4.74416239690356e-04 1.21170520743393e-05
6.16223076923077e+00 4.61998613764493e-04 1.18189413687906e-05
6.18207692307692e+00 4.49906013449633e-04 1.15281051670995e-05
6.20192307692308e+00 4.38129931369365e-04 1.12443678098629e-05
6.22176923076923e+00 4.26662082804659e-04 1.09675578334274e-05
6.24161538461538e+00 4.15494399868176e-04 1.06975078464606e-05
6.26146153846154e+00 4.04619025880443e-04 1.04340544508327e-05
