Energy (eV)          EEDF (eV^-(3/2))     First Anisotropy
2.02500000000000e-02 1.10924296420719e-01 6.57129563909515e-05
6.07500000000000e-02 1.09968745407359e-01 1.08407834599306e-04
1.01250000000000e-01 1.09021425933536e-01 1.42838196447618e-04
1.41750000000000e-01 1.08082267089174e-01 1.68829995150375e-04
1.82250000000000e-01 1.07151198575008e-01 1.90371177981242e-04
2.22750000000000e-01 1.06228150697354e-01 2.08973416462230e-04
2.63250000000000e-01 1.05313054362897e-01 2.25420913580876e-04
3.03750000000000e-01 1.04405841073525e-01 2.40188354635773e-04
3.44250000000000e-01 1.03506442921197e-01 2.53591298998336e-04
3.84750000000000e-01 1.02614792582861e-01 2.65853296798699e-04
4.25250000000000e-01 1.01730823315416e-01 2.77140213783363e-04
4.65750000000000e-01 1.00854468950716e-01 2.87579535513507e-04
5.06250000000000e-01 9.99856638906172e-02 2.97272016759499e-04
5.46750000000000e-01 9.91243431020661e-02 3.06299105841265e-04
5.87250000000000e-01 9.82704421122331e-02 3.14727887300723e-04
6.27750000000000e-01 9.74238970036861e-02 3.22614492196284e-04
6.68250000000000e-01 9.65846444096062e-02 3.30006522447470e-04
7.08750000000000e-01 9.57526215090442e-02 3.36944818540078e-04
7.49250000000000e-01 9.49277660222184e-02 3.43464776871753e-04
7.89750000000000e-01 9.41100162058528e-02 3.49597350287100e-04
8.30250000000000e-01 9.32993108485552e-02 3.55369820767963e-04
8.70750000000000e-01 9.24955892662354e-02 3.60806405041808e-04
9.11250000000000e-01 9.16987912975630e-02 3.65928735532696e-04
9.51750000000000e-01 9.09088572994638e-02 3.70756246860504e-04
9.92250000000000e-01 9.01257281426555e-02 3.75306489774730e-04
1.03275000000000e+00 8.93493452072217e-02 3.79595388633453e-04
1.07325000000000e+00 8.85796503782238e-02 3.83637454456984e-04
1.11375000000000e+00 8.78165860413510e-02 3.87445962656475e-04
1.15425000000000e+00 8.70600950786078e-02 3.91033102403775e-04
1.19475000000000e+00 8.63101208640383e-02 3.94410103034018e-04
1.23525000000000e+00 8.55666072594877e-02 3.97587341695733e-04
1.27575000000000e+00 8.48294986104003e-02 4.00574435574099e-04
1.31625000000000e+00 8.40987397416531e-02 4.03380321334243e-04
1.35675000000000e+00 8.33742759534262e-02 4.06013323908136e-04
1.39725000000000e+00 8.26560530171081e-02 4.08481216341540e-04
1.43775000000000e+00 8.19440171712368e-02 4.10791272098108e-04
1.47825000000000e+00 8.12381151174750e-02 4.12950310965461e-04
1.51875000000000e+00 8.05382940166212e-02 4.14964739506792e-04
1.55925000000000e+00 7.98445014846538e-02 4.16840586840524e-04
1.59975000000000e+00 7.91566855888109e-02 4.18583536400226e-04
1.64025000000000e+00 7.84747948437018e-02 4.20198954221413e-04
1.68075000000000e+00 7.77987782074542e-02 4.21691914215479e-04
1.72125000000000e+00 7.71285850778930e-02 4.23067220820099e-04
1.76175000000000e+00 7.64641652887525e-02 4.24329429356918e-04
1.80225000000000e+00 7.58054691059216e-02 4.25482864378728e-04
1.84275000000000e+00 7.51524472237208e-02 4.26531636247863e-04
1.88325000000000e+00 7.45050507612114e-02 4.27479656153669e-04
1.92375000000000e+00 7.38632312585371e-02 4.28330649748421e-04
1.96425000000000e+00 7.32269406732959e-02 4.29088169556785e-04
2.00475000000000e+00 7.25961313769446e-02 4.29755606293875e-04
2.04525000000000e+00 7.19707561512331e-02 4.30336199209384e-04
2.08575000000000e+00 7.13507681846705e-02 4.30833045560353e-04
2.12625000000000e+00 7.07361210690207e-02 4.31249109302795e-04
2.16675000000000e+00 7.01267687958287e-02 4.31587229081131e-04
2.20725000000000e+00 6.95226657529765e-02 4.31850125585179e-04
2.24775000000000e+00 6.89237667212694e-02 4.32040408336358e-04
2.28825000000000e+00 6.83300268710508e-02 4.32160581957676e-04
2.32875000000000e+00 6.77414017588465e-02 4.32213051975719e-04
2.36925000000000e+00 6.71578473240381e-02 4.32200130197894e-04
2.40975000000000e+00 6.65793198855648e-02 4.32124039703319e-04
2.45025000000000e+00 6.60057761386542e-02 4.31986919481668e-04
2.49075000000000e+00 6.54371731515798e-02 4.31790828750621e-04
2.53125000000000e+00 6.48734683624485e-02 4.31537750979542e-04
2.57175000000000e+00 6.43146195760139e-02 4.31229597644208e-04
2.61225000000000e+00 6.37605849605182e-02 4.30868211734807e-04
2.65275000000000e+00 6.32113230445610e-02 4.30455371037404e-04
2.69325000000000e+00 6.26667927139947e-02 4.29992791206975e-04
2.73375000000000e+00 6.21269532088475e-02 4.29482128648488e-04
2.77425000000000e+00 6.15917641202717e-02 4.28924983221089e-04
2.81475000000000e+00 6.10611853875195e-02 4.28322900778731e-04
2.85525000000000e+00 6.05351772949441e-02 4.27677375559580e-04
2.89575000000000e+00 6.00137004690270e-02 4.26989852435655e-04
2.93625000000000e+00 5.94967158754302e-02 4.26261729032645e-04
2.97675000000000e+00 5.89841848160752e-02 4.25494357729323e-04
3.01725000000000e+00 5.84760689262458e-02 4.24689047545225e-04
3.05775000000000e+00 5.79723301717163e-02 4.23847065924379e-04
3.09825000000000e+00 5.74729308459048e-02 4.22969640422052e-04
3.13875000000000e+00 5.69778335670506e-02 4.22057960301253e-04
3.17925000000000e+00 5.64870012754160e-02 4.21113178045218e-04
3.21975000000000e+00 5.60003972305122e-02 4.20136410791062e-04
3.26025000000000e+00 5.55179850083495e-02 4.19128741689989e-04
3.30075000000000e+00 5.50397284987102e-02 4.18091221198811e-04
3.34125000000000e+00 5.45655919024463e-02 4.17024868306966e-04
3.38175000000000e+00 5.40955397287995e-02 4.15930671703159e-04
3.42225000000000e+00 5.36295367927445e-02 4.14809590885399e-04
3.46275000000000e+00 5.31675482123554e-02 4.13662557217858e-04
3.50325000000000e+00 5.27095394061948e-02 4.12490474937725e-04
3.54375000000000e+00 5.22554760907248e-02 4.11294222115042e-04
3.58425000000000e+00 5.18053242777415e-02 4.10074651568336e-04
3.62475000000000e+00 5.13590502718301e-02 4.08832591738552e-04
3.66525000000000e+00 5.09166206678432e-02 4.07568847523718e-04
3.70575000000000e+00 5.04780023484001e-02 4.06284201076537e-04
3.74625000000000e+00 5.00431624814078e-02 4.04979412566942e-04
3.78675000000000e+00 4.96120685176036e-02 4.03655220911662e-04
3.82725000000000e+00 4.91846881881185e-02 4.02312344472566e-04
3.86775000000000e+00 4.87609895020619e-02 4.00951481725362e-04
3.90825000000000e+00 4.83409407441269e-02 3.99573311900320e-04
3.94875000000000e+00 4.79245104722161e-02 3.98178495596607e-04
3.98925000000000e+00 4.75116675150885e-02 3.96767675371330e-04
4.02975000000000e+00 4.71023809700258e-02 3.95341476304821e-04
4.07025000000000e+00 4.66966202005195e-02 3.93900506543370e-04
4.11075000000000e+00 4.62943548339776e-02 3.92445357820422e-04
4.15125000000000e+00 4.58955547594509e-02 3.90976605957389e-04
4.19175000000000e+00 4.55001901253793e-02 3.89494811345056e-04
4.23225000000000e+00 4.51082313373575e-02 3.88000519406557e-04
4.27275000000000e+00 4.47196490559191e-02 3.86494261042773e-04
4.31325000000000e+00 4.43344141943412e-02 3.84976553061019e-04
4.35375000000000e+00 4.39524979164666e-02 3.83447898587824e-04
4.39425000000000e+00 4.35738716345456e-02 3.81908787466539e-04
4.43475000000000e+00 4.31985070070960e-02 3.80359696640427e-04
4.47525000000000e+00 4.28263759367819e-02 3.78801090521950e-04
4.51575000000000e+00 4.24574505683100e-02 3.77233421348893e-04
4.55625000000000e+00 4.20917032863450e-02 3.75657129527887e-04
4.59675000000000e+00 4.17291067134421e-02 3.74072643965853e-04
4.63725000000000e+00 4.13696337079983e-02 3.72480382389977e-04
4.67775000000000e+00 4.10132573622202e-02 3.70880751656737e-04
4.71825000000000e+00 4.06599510001099e-02 3.69274148050294e-04
4.75875000000000e+00 4.03096881754687e-02 3.67660957570917e-04
4.79925000000000e+00 3.99624426699168e-02 3.66041556213635e-04
4.83975000000000e+00 3.96181884909314e-02 3.64416310237743e-04
4.88025000000000e+00 3.92768998699007e-02 3.62785576427429e-04
4.92075000000000e+00 3.89385512601952e-02 3.61149702343864e-04
4.96125000000000e+00 3.86031173352552e-02 3.59509026569204e-04
5.00175000000000e+00 3.82705729866954e-02 3.57863878942713e-04
5.04225000000000e+00 3.79408933224252e-02 3.56214580789416e-04
5.08275000000000e+00 3.76140536647855e-02 3.54561445141541e-04
5.12325000000000e+00 3.72900295487013e-02 3.52904776953014e-04
5.16375000000000e+00 3.69687967198509e-02 3.51244873307345e-04
5.20425000000000e+00 3.66503311328498e-02 3.49582023619079e-04
5.24475000000000e+00 3.63346089494513e-02 3.47916509829069e-04
5.28525000000000e+00 3.60216065367618e-02 3.46248606593909e-04
5.32575000000000e+00 3.57113004654720e-02 3.44578581469639e-04
5.36625000000000e+00 3.54036675081028e-02 3.42906695089941e-04
5.40675000000000e+00 3.50986846372672e-02 3.41233201339075e-04
5.44725000000000e+00 3.47963290239461e-02 3.39558347519710e-04
5.48775000000000e+00 3.44965780357798e-02 3.37882374515908e-04
5.52825000000000e+00 3.41994092353738e-02 3.36205516951343e-04
5.56875000000000e+00 3.39048003786191e-02 3.34528003342952e-04
5.60925000000000e+00 3.36127294130273e-02 3.32850056250257e-04
5.64975000000000e+00 3.33231744760802e-02 3.31171892420385e-04
5.69025000000000e+00 3.30361138935927e-02 3.29493722928993e-04
5.73075000000000e+00 3.27515261780907e-02 3.27815753317343e-04
5.77125000000000e+00 3.24693900272031e-02 3.26138183725497e-04
5.81175000000000e+00 3.21896843220665e-02 3.24461209021758e-04
5.85225000000000e+00 3.19123881257447e-02 3.22785018928678e-04
5.89275000000000e+00 3.16374806816619e-02 3.21109798145599e-04
5.93325000000000e+00 3.13649414120484e-02 3.19435726467847e-04
5.97375000000000e+00 3.10947499164004e-02 3.17762978902707e-04
6.01425000000000e+00 3.08268859699533e-02 3.16091725782284e-04
6.05475000000000e+00 3.05613295221675e-02 3.14422132873442e-04
6.09525000000000e+00 3.02980606952277e-02 3.12754361484787e-04
6.13575000000000e+00 3.00370597825548e-02 3.11088568570767e-04
6.17625000000000e+00 2.97783072473309e-02 3.09424906833121e-04
6.21675000000000e+00 2.95217837210370e-02 3.07763524819694e-04
6.25725000000000e+00 2.92674700020029e-02 3.06104567020674e-04
6.29775000000000e+00 2.90153470539704e-02 3.04448173962375e-04
6.33825000000000e+00 2.87653960046677e-02 3.02794482298570e-04
6.37875000000000e+00 2.85175981443975e-02 3.01143624899582e-04
6.41925000000000e+00 2.82719349246357e-02 2.99495730939084e-04
6.45975000000000e+00 2.80283879566437e-02 2.97850925978660e-04
6.50025000000000e+00 2.77869390100916e-02 2.96209332050317e-04
6.54075000000000e+00 2.75475700116935e-02 2.94571067736979e-04
6.58125000000000e+00 2.73102630438549e-02 2.92936248250861e-04
6.62175000000000e+00 2.70750003433315e-02 2.91304985509987e-04
6.66225000000000e+00 2.68417642998991e-02 2.89677388212888e-04
6.70275000000000e+00 2.66105374550361e-02 2.88053561911358e-04
6.74325000000000e+00 2.63813025006162e-02 2.86433609081486e-04
6.78375000000000e+00 2.61540422776130e-02 2.84817629193007e-04
6.82425000000000e+00 2.59287397748156e-02 2.83205718776969e-04
6.86475000000000e+00 2.57053781275550e-02 2.81597971491740e-04
6.90525000000000e+00 2.54839406164423e-02 2.79994478187468e-04
6.94575000000000e+00 2.52644106661164e-02 2.78395326969041e-04
6.98625000000000e+00 2.50467718440039e-02 2.76800603257475e-04
7.02675000000000e+00 2.48310078590890e-02 2.75210389849944e-04
7.06725000000000e+00 2.46171025606938e-02 2.73624766978359e-04
7.10775000000000e+00 2.44050399372693e-02 2.72043812366553e-04
7.14825000000000e+00 2.41948041151973e-02 2.70467601286223e-04
7.18875000000000e+00 2.39863793576021e-02 2.68896206611476e-04
7.22925000000000e+00 2.37797500631720e-02 2.67329698872163e-04
7.26975000000000e+00 2.35749007649924e-02 2.65768146306025e-04
7.31025000000000e+00 2.33718161293871e-02 2.64211614909569e-04
7.35075000000000e+00 2.31704809547712e-02 2.62660168487819e-04
7.39125000000000e+00 2.29708801705132e-02 2.61113868702963e-04
7.43175000000000e+00 2.27729988358062e-02 2.59572775121868e-04
7.47225000000000e+00 2.25768221385504e-02 2.58036945262505e-04
7.51275000000000e+00 2.23823353942438e-02 2.56506434639391e-04
7.55325000000000e+00 2.21895240448834e-02 2.54981296807948e-04
7.59375000000000e+00 2.19983736578752e-02 2.53461583407890e-04
7.63425000000000e+00 2.18088699249537e-02 2.51947344205697e-04
7.67475000000000e+00 2.16209986611115e-02 2.50438627136069e-04
7.71525000000000e+00 2.14347458035371e-02 2.48935478342510e-04
7.75575000000000e+00 2.12500974105620e-02 2.47437942217013e-04
7.79625000000000e+00 2.10670396606176e-02 2.45946061438868e-04
7.83675000000000e+00 2.08855588512005e-02 2.44459877012593e-04
7.87725000000000e+00 2.07056413978466e-02 2.42979428305107e-04
7.91775000000000e+00 2.05272738331143e-02 2.41504753082011e-04
7.95825000000000e+00 2.03504428055768e-02 2.40035887543137e-04
7.99875000000000e+00 2.01751350788222e-02 2.38572866357320e-04
8.03925000000000e+00 2.00013375304628e-02 2.37115722696387e-04
8.07975000000000e+00 1.98290371511533e-02 2.35664488268459e-04
8.12025000000000e+00 1.96582210436163e-02 2.34219193350510e-04
8.16075000000000e+00 1.94888764216775e-02 2.32779866820239e-04
8.20125000000000e+00 1.93209906093083e-02 2.31346536187260e-04
8.24175000000000e+00 1.91545510396771e-02 2.29919227623633e-04
8.28225000000000e+00 1.89895452542083e-02 2.28497965993705e-04
8.32275000000000e+00 1.88259609016502e-02 2.27082774883386e-04
8.36325000000000e+00 1.86637857371503e-02 2.25673676628765e-04
8.40375000000000e+00 1.85030076213386e-02 2.24270692344133e-04
8.44425000000000e+00 1.83436145194189e-02 2.22873841949415e-04
8.48475000000000e+00 1.81855945002681e-02 2.21483144197010e-04
8.52525000000000e+00 1.80289357355434e-02 2.20098616698096e-04
8.56575000000000e+00 1.78736264987961e-02 2.18720275948368e-04
8.60625000000000e+00 1.77196551645946e-02 2.17348137353247e-04
8.64675000000000e+00 1.75670102076539e-02 2.15982215252553e-04
8.68725000000000e+00 1.74156802019729e-02 2.14622522944664e-04
8.72775000000000e+00 1.72656538199791e-02 2.13269072710201e-04
8.76825000000000e+00 1.71169198316806e-02 2.11921875835197e-04
8.80875000000000e+00 1.69694671038259e-02 2.10580942633785e-04
8.84925000000000e+00 1.68232845990701e-02 2.09246282470426e-04
8.88975000000000e+00 1.66783613751488e-02 2.07917903781684e-04
8.93025000000000e+00 1.65346865840593e-02 2.06595814097552e-04
8.97075000000000e+00 1.63922494712483e-02 2.05280020062332e-04
9.01125000000000e+00 1.62510393748070e-02 2.03970527455102e-04
9.05175000000000e+00 1.61110457246729e-02 2.02667341209734e-04
9.09225000000000e+00 1.59722580418389e-02 2.01370465434533e-04
9.13275000000000e+00 1.58346659375685e-02 2.00079903431469e-04
9.17325000000000e+00 1.56982591126186e-02 1.98795657715010e-04
9.21375000000000e+00 1.55630273564681e-02 1.97517730030578e-04
9.25425000000000e+00 1.54289605465540e-02 1.96246121372610e-04
9.29475000000000e+00 1.52960486475135e-02 1.94980832002299e-04
9.33525000000000e+00 1.51642817104330e-02 1.93721861464923e-04
9.37575000000000e+00 1.50336498721029e-02 1.92469208606849e-04
9.41625000000000e+00 1.49041433542801e-02 1.91222871592207e-04
9.45675000000000e+00 1.47757524629552e-02 1.89982847919183e-04
9.49725000000000e+00 1.46484675876276e-02 1.88749134436025e-04
9.53775000000000e+00 1.45222792005856e-02 1.87521727356715e-04
9.57825000000000e+00 1.43971778561935e-02 1.86300622276314e-04
9.61875000000000e+00 1.42731541901847e-02 1.85085814186021e-04
9.65925000000000e+00 1.41501989189601e-02 1.83877297487897e-04
9.69975000000000e+00 1.40283028388941e-02 1.82675066009312e-04
9.74025000000000e+00 1.39074568256448e-02 1.81479113017110e-04
9.78075000000000e+00 1.37876518334717e-02 1.80289431231481e-04
9.82125000000000e+00 1.36688788945581e-02 1.79106012839535e-04
9.86175000000000e+00 1.35511291183404e-02 1.77928849508633e-04
9.90225000000000e+00 1.34343936908418e-02 1.76757932399468e-04
9.94275000000000e+00 1.33186638740133e-02 1.75593252178818e-04
9.98325000000000e+00 1.32039310050793e-02 1.74434799032104e-04
1.00237500000000e+01 1.30901864958890e-02 1.73282562675681e-04
1.00642500000000e+01 1.29774218322740e-02 1.72136532368851e-04
1.01047500000000e+01 1.28656285734104e-02 1.70996696925687e-04
1.01452500000000e+01 1.27547983511877e-02 1.69863044726622e-04
1.01857500000000e+01 1.26449228695816e-02 1.68735563729725e-04
1.02262500000000e+01 1.25359939040337e-02 1.67614241481847e-04
1.02667500000000e+01 1.24280033008355e-02 1.66499065129500e-04
1.03072500000000e+01 1.23209429765181e-02 1.65390021429514e-04
1.03477500000000e+01 1.22148049172472e-02 1.64287096759516e-04
1.03882500000000e+01 1.21095811782234e-02 1.63190277128160e-04
1.04287500000000e+01 1.20052638830871e-02 1.62099548185170e-04
1.04692500000000e+01 1.19018452233292e-02 1.61014895231192e-04
1.05097500000000e+01 1.17993174577066e-02 1.59936303227432e-04
1.05502500000000e+01 1.16976729116627e-02 1.58863756805097e-04
1.05907500000000e+01 1.15969039767528e-02 1.57797240274694e-04
1.06312500000000e+01 1.14970031100749e-02 1.56736737635090e-04
1.06717500000000e+01 1.13979628337049e-02 1.55682232582397e-04
1.07122500000000e+01 1.12997757341366e-02 1.54633708518726e-04
1.07527500000000e+01 1.12024344617273e-02 1.53591148560710e-04
1.07932500000000e+01 1.11059317301473e-02 1.52554535547872e-04
1.08337500000000e+01 1.10102603158344e-02 1.51523852050850e-04
1.08742500000000e+01 1.09154130574536e-02 1.50499080379448e-04
1.09147500000000e+01 1.08213828553606e-02 1.49480202590510e-04
1.09552500000000e+01 1.07281626710709e-02 1.48467200495632e-04
1.09957500000000e+01 1.06357455267323e-02 1.47460055668748e-04
1.10362500000000e+01 1.05441245046030e-02 1.46458749453550e-04
1.10767500000000e+01 1.04532927465337e-02 1.45463262970738e-04
1.11172500000000e+01 1.03632434534543e-02 1.44473577125164e-04
1.11577500000000e+01 1.02739698848649e-02 1.43489672612820e-04
1.11982500000000e+01 1.01854653583311e-02 1.42511529927651e-04
1.12387500000000e+01 1.00977232489842e-02 1.41539129368276e-04
1.12792500000000e+01 1.00107369890248e-02 1.40572451044549e-04
1.13197500000000e+01 9.92450006723149e-03 1.39611474883988e-04
1.13602500000000e+01 9.83900602847355e-03 1.38656180638098e-04
1.14007500000000e+01 9.75424847322750e-03 1.37706547888526e-04
1.14412500000000e+01 9.67022105709819e-03 1.36762556053129e-04
1.14817500000000e+01 9.58691749034392e-03 1.35824184391893e-04
1.15222500000000e+01 9.50433153740561e-03 1.34891412012747e-04
1.15627500000000e+01 9.42245701644004e-03 1.33964217877257e-04
1.16032500000000e+01 9.34128779885715e-03 1.33042580806204e-04
1.16437500000000e+01 9.26081780886123e-03 1.32126479485031e-04
1.16842500000000e+01 9.18104102299620e-03 1.31215892469197e-04
1.17247500000000e+01 9.10195146969467e-03 1.30310798189436e-04
1.17652500000000e+01 9.02354322883100e-03 1.29411174956870e-04
1.18057500000000e+01 8.94581043127812e-03 1.28517000968051e-04
1.18462500000000e+01 8.86874725846822e-03 1.27628254309873e-04
1.18867500000000e+01 8.79234794195722e-03 1.26744912964399e-04
1.19272500000000e+01 8.71660676299296e-03 1.25866954813597e-04
1.19677500000000e+01 8.64151805208714e-03 1.24994357643950e-04
1.20082500000000e+01 8.56707618859097e-03 1.24127099150996e-04
1.20487500000000e+01 8.49327560027439e-03 1.23265156943766e-04
1.20892500000000e+01 8.42011076290901e-03 1.22408508549134e-04
1.21297500000000e+01 8.34757619985458e-03 1.21557131416044e-04
1.21702500000000e+01 8.27566648164907e-03 1.20711002919700e-04
1.22107500000000e+01 8.20437622560223e-03 1.19870100365654e-04
1.22512500000000e+01 8.13370009539269e-03 1.19034400993774e-04
1.22917500000000e+01 8.06363280066850e-03 1.18203881982159e-04
1.23322500000000e+01 7.99416909665118e-03 1.17378520450974e-04
1.23727500000000e+01 7.92530378374307e-03 1.16558293466191e-04
1.24132500000000e+01 7.85703170713813e-03 1.15743178043256e-04
1.24537500000000e+01 7.78934775643615e-03 1.14933151150676e-04
1.24942500000000e+01 7.72224686526012e-03 1.14128189713530e-04
1.25347500000000e+01 7.65572401087709e-03 1.13328270616921e-04
1.25752500000000e+01 7.58977421382212e-03 1.12533370709316e-04
1.26157500000000e+01 7.52439253752560e-03 1.11743466805849e-04
1.26562500000000e+01 7.45957408794373e-03 1.10958535691556e-04
1.26967500000000e+01 7.39531401319216e-03 1.10178554124504e-04
1.27372500000000e+01 7.33160750318280e-03 1.09403498838884e-04
1.27777500000000e+01 7.26844978926383e-03 1.08633346548031e-04
