Energy (eV)          EEDF (eV^-(3/2))     First Anisotropy
1.04230769230769e-03 9.84066490793060e+00 5.58044920306520e-03
3.12692307692308e-03 9.75387416863118e+00 9.20521800663589e-03
5.21153846153846e-03 9.66784888892361e+00 1.21262881511114e-02
7.29615384615385e-03 9.58258231793419e+00 1.43299030251454e-02
9.38076923076923e-03 9.49806776403776e+00 1.61549254378279e-02
1.14653846153846e-02 9.41429859495769e+00 1.77298442681243e-02
1.35500000000000e-02 9.33126823643370e+00 1.91213345977893e-02
1.56346153846154e-02 9.24897017247075e+00 2.03697669488694e-02
1.77192307692308e-02 9.16739794453886e+00 2.15019862098250e-02
1.98038461538462e-02 9.08654515107118e+00 2.25370152213930e-02
2.18884615384615e-02 9.00640544729928e+00 2.34889721224777e-02
2.39730769230769e-02 8.92697254369184e+00 2.43687111558647e-02
2.60576923076923e-02 8.84824020656313e+00 2.51848129304699e-02
2.81423076923077e-02 8.77020225720388e+00 2.59442156948033e-02
3.02269230769231e-02 8.69285257139313e+00 2.66526355779107e-02
3.23115384615385e-02 8.61618507892690e+00 2.73148565910178e-02
3.43961538461538e-02 8.54019376313679e+00 2.79349367945710e-02
3.64807692307692e-02 8.46487266060880e+00 2.85163586989440e-02
3.85653846153846e-02 8.39021586013178e+00 2.90621412925736e-02
4.06500000000000e-02 8.31621750283010e+00 2.95749251311787e-02
4.27346153846154e-02 8.24287178149968e+00 3.00570381300365e-02
4.48192307692308e-02 8.17017294015353e+00 3.05105470814084e-02
4.69038461538462e-02 8.09811527357073e+00 3.09372985731674e-02
4.89884615384615e-02 8.02669312698032e+00 3.13389519236014e-02
5.10730769230769e-02 7.95590089521337e+00 3.17170058788564e-02
5.31576923076923e-02 7.88573302267439e+00 3.20728205078075e-02
5.52423076923077e-02 7.81618400276581e+00 3.24076353816025e-02
5.73269230769231e-02 7.74724837745490e+00 3.27225846948695e-02
5.94115384615385e-02 7.67892073684754e+00 3.30187099869809e-02
6.14961538461539e-02 7.61119571876251e+00 3.32969708984739e-02
6.35807692307692e-02 7.54406800840653e+00 3.35582543728009e-02
6.56653846153846e-02 7.47753233766578e+00 3.38033824923951e-02
6.77500000000000e-02 7.41158348498818e+00 3.40331192269255e-02
6.98346153846154e-02 7.34621627487323e+00 3.42481763275058e-02
7.19192307692308e-02 7.28142557746624e+00 3.44492184167030e-02
7.40038461538462e-02 7.21720630815603e+00 3.46368674382966e-02
7.60884615384615e-02 7.15355342725090e+00 3.48117065980847e-02
7.81730769230769e-02 7.09046193935425e+00 3.49742837948159e-02
8.02576923076923e-02 7.02792689320448e+00 3.51251146531980e-02
8.23423076923077e-02 6.96594338120810e+00 3.52646852604880e-02
8.44269230769231e-02 6.90450653905417e+00 3.53934545700287e-02
8.65115384615385e-02 6.84361154533341e+00 3.55118565575084e-02
8.85961538461539e-02 6.78325362115940e+00 3.56203021460811e-02
9.06807692307692e-02 6.72342802985295e+00 3.57191809669131e-02
9.27653846153846e-02 6.66413007639006e+00 3.58088629094939e-02
9.48500000000000e-02 6.60535510721598e+00 3.58896995211179e-02
9.69346153846154e-02 6.54709850981826e+00 3.59620253128930e-02
9.90192307692308e-02 6.48935571236497e+00 3.60261588818592e-02
1.01103846153846e-01 6.43212218359619e+00 3.60824041149447e-02
1.03188461538462e-01 6.37539343141537e+00 3.61310509365476e-02
1.05273076923077e-01 6.31916500438722e+00 3.61723763249085e-02
1.07357692307692e-01 6.26343248936779e+00 3.62066451110151e-02
1.09442307692308e-01 6.20819151308237e+00 3.62341106395421e-02
1.11526923076923e-01 6.15343774034061e+00 3.62550157170999e-02
1.13611538461538e-01 6.09916687376846e+00 3.62695928495055e-02
1.15696153846154e-01 6.04537465475577e+00 3.62780650790469e-02
1.17780769230769e-01 5.99205686140641e+00 3.62806464638297e-02
1.19865384615385e-01 5.93920930988636e+00 3.62775425053150e-02
1.21950000000000e-01 5.88682785283898e+00 3.62689508520271e-02
1.24034615384615e-01 5.83490837911635e+00 3.62550613675001e-02
1.26119230769231e-01 5.78344681458734e+00 3.62360567077424e-02
1.28203846153846e-01 5.73243912066557e+00 3.62121128588200e-02
1.30288461538462e-01 5.68188129404290e+00 3.61833991427527e-02
1.32373076923077e-01 5.63176936741633e+00 3.61500787607039e-02
1.34457692307692e-01 5.58209940778915e+00 3.61123090445179e-02
1.36542307692308e-01 5.53286751752262e+00 3.60702416782897e-02
1.38626923076923e-01 5.48406983301085e+00 3.60240231731013e-02
1.40711538461538e-01 5.43570252442156e+00 3.59737948017162e-02
1.42796153846154e-01 5.38776179631919e+00 3.59196930349959e-02
1.44880769230769e-01 5.34024388613453e+00 3.58618497143787e-02
1.46965384615385e-01 5.29314506507879e+00 3.58003922015364e-02
1.49050000000000e-01 5.24646163694598e+00 3.57354437670232e-02
1.51134615384615e-01 5.20018993785882e+00 3.56671234835162e-02
1.53219230769231e-01 5.15432633680668e+00 3.55955465419814e-02
1.55303846153846e-01 5.10886723452137e+00 3.55208245497472e-02
1.57388461538462e-01 5.06380906322711e+00 3.54430654098787e-02
1.59473076923077e-01 5.01914828712826e+00 3.53623736450901e-02
1.61557692307692e-01 4.97488140110892e+00 3.52788504952445e-02
1.63642307692308e-01 4.93100493146264e+00 3.51925939987960e-02
1.65726923076923e-01 4.88751543486696e+00 3.51036992879335e-02
1.67811538461538e-01 4.84440949814225e+00 3.50122584514548e-02
1.69896153846154e-01 4.80168373867350e+00 3.49183608121100e-02
1.71980769230769e-01 4.75933480322495e+00 3.48220929951770e-02
1.74065384615385e-01 4.71735936858109e+00 3.47235389835926e-02
1.76150000000000e-01 4.67575414060911e+00 3.46227803734551e-02
1.78234615384615e-01 4.63451585402468e+00 3.45198962288129e-02
1.80319230769231e-01 4.59364127275882e+00 3.44149632863488e-02
1.82403846153846e-01 4.55312718907141e+00 3.43080561499010e-02
1.84488461538462e-01 4.51297042332175e+00 3.41992471444194e-02
1.86573076923077e-01 4.47316782430243e+00 3.40886065382461e-02
1.88657692307692e-01 4.43371626821478e+00 3.39762025824255e-02
1.90742307692308e-01 4.39461265918820e+00 3.38621015393983e-02
1.92826923076923e-01 4.35585392846446e+00 3.37463678905731e-02
1.94911538461538e-01 4.31743703417698e+00 3.36290641895955e-02
1.96996153846154e-01 4.27935896164106e+00 3.35102512597075e-02
1.99080769230769e-01 4.24161672241200e+00 3.33899882209358e-02
2.01165384615385e-01 4.20420735474457e+00 3.32683325079093e-02
2.03250000000000e-01 4.16712792284110e+00 3.31453400553650e-02
2.05334615384615e-01 4.13037551663824e+00 3.30210651533527e-02
2.07419230769231e-01 4.09394725206017e+00 3.28955605936585e-02
2.09503846153846e-01 4.05784027030406e+00 3.27688778097115e-02
2.11588461538462e-01 4.02205173763152e+00 3.26410667347380e-02
2.13673076923077e-01 3.98657884559953e+00 3.25121759671262e-02
2.15757692307692e-01 3.95141881023624e+00 3.23822527849203e-02
2.17842307692308e-01 3.91656887241693e+00 3.22513431524500e-02
2.19926923076923e-01 3.88202629720214e+00 3.21194918770602e-02
2.22011538461538e-01 3.84778837363756e+00 3.19867424714174e-02
2.24096153846154e-01 3.81385241495498e+00 3.18531373034948e-02
2.26180769230769e-01 3.78021575780994e+00 3.17187176055346e-02
2.28265384615385e-01 3.74687576261587e+00 3.15835234758722e-02
2.30350000000000e-01 3.71382981293031e+00 3.14475940216662e-02
2.32434615384615e-01 3.68107531526218e+00 3.13109672261235e-02
2.34519230769231e-01 3.64860969924711e+00 3.11736800597771e-02
2.36603846153846e-01 3.61643041706194e+00 3.10357685872257e-02
2.38688461538462e-01 3.58453494323649e+00 3.08972678382378e-02
2.40773076923077e-01 3.55292077481337e+00 3.07582119368239e-02
2.42857692307692e-01 3.52158543067468e+00 3.06186341043696e-02
2.44942307692308e-01 3.49052645181714e+00 3.04785666565724e-02
2.47026923076923e-01 3.45974140080714e+00 3.03380411269302e-02
2.49111538461538e-01 3.42922786160023e+00 3.01970881432598e-02
2.51196153846154e-01 3.39898343968001e+00 3.00557375462984e-02
2.53280769230769e-01 3.36900576143235e+00 2.99140183902006e-02
2.55365384615385e-01 3.33929247439066e+00 2.97719589373198e-02
2.57450000000000e-01 3.30984124672819e+00 2.96295867719837e-02
2.59534615384615e-01 3.28064976708451e+00 2.94869286825452e-02
2.61619230769231e-01 3.25171574468629e+00 2.93440107492084e-02
2.63703846153846e-01 3.22303690886170e+00 2.92008584285415e-02
2.65788461538462e-01 3.19461100887095e+00 2.90574964393807e-02
2.67873076923077e-01 3.16643581401618e+00 2.89139488666330e-02
2.69957692307692e-01 3.13850911308483e+00 2.87702391590584e-02
2.72042307692308e-01 3.11082871455228e+00 2.86263901219987e-02
2.74126923076923e-01 3.08339244612807e+00 2.84824240173185e-02
2.76211538461539e-01 3.05619815459358e+00 2.83383624547377e-02
2.78296153846154e-01 3.02924370589706e+00 2.81942264880115e-02
2.80380769230769e-01 3.00252698463430e+00 2.80500366114533e-02
2.82465384615385e-01 2.97604589422957e+00 2.79058127517588e-02
2.84550000000000e-01 2.94979835651137e+00 2.77615743607751e-02
2.86634615384615e-01 2.92378231155650e+00 2.76173403121428e-02
2.88719230769231e-01 2.89799571777228e+00 2.74731289723631e-02
2.90803846153846e-01 2.87243655148964e+00 2.73289582693357e-02
2.92888461538462e-01 2.84710280681114e+00 2.71848455925214e-02
2.94973076923077e-01 2.82199249568521e+00 2.70408078780778e-02
2.97057692307692e-01 2.79710364744157e+00 2.68968616041733e-02
2.99142307692308e-01 2.77243430894094e+00 2.67530227820987e-02
3.01226923076923e-01 2.74798254419374e+00 2.66093070385992e-02
3.03311538461539e-01 2.72374643421452e+00 2.64657295210386e-02
3.05396153846154e-01 2.69972407708555e+00 2.63223049767231e-02
3.07480769230769e-01 2.67591358752210e+00 2.61790477476536e-02
3.09565384615385e-01 2.65231309700611e+00 2.60359717613423e-02
3.11650000000000e-01 2.62892075342871e+00 2.58930906076252e-02
3.13734615384615e-01 2.60573472095050e+00 2.57504174486420e-02
3.15819230769231e-01 2.58275318005589e+00 2.56079650773144e-02
3.17903846153846e-01 2.55997432720972e+00 2.54657459738573e-02
3.19988461538462e-01 2.53739637472099e+00 2.53237722188679e-02
3.22073076923077e-01 2.51501755079152e+00 2.51820555640930e-02
3.24157692307692e-01 2.49283609912524e+00 2.50406074267309e-02
3.26242307692308e-01 2.47085027903875e+00 2.48994388801933e-02
3.28326923076923e-01 2.44905836513862e+00 2.47585607227625e-02
3.30411538461538e-01 2.42745864719096e+00 2.46179833951379e-02
3.32496153846154e-01 2.40604943016245e+00 2.44777170466376e-02
3.34580769230769e-01 2.38482903385381e+00 2.43377715292915e-02
3.36665384615385e-01 2.36379579299837e+00 2.41981563886142e-02
3.38750000000000e-01 2.34294805695887e+00 2.40588809278950e-02
3.40834615384615e-01 2.32228418960237e+00 2.39199541299979e-02
3.42919230769231e-01 2.30180256933457e+00 2.37813847060664e-02
3.45003846153846e-01 2.28150158880807e+00 2.36431811426573e-02
3.47088461538462e-01 2.26137965480044e+00 2.35053516262467e-02
3.49173076923077e-01 2.24143518824443e+00 2.33679041026294e-02
3.51257692307692e-01 2.22166662389729e+00 2.32308462709533e-02
3.53342307692308e-01 2.20207241042200e+00 2.30941855747537e-02
3.55426923076923e-01 2.18265101011270e+00 2.29579292597221e-02
3.57511538461538e-01 2.16340089877789e+00 2.28220843021153e-02
3.59596153846154e-01 2.14432056576516e+00 2.26866574644809e-02
3.61680769230769e-01 2.12540851365033e+00 2.25516552896804e-02
3.63765384615385e-01 2.10666325830979e+00 2.24170840920780e-02
3.65850000000000e-01 2.08808332866187e+00 2.22829500117800e-02
3.67934615384615e-01 2.06966726655497e+00 2.21492589467636e-02
3.70019230769231e-01 2.05141362678741e+00 2.20160165937914e-02
3.72103846153846e-01 2.03332097685834e+00 2.18832284880728e-02
3.74188461538462e-01 2.01538789685867e+00 2.17508999377261e-02
3.76273076923077e-01 1.99761297948792e+00 2.16190360739906e-02
3.78357692307692e-01 1.97999482977294e+00 2.14876418453924e-02
3.80442307692308e-01 1.96253206512715e+00 2.13567220093405e-02
3.82526923076923e-01 1.94522331511563e+00 2.12262811810560e-02
3.84611538461539e-01 1.92806722135075e+00 2.10963237714310e-02
3.86696153846154e-01 1.91106243750507e+00 2.09668540342431e-02
3.88780769230769e-01 1.89420762904643e+00 2.08378760604010e-02
3.90865384615385e-01 1.87750147329051e+00 2.07093937697682e-02
3.92950000000000e-01 1.86094265917925e+00 2.05814109571990e-02
3.95034615384615e-01 1.84452988718081e+00 2.04539312336209e-02
3.97119230769231e-01 1.82826186929910e+00 2.03269580606480e-02
3.99203846153846e-01 1.81213732886005e+00 2.02004947841663e-02
4.01288461538462e-01 1.79615500041418e+00 2.00745445774302e-02
4.03373076923077e-01 1.78031362974387e+00 1.99491104837482e-02
4.05457692307692e-01 1.76461197362299e+00 1.98241954109700e-02
4.07542307692308e-01 1.74904879985952e+00 1.96998021237655e-02
4.09626923076923e-01 1.73362288709384e+00 1.95759332852854e-02
4.11711538461539e-01 1.71833302470542e+00 1.94525914032043e-02
4.13796153846154e-01 1.70317801281729e+00 1.93297788699236e-02
4.15880769230769e-01 1.68815666206933e+00 1.92074979571884e-02
4.17965384615385e-01 1.67326779365589e+00 1.90857508086242e-02
4.20050000000000e-01 1.65851023913521e+00 1.89645394789904e-02
4.22134615384615e-01 1.64388284034003e+00 1.88438658830166e-02
4.24219230769231e-01 1.62938444937969e+00 1.87237318248344e-02
4.26303846153846e-01 1.61501392845614e+00 1.86041390265618e-02
4.28388461538462e-01 1.60077014977690e+00 1.84850890788733e-02
4.30473076923077e-01 1.58665199555550e+00 1.83665834774433e-02
4.32557692307692e-01 1.57265835780529e+00 1.82486236178434e-02
4.34642307692308e-01 1.55878813836955e+00 1.81312107885407e-02
4.36726923076923e-01 1.54504024874758e+00 1.80143462065130e-02
4.38811538461539e-01 1.53141361001141e+00 1.78980309703656e-02
4.40896153846154e-01 1.51790715280425e+00 1.77822660947062e-02
4.42980769230769e-01 1.50451981714578e+00 1.76670525051927e-02
4.45065384615385e-01 1.49125055245846e+00 1.75523910317858e-02
4.47150000000000e-01 1.47809831740307e+00 1.74382824423546e-02
4.49234615384615e-01 1.46506207979892e+00 1.73247273982092e-02
4.51319230769231e-01 1.45214081662064e+00 1.72117264792305e-02
4.53403846153846e-01 1.43933351383932e+00 1.70992802083019e-02
4.55488461538462e-01 1.42663916634478e+00 1.69873890083332e-02
4.57573076923077e-01 1.41405677794123e+00 1.68760532334894e-02
4.59657692307692e-01 1.40158536116979e+00 1.67652731645275e-02
4.61742307692308e-01 1.38922393732916e+00 1.66550490024964e-02
4.63826923076923e-01 1.37697153632523e+00 1.65453808992874e-02
4.65911538461538e-01 1.36482719659675e+00 1.64362689168645e-02
4.67996153846154e-01 1.35278996510956e+00 1.63277130567528e-02
4.70080769230769e-01 1.34085889718891e+00 1.62197132555300e-02
4.72165384615385e-01 1.32903305653714e+00 1.61122693787723e-02
4.74250000000000e-01 1.31731151509144e+00 1.60053812499129e-02
4.76334615384615e-01 1.30569335295255e+00 1.58990486115584e-02
4.78419230769231e-01 1.29417765837796e+00 1.57932711470226e-02
4.80503846153846e-01 1.28276352764436e+00 1.56880485012761e-02
4.82588461538462e-01 1.27145006497820e+00 1.55833802435494e-02
4.84673076923077e-01 1.26023638254814e+00 1.54792658941736e-02
4.86757692307692e-01 1.24912160031181e+00 1.53757049203571e-02
4.88842307692308e-01 1.23810484602932e+00 1.52726967305423e-02
4.90926923076923e-01 1.22718525513296e+00 1.51702407006882e-02
4.93011538461539e-01 1.21636197066076e+00 1.50683361387828e-02
4.95096153846154e-01 1.20563414324804e+00 1.49669823102104e-02
4.97180769230769e-01 1.19500093098238e+00 1.48661784336806e-02
4.99265384615385e-01 1.18446149941502e+00 1.47659236758169e-02
5.01350000000000e-01 1.17401502143739e+00 1.46662171760027e-02
5.03434615384615e-01 1.16366067721747e+00 1.45670580127011e-02
5.05519230769231e-01 1.15339765419058e+00 1.44684452219587e-02
5.07603846153846e-01 1.14322514694003e+00 1.43703778154219e-02
5.09688461538462e-01 1.13314235713506e+00 1.42728547477629e-02
5.11773076923077e-01 1.12314849352119e+00 1.41758749398082e-02
5.13857692307692e-01 1.11324277178758e+00 1.40794372747331e-02
5.15942307692308e-01 1.10342441457521e+00 1.39835405930278e-02
5.18026923076923e-01 1.09369265136364e+00 1.38881837151620e-02
5.20111538461539e-01 1.08404671841172e+00 1.37933654106660e-02
5.22196153846154e-01 1.07448585874731e+00 1.36990844200035e-02
5.24280769230769e-01 1.06500932204170e+00 1.36053394509144e-02
5.26365384615385e-01 1.05561636461618e+00 1.35121291735915e-02
5.28450000000000e-01 1.04630624933464e+00 1.34194522421222e-02
5.30534615384615e-01 1.03707824554683e+00 1.33273072651373e-02
5.32619230769231e-01 1.02793162907763e+00 1.32356928217492e-02
5.34703846153846e-01 1.01886568212317e+00 1.31446074770786e-02
5.36788461538462e-01 1.00987969319552e+00 1.30540497538630e-02
5.38873076923077e-01 1.00097295711169e+00 1.29640181524244e-02
5.40957692307692e-01 9.92144774878546e-01 1.28745111472553e-02
5.43042307692308e-01 9.83394453697029e-01 1.27855271825405e-02
5.45126923076923e-01 9.74721306863544e-01 1.26970646917368e-02
5.47211538461538e-01 9.66124653717060e-01 1.26091220706149e-02
5.49296153846154e-01 9.57603819627757e-01 1.25216976961583e-02
5.51380769230769e-01 9.49158135888041e-01 1.24347899232864e-02
5.53465384615385e-01 9.40786939715472e-01 1.23483970805653e-02
5.55550000000000e-01 9.32489574159263e-01 1.22625174887463e-02
5.57634615384615e-01 9.24265388049613e-01 1.21771494351660e-02
5.59719230769231e-01 9.16113735986133e-01 1.20922911875018e-02
5.61803846153846e-01 9.08033978247321e-01 1.20079410071838e-02
5.63888461538462e-01 9.00025480741202e-01 1.19240971246226e-02
5.65973076923077e-01 8.92087614993581e-01 1.18407577564808e-02
5.68057692307692e-01 8.84219758048099e-01 1.17579211026204e-02
5.70142307692308e-01 8.76421292467398e-01 1.16755853421249e-02
5.72226923076923e-01 8.68691606247175e-01 1.15937486502462e-02
5.74311538461538e-01 8.61030092768964e-01 1.15124091748760e-02
5.76396153846154e-01 8.53436150788249e-01 1.14315650529047e-02
5.78480769230769e-01 8.45909184339697e-01 1.13512144072933e-02
5.80565384615385e-01 8.38448602737435e-01 1.12713553432655e-02
5.82650000000000e-01 8.31053820493470e-01 1.11919859643621e-02
5.84734615384615e-01 8.23724257272478e-01 1.11131043500927e-02
5.86819230769231e-01 8.16459337879857e-01 1.10347085678314e-02
5.88903846153846e-01 8.09258492182704e-01 1.09567966844201e-02
5.90988461538462e-01 8.02121155065775e-01 1.08793667445373e-02
5.93073076923077e-01 7.95046766419468e-01 1.08024167856615e-02
5.95157692307692e-01 7.88034771052816e-01 1.07259448353474e-02
5.97242307692308e-01 7.81084618692485e-01 1.06499489076949e-02
5.99326923076923e-01 7.74195763907705e-01 1.05744270180416e-02
6.01411538461538e-01 7.67367666068151e-01 1.04993771624110e-02
6.03496153846154e-01 7.60599789331904e-01 1.04247973316932e-02
6.05580769230769e-01 7.53891602562916e-01 1.03506855090337e-02
6.07665384615385e-01 7.47242579329364e-01 1.02770396664557e-02
6.09750000000000e-01 7.40652197832356e-01 1.02038577787847e-02
6.11834615384615e-01 7.34119940865603e-01 1.01311378041233e-02
6.13919230769231e-01 7.27645295803443e-01 1.00588776941531e-02
6.16003846153846e-01 7.21227754531754e-01 9.98707540418914e-03
6.18088461538462e-01 7.14866813408675e-01 9.91572887427727e-03
6.20173076923077e-01 7.08561973252625e-01 9.84483604217606e-03
6.22257692307692e-01 7.02312739266448e-01 9.77439484092994e-03
6.24342307692308e-01 6.96118621034859e-01 9.70440319573856e-03
6.26426923076923e-01 6.89979132458787e-01 9.63485903670977e-03
6.28511538461539e-01 6.83893791717796e-01 9.56576028089569e-03
6.30596153846154e-01 6.77862121258195e-01 9.49710484460124e-03
6.32680769230769e-01 6.71883647721035e-01 9.42889064105923e-03
6.34765384615385e-01 6.65957901939105e-01 9.36111557743653e-03
6.36850000000000e-01 6.60084418874544e-01 9.29377756692626e-03
6.38934615384615e-01 6.54262737582872e-01 9.22687451167547e-03
6.41019230769231e-01 6.48492401201229e-01 9.16040431172112e-03
6.43103846153846e-01 6.42772956887901e-01 9.09436487371373e-03
6.45188461538462e-01 6.37103955787288e-01 9.02875409438562e-03
6.47273076923077e-01 6.31484953018186e-01 8.96356987182901e-03
6.49357692307692e-01 6.25915507607569e-01 8.89881010333565e-03
6.51442307692308e-01 6.20395182486946e-01 8.83447268262250e-03
6.53526923076923e-01 6.14923544434867e-01 8.77055551091522e-03
6.55611538461539e-01 6.09500164043407e-01 8.70705648123356e-03
6.57696153846154e-01 6.04124615706609e-01 8.64397348908971e-03
