Energy (eV)          EEDF (eV^-(3/2))     First Anisotropy
6.68750000000000e-02 7.23181091341121e-02 6.72706308294213e-05
2.00625000000000e-01 7.07743551252862e-02 1.10268003462403e-04
3.34375000000000e-01 6.92635551921071e-02 1.43423220567957e-04
4.68125000000000e-01 6.77850058733475e-02 1.67344325860551e-04
6.01875000000000e-01 6.63380187243590e-02 1.86272546377433e-04
7.35625000000000e-01 6.49219199965240e-02 2.01848240529663e-04
8.69375000000000e-01 6.35360503235435e-02 2.14938592981235e-04
1.00312500000000e+00 6.21797644144223e-02 2.26078058058910e-04
1.13687500000000e+00 6.08524307530079e-02 2.35628102649244e-04
1.27062500000000e+00 5.95534313039422e-02 2.43849044984133e-04
1.40437500000000e+00 5.82821612248917e-02 2.50937072624532e-04
1.53812500000000e+00 5.70380285849190e-02 2.57045217827744e-04
1.67187500000000e+00 5.58204540888673e-02 2.62296110699837e-04
1.80562500000000e+00 5.46288708076282e-02 2.66790168530634e-04
1.93937500000000e+00 5.34627239141667e-02 2.70611089456694e-04
2.07312500000000e+00 5.23214704251821e-02 2.73829672285837e-04
2.20687500000000e+00 5.12045789482829e-02 2.76506553312563e-04
2.34062500000000e+00 5.01115294345593e-02 2.78694217786005e-04
2.47437500000000e+00 4.90418129364369e-02 2.80438511069074e-04
2.60812500000000e+00 4.79949313706996e-02 2.81779795832617e-04
2.74187500000000e+00 4.69703972865715e-02 2.82753853209185e-04
2.87562500000000e+00 4.59677336387491e-02 2.83392595088314e-04
3.00937500000000e+00 4.49864735652787e-02 2.83724634670658e-04
3.14312500000000e+00 4.40261601701752e-02 2.83775748980147e-04
3.27687500000000e+00 4.30863463106816e-02 2.83569257863242e-04
3.41062500000000e+00 4.21665943890695e-02 2.83126337614100e-04
3.54437500000000e+00 4.12664761488842e-02 2.82466282832762e-04
3.67812500000000e+00 4.03855724755392e-02 2.81606726858048e-04
3.81187500000000e+00 3.95234732011671e-02 2.80563828729270e-04
3.94562500000000e+00 3.86797769136370e-02 2.79352432862284e-04
4.07937500000000e+00 3.78540907696479e-02 2.77986206298680e-04
4.21312500000000e+00 3.70460303118125e-02 2.76477757380668e-04
4.34687500000000e+00 3.62552192896455e-02 2.74838738933132e-04
4.48062500000000e+00 3.54812894843732e-02 2.73079938437308e-04
4.61437500000000e+00 3.47238805374828e-02 2.71211357214577e-04
4.74812500000000e+00 3.39826397829317e-02 2.69242280271760e-04
4.88187500000000e+00 3.32572220829385e-02 2.67181338167914e-04
5.01562500000000e+00 3.25472896672795e-02 2.65036562029697e-04
5.14937500000000e+00 3.18525119760152e-02 2.62815432654796e-04
5.28312500000000e+00 3.11725655055749e-02 2.60524924490829e-04
5.41687500000000e+00 3.05071336581262e-02 2.58171545153164e-04
5.55062500000000e+00 2.98559065941599e-02 2.55761371043411e-04
5.68437500000000e+00 2.92185810882224e-02 2.53300079546442e-04
5.81812500000000e+00 2.85948603877273e-02 2.50792978214255e-04
5.95187500000000e+00 2.79844540747807e-02 2.48245031287051e-04
6.08562500000000e+00 2.73870779309565e-02 2.45660883853351e-04
6.21937500000000e+00 2.68024538049583e-02 2.43044883910201e-04
6.35312500000000e+00 2.62303094831057e-02 2.40401102550063e-04
6.48687500000000e+00 2.56703785625861e-02 2.37733352471730e-04
6.62062500000000e+00 2.51224003274114e-02 2.35045204987750e-04
6.75437500000000e+00 2.45861196270236e-02 2.32340005679568e-04
6.88812500000000e+00 2.40612867574903e-02 2.29620888833381e-04
7.02187500000000e+00 2.35476573452378e-02 2.26890790773972e-04
7.15562500000000e+00 2.30449922332652e-02 2.24152462200274e-04
7.28937500000000e+00 2.25530573697878e-02 2.21408479614678e-04
7.42312500000000e+00 2.20716236992575e-02 2.18661255927863e-04
7.55687500000000e+00 2.16004670557094e-02 2.15913050312081e-04
7.69062500000000e+00 2.11393680583854e-02 2.13165977368074e-04
7.82437500000000e+00 2.06881120095859e-02 2.10422015663954e-04
7.95812500000000e+00 2.02464887947015e-02 2.07683015698448e-04
8.09187500000000e+00 1.98142927843795e-02 2.04950707335618e-04
8.22562500000000e+00 1.93913227387783e-02 2.02226706753543e-04
8.35937500000000e+00 1.89773817138655e-02 1.99512522945308e-04
8.49312500000000e+00 1.85722769697167e-02 1.96809563807021e-04
8.62687500000000e+00 1.81758198807716e-02 1.94119141844362e-04
8.76062500000000e+00 1.77878258480061e-02 1.91442479526233e-04
8.89437500000000e+00 1.74081142129782e-02 1.88780714311512e-04
9.02812500000000e+00 1.70365081737104e-02 1.86134903372628e-04
9.16187500000000e+00 1.66728347023665e-02 1.83506028037626e-04
9.29562500000000e+00 1.63169244646859e-02 1.80894997970479e-04
9.42937500000000e+00 1.59686117411381e-02 1.78302655107772e-04
9.56312500000000e+00 1.56277343497602e-02 1.75729777368384e-04
9.69687500000000e+00 1.52941335706412e-02 1.73177082151441e-04
9.83062500000000e+00 1.49676540720186e-02 1.70645229636547e-04
9.96437500000000e+00 1.46481438379528e-02 1.68134825899247e-04
1.00981250000000e+01 1.43354540975450e-02 1.65646425853616e-04
1.02318750000000e+01 1.40294392556661e-02 1.63180536033006e-04
1.03656250000000e+01 1.37299568251649e-02 1.60737617219085e-04
1.04993750000000e+01 1.34368673605224e-02 1.58318086928617e-04
1.06331250000000e+01 1.31500343929234e-02 1.55922321766674e-04
1.07668750000000e+01 1.28693243667135e-02 1.53550659654389e-04
1.09006250000000e+01 1.25946065772127e-02 1.51203401938761e-04
1.10343750000000e+01 1.23257531098564e-02 1.48880815391470e-04
1.11681250000000e+01 1.20626387806356e-02 1.46583134103230e-04
1.13018750000000e+01 1.18051410778088e-02 1.44310561279714e-04
1.14356250000000e+01 1.15531401048572e-02 1.42063270944685e-04
1.15693750000000e+01 1.13065185246592e-02 1.39841409555599e-04
1.17031250000000e+01 1.10651615048550e-02 1.37645097536622e-04
1.18368750000000e+01 1.08289566643782e-02 1.35474430733608e-04
1.19706250000000e+01 1.05977940211293e-02 1.33329481795375e-04
1.21043750000000e+01 1.03715659407648e-02 1.31210301485287e-04
1.22381250000000e+01 1.01501670865811e-02 1.29116919926914e-04
1.23718750000000e+01 9.93349437046698e-03 1.27049347787309e-04
1.25056250000000e+01 9.72144690490371e-03 1.25007577401224e-04
1.26393750000000e+01 9.51392595598954e-03 1.22991583839370e-04
1.27731250000000e+01 9.31083489746715e-03 1.21001325923668e-04
1.29068750000000e+01 9.11207916573232e-03 1.19036747192237e-04
1.30406250000000e+01 8.91756621580303e-03 1.17097776816700e-04
1.31743750000000e+01 8.72720547822857e-03 1.15184330474265e-04
1.33081250000000e+01 8.54090831691843e-03 1.13296311176882e-04
1.34418750000000e+01 8.35858798787134e-03 1.11433610059636e-04
1.35756250000000e+01 8.18015959878549e-03 1.09596107130418e-04
1.37093750000000e+01 8.00554006953074e-03 1.07783671982824e-04
1.38431250000000e+01 7.83464809346477e-03 1.05996164474086e-04
1.39768750000000e+01 7.66740409957490e-03 1.04233435369769e-04
1.41106250000000e+01 7.50373021542813e-03 1.02495326956858e-04
1.42443750000000e+01 7.34355023091203e-03 1.00781673626783e-04
1.43781250000000e+01 7.18678956274966e-03 9.90923024298388e-05
1.45118750000000e+01 7.03337521977198e-03 9.74270336023710e-05
1.46456250000000e+01 6.88323576893156e-03 9.57856810680471e-05
1.47793750000000e+01 6.73630130204185e-03 9.41680529144500e-05
1.49131250000000e+01 6.59250340322636e-03 9.25739518461679e-05
1.50468750000000e+01 6.45177511706276e-03 9.10031756154925e-05
1.51806250000000e+01 6.31405091740701e-03 8.94555174317917e-05
1.53143750000000e+01 6.17926667688291e-03 8.79307663505467e-05
1.54481250000000e+01 6.04735963702307e-03 8.64287076430237e-05
1.55818750000000e+01 5.91826837904712e-03 8.49491231474716e-05
1.57156250000000e+01 5.79193279526389e-03 8.34917916027120e-05
1.58493750000000e+01 5.66829406108389e-03 8.20564889649434e-05
1.59831250000000e+01 5.54729460762935e-03 8.06429887085331e-05
1.61168750000000e+01 5.42887809492884e-03 7.92510621115279e-05
1.62506250000000e+01 5.31298938568426e-03 7.78804785266064e-05
1.63843750000000e+01 5.19957451959760e-03 7.65310056381345e-05
1.65181250000000e+01 5.08858068824595e-03 7.52024097059531e-05
1.66518750000000e+01 4.97995621049269e-03 7.38944557965166e-05
1.67856250000000e+01 4.87365050842366e-03 7.26069080019572e-05
1.69193750000000e+01 4.76961408379700e-03 7.13395296476328e-05
1.70531250000000e+01 4.66779849499563e-03 7.00920834886692e-05
1.71868750000000e+01 4.56815633447186e-03 6.88643318960087e-05
1.73206250000000e+01 4.47064120667336e-03 6.76560370324479e-05
1.74543750000000e+01 4.37520770644042e-03 6.64669610191060e-05
1.75881250000000e+01 4.28181139786425e-03 6.52968660927656e-05
1.77218750000000e+01 4.19040879359675e-03 6.41455147545086e-05
1.78556250000000e+01 4.10095733460181e-03 6.30126699100273e-05
1.79893750000000e+01 4.01341537033886e-03 6.18980950019979e-05
1.81231250000000e+01 3.92774213936957e-03 6.08015541348823e-05
1.82568750000000e+01 3.84389775037835e-03 5.97228121924886e-05
1.83906250000000e+01 3.76184316359814e-03 5.86616349486309e-05
1.85243750000000e+01 3.68154017263262e-03 5.76177891711994e-05
1.86581250000000e+01 3.60295138666651e-03 5.65910427199397e-05
1.87918750000000e+01 3.52604021305556e-03 5.55811646382300e-05
1.89256250000000e+01 3.45077084028824e-03 5.45879252391260e-05
1.90593750000000e+01 3.37710822131114e-03 5.36110961859453e-05
1.91931250000000e+01 3.30501805721027e-03 5.26504505676320e-05
1.93268750000000e+01 3.23446678124076e-03 5.17057629691436e-05
1.94606250000000e+01 3.16542154319744e-03 5.07768095370956e-05
1.95943750000000e+01 3.09785019411911e-03 4.98633680408703e-05
1.97281250000000e+01 3.03172127131922e-03 4.89652179294126e-05
1.98618750000000e+01 2.96700398373622e-03 4.80821403839041e-05
1.99956250000000e+01 2.90366819759655e-03 4.72139183665113e-05
2.01293750000000e+01 2.84168442238370e-03 4.63603366653899e-05
2.02631250000000e+01 2.78102379710680e-03 4.55211819361180e-05
2.03968750000000e+01 2.72165807686227e-03 4.46962427397329e-05
2.05306250000000e+01 2.66355961968245e-03 4.38853095775256e-05
2.06643750000000e+01 2.60670137366486e-03 4.30881749227488e-05
2.07981250000000e+01 2.55105686437623e-03 4.23046332493837e-05
2.09318750000000e+01 2.49660018252547e-03 4.15344810581125e-05
2.10656250000000e+01 2.44330597189971e-03 4.07775168996234e-05
2.11993750000000e+01 2.39114941755793e-03 4.00335413953788e-05
2.13331250000000e+01 2.34010623427655e-03 3.93023572559770e-05
2.14668750000000e+01 2.29015265524172e-03 3.85837692972144e-05
2.16006250000000e+01 2.24126542098296e-03 3.78775844539695e-05
2.17343750000000e+01 2.19342176854308e-03 3.71836117920134e-05
2.18681250000000e+01 2.14659942087923e-03 3.65016625178518e-05
2.20018750000000e+01 2.10077657649021e-03 3.58315499866957e-05
2.21356250000000e+01 2.05593189926526e-03 3.51730897086579e-05
2.22693750000000e+01 2.01204450854946e-03 3.45260993532623e-05
2.24031250000000e+01 1.96909396942126e-03 3.38903987523593e-05
2.25368750000000e+01 1.92706028317756e-03 3.32658099015253e-05
2.26706250000000e+01 1.88592387802186e-03 3.26521569600239e-05
2.28043750000000e+01 1.84566559995117e-03 3.20492662494122e-05
2.29381250000000e+01 1.80626670383758e-03 3.14569662508606e-05
2.30718750000000e+01 1.76770884470003e-03 3.08750876012555e-05
2.32056250000000e+01 1.72997406916254e-03 3.03034630881517e-05
2.33393750000000e+01 1.69304480709472e-03 2.97419276436414e-05
2.34731250000000e+01 1.65690386343074e-03 2.91903183371982e-05
2.36068750000000e+01 1.62153441016291e-03 2.86484743675529e-05
2.37406250000000e+01 1.58691997850621e-03 2.81162370536614e-05
2.38743750000000e+01 1.55304445123009e-03 2.75934498248159e-05
2.40081250000000e+01 1.51989205515388e-03 2.70799582099507e-05
2.41418750000000e+01 1.48744735380253e-03 2.65756098261899e-05
2.42756250000000e+01 1.45569524021898e-03 2.60802543666870e-05
2.44093750000000e+01 1.42462092993007e-03 2.55937435878005e-05
2.45431250000000e+01 1.39420995406259e-03 2.51159312956446e-05
2.46768750000000e+01 1.36444815260619e-03 2.46466733320606e-05
2.48106250000000e+01 1.33532166782025e-03 2.41858275600448e-05
2.49443750000000e+01 1.30681693778136e-03 2.37332538486731e-05
2.50781250000000e+01 1.27892069006861e-03 2.32888140575545e-05
2.52118750000000e+01 1.25161993558369e-03 2.28523720208516e-05
2.53456250000000e+01 1.22490196250283e-03 2.24237935308970e-05
2.54793750000000e+01 1.19875433035795e-03 2.20029463214381e-05
2.56131250000000e+01 1.17316486424408e-03 2.15897000505407e-05
2.57468750000000e+01 1.14812164915046e-03 2.11839262831788e-05
2.58806250000000e+01 1.12361302441268e-03 2.07854984735381e-05
2.60143750000000e+01 1.09962757828317e-03 2.03942919470583e-05
2.61481250000000e+01 1.07615414261770e-03 2.00101838822397e-05
2.62818750000000e+01 1.05318178767522e-03 1.96330532922364e-05
2.64156250000000e+01 1.03069981702873e-03 1.92627810062618e-05
2.65493750000000e+01 1.00869776258480e-03 1.88992496508193e-05
2.66831250000000e+01 9.87165379709406e-04 1.85423436307900e-05
2.68168750000000e+01 9.66092642457797e-04 1.81919491103878e-05
2.69506250000000e+01 9.45469738906197e-04 1.78479539940048e-05
2.70843750000000e+01 9.25287066583163e-04 1.75102479069624e-05
2.72181250000000e+01 9.05535227998468e-04 1.71787221761848e-05
2.73518750000000e+01 8.86205026267422e-04 1.68532698108125e-05
2.74856250000000e+01 8.67287460828603e-04 1.65337854827701e-05
2.76193750000000e+01 8.48773723253004e-04 1.62201655073006e-05
2.77531250000000e+01 8.30655193142633e-04 1.59123078234824e-05
2.78868750000000e+01 8.12923434116671e-04 1.56101119747411e-05
2.80206250000000e+01 7.95570189883309e-04 1.53134790893683e-05
2.81543750000000e+01 7.78587380395441e-04 1.50223118610576e-05
2.82881250000000e+01 7.61967098088415e-04 1.47365145294714e-05
2.84218750000000e+01 7.45701604198105e-04 1.44559928608469e-05
2.85556250000000e+01 7.29783325157569e-04 1.41806541286516e-05
2.86893750000000e+01 7.14204849070636e-04 1.39104070942975e-05
2.88231250000000e+01 6.98958922260762e-04 1.36451619879236e-05
2.89568750000000e+01 6.84038445893565e-04 1.33848304892539e-05
2.90906250000000e+01 6.69436472671451e-04 1.31293257085383e-05
2.92243750000000e+01 6.55146203598803e-04 1.28785621675865e-05
2.93581250000000e+01 6.41160984816221e-04 1.26324557808982e-05
2.94918750000000e+01 6.27474304502338e-04 1.23909238368985e-05
2.96256250000000e+01 6.14079789841779e-04 1.21538849792839e-05
2.97593750000000e+01 6.00971204057837e-04 1.19212591884847e-05
2.98931250000000e+01 5.88142443508493e-04 1.16929677632481e-05
3.00268750000000e+01 5.75587534844432e-04 1.14689333023501e-05
3.01606250000000e+01 5.63300632227721e-04 1.12490796864369e-05
3.02943750000000e+01 5.51276014609855e-04 1.10333320600026e-05
3.04281250000000e+01 5.39508083067921e-04 1.08216168135076e-05
3.05618750000000e+01 5.27991358197609e-04 1.06138615656391e-05
3.06956250000000e+01 5.16720477561890e-04 1.04099951457202e-05
3.08293750000000e+01 5.05690193194145e-04 1.02099475762679e-05
3.09631250000000e+01 4.94895369154597e-04 1.00136500557051e-05
3.10968750000000e+01 4.84330979138911e-04 9.82103494122869e-06
3.12306250000000e+01 4.73992104137830e-04 9.63203573183646e-06
3.13643750000000e+01 4.63873930146787e-04 9.44658705151354e-06
3.14981250000000e+01 4.53971745924390e-04 9.26462463258241e-06
3.16318750000000e+01 4.44280940798773e-04 9.08608529921800e-06
3.17656250000000e+01 4.34797002520764e-04 8.91090695112829e-06
3.18993750000000e+01 4.25515515162886e-04 8.73902854740345e-06
3.20331250000000e+01 4.16432157063202e-04 8.57039009053316e-06
3.21668750000000e+01 4.07542698813059e-04 8.40493261059482e-06
3.23006250000000e+01 3.98843001287779e-04 8.24259814961322e-06
3.24343750000000e+01 3.90329013719399e-04 8.08332974609139e-06
3.25681250000000e+01 3.81996771810540e-04 7.92707141971482e-06
3.27018750000000e+01 3.73842395888548e-04 7.77376815622862e-06
3.28356250000000e+01 3.65862089099030e-04 7.62336589248850e-06
3.29693750000000e+01 3.58052135637960e-04 7.47581150168546e-06
3.31031250000000e+01 3.50408899021520e-04 7.33105277874480e-06
3.32368750000000e+01 3.42928820392871e-04 7.18903842589898e-06
3.33706250000000e+01 3.35608416865075e-04 7.04971803843481e-06
3.35043750000000e+01 3.28444279899384e-04 6.91304209061437e-06
3.36381250000000e+01 3.21433073718155e-04 6.77896192176973e-06
3.37718750000000e+01 3.14571533751636e-04 6.64742972257113e-06
3.39056250000000e+01 3.07856465117913e-04 6.51839852146761e-06
3.40393750000000e+01 3.01284741135302e-04 6.39182217130043e-06
3.41731250000000e+01 2.94853301866502e-04 6.26765533608807e-06
3.43068750000000e+01 2.88559152693816e-04 6.14585347798222e-06
3.44406250000000e+01 2.82399362924797e-04 6.02637284439469e-06
3.45743750000000e+01 2.76371064427652e-04 5.90917045529329e-06
3.47081250000000e+01 2.70471450295777e-04 5.79420409066676e-06
3.48418750000000e+01 2.64697773540801e-04 5.68143227815755e-06
3.49756250000000e+01 2.59047345813531e-04 5.57081428086107e-06
3.51093750000000e+01 2.53517536152193e-04 5.46231008529129e-06
3.52431250000000e+01 2.48105769757404e-04 5.35588038951044e-06
3.53768750000000e+01 2.42809526793287e-04 5.25148659142318e-06
3.55106250000000e+01 2.37626341214181e-04 5.14909077723281e-06
3.56443750000000e+01 2.32553799616398e-04 5.04865571005819e-06
3.57781250000000e+01 2.27589540114487e-04 4.95014481871165e-06
3.59118750000000e+01 2.22731251241493e-04 4.85352218663522e-06
3.60456250000000e+01 2.17976670872684e-04 4.75875254099430e-06
3.61793750000000e+01 2.13323585172259e-04 4.66580124192780e-06
3.63131250000000e+01 2.08769827562537e-04 4.57463427195284e-06
3.64468750000000e+01 2.04313277715150e-04 4.48521822552286e-06
3.65806250000000e+01 1.99951860563777e-04 4.39752029873763e-06
3.67143750000000e+01 1.95683545337942e-04 4.31150827920445e-06
3.68481250000000e+01 1.91506344617447e-04 4.22715053604797e-06
3.69818750000000e+01 1.87418313406985e-04 4.14441601006782e-06
3.71156250000000e+01 1.83417548230508e-04 4.06327420404272e-06
3.72493750000000e+01 1.79502186244927e-04 3.98369517317902e-06
3.73831250000000e+01 1.75670404372732e-04 3.90564951570278e-06
3.75168750000000e+01 1.71920418453129e-04 3.82910836359349e-06
3.76506250000000e+01 1.68250482411291e-04 3.75404337345803e-06
3.77843750000000e+01 1.64658887445356e-04 3.68042671754323e-06
3.79181250000000e+01 1.61143961230764e-04 3.60823107488586e-06
3.80518750000000e+01 1.57704067141590e-04 3.53742962259826e-06
3.81856250000000e+01 1.54337603488496e-04 3.46799602728774e-06
3.83193750000000e+01 1.51043002772947e-04 3.39990443660883e-06
3.84531250000000e+01 1.47818730957352e-04 3.33312947094659e-06
3.85868750000000e+01 1.44663286750782e-04 3.26764621522909e-06
3.87206250000000e+01 1.41575200909936e-04 3.20343021086809e-06
3.88543750000000e+01 1.38553035555032e-04 3.14045744782626e-06
3.89881250000000e+01 1.35595383500293e-04 3.07870435680870e-06
3.91218750000000e+01 1.32700867598739e-04 3.01814780157829e-06
3.92556250000000e+01 1.29868140100949e-04 2.95876507139256e-06
3.93893750000000e+01 1.27095882027527e-04 2.90053387356066e-06
3.95231250000000e+01 1.24382802554950e-04 2.84343232611940e-06
3.96568750000000e+01 1.21727638414540e-04 2.78743895062615e-06
3.97906250000000e+01 1.19129153304250e-04 2.73253266506750e-06
3.99243750000000e+01 1.16586137313022e-04 2.67869277688218e-06
4.00581250000000e+01 1.14097406357425e-04 2.62589897609654e-06
4.01918750000000e+01 1.11661801630314e-04 2.57413132857112e-06
4.03256250000000e+01 1.09278189061274e-04 2.52337026935696e-06
4.04593750000000e+01 1.06945458788563e-04 2.47359659616024e-06
4.05931250000000e+01 1.04662524642344e-04 2.42479146291346e-06
4.07268750000000e+01 1.02428323638934e-04 2.37693637345182e-06
4.08606250000000e+01 1.00241815485861e-04 2.33001317529375e-06
4.09943750000000e+01 9.81019820974782e-05 2.28400405352352e-06
4.11281250000000e+01 9.60078271209222e-05 2.23889152477483e-06
4.12618750000000e+01 9.39583754721897e-05 2.19465843131405e-06
4.13956250000000e+01 9.19526728821167e-05 2.15128793522158e-06
4.15293750000000e+01 8.99897854520506e-05 2.10876351266990e-06
4.16631250000000e+01 8.80687992190063e-05 2.06706894829694e-06
4.17968750000000e+01 8.61888197301053e-05 2.02618832967355e-06
4.19306250000000e+01 8.43489716260993e-05 1.98610604186350e-06
4.20643750000000e+01 8.25483982337833e-05 1.94680676207467e-06
4.21981250000000e+01 8.07862611671109e-05 1.90827545440042e-06
