Energy (eV)          EEDF (eV^-(3/2))     First Anisotropy
1.78409090909091e-03 3.68211747541888e+00 2.02677471604500e-03
5.35227272727273e-03 3.65324937115208e+00 3.34490652646792e-03
8.92045454545455e-03 3.62460759519680e+00 4.41069233578835e-03
1.24886363636364e-02 3.59619037299282e+00 5.21736361801371e-03
1.60568181818182e-02 3.56799594424107e+00 5.88764728400411e-03
1.96250000000000e-02 3.54002256217932e+00 6.46801055923958e-03
2.31931818181818e-02 3.51226849376223e+00 6.98253261544785e-03
2.67613636363636e-02 3.48473201954283e+00 7.44577322329469e-03
3.03295454545455e-02 3.45741143356089e+00 7.86740117805600e-03
3.38977272727273e-02 3.43030504315413e+00 8.25425894251426e-03
3.74659090909091e-02 3.40341116909805e+00 8.61141811799564e-03
4.10340909090909e-02 3.37672814524332e+00 8.94277279407503e-03
4.46022727272727e-02 3.35025431850302e+00 9.25139744156595e-03
4.81704545454545e-02 3.32398804875297e+00 9.53977493129262e-03
5.17386363636364e-02 3.29792770867908e+00 9.80994825315260e-03
5.53068181818182e-02 3.27207168382808e+00 1.00636251725152e-02
5.88750000000000e-02 3.24641837235028e+00 1.03022526010285e-02
6.24431818181818e-02 3.22096618495462e+00 1.05270707817192e-02
6.60113636363636e-02 3.19571354481049e+00 1.07391536671425e-02
6.95795454545454e-02 3.17065888745028e+00 1.09394395740186e-02
7.31477272727273e-02 3.14580066063962e+00 1.11287548341967e-02
7.67159090909091e-02 3.12113732438089e+00 1.13078323386136e-02
8.02840909090909e-02 3.09666735071541e+00 1.14773262591078e-02
8.38522727272727e-02 3.07238922366359e+00 1.16378238577635e-02
8.74204545454545e-02 3.04830143913171e+00 1.17898550899844e-02
9.09886363636364e-02 3.02440250479320e+00 1.19339004630071e-02
9.45568181818182e-02 3.00069094007317e+00 1.20703975488682e-02
9.81250000000000e-02 2.97716527597790e+00 1.21997464159292e-02
1.01693181818182e-01 2.95382405503070e+00 1.23223141855419e-02
1.05261363636364e-01 2.93066583111719e+00 1.24384388711227e-02
1.08829545454545e-01 2.90768916955123e+00 1.25484326405359e-02
1.12397727272727e-01 2.88489264706692e+00 1.26525847188067e-02
1.15965909090909e-01 2.86227485116063e+00 1.27511637422841e-02
1.19534090909091e-01 2.83983438060388e+00 1.28444198042834e-02
1.23102272727273e-01 2.81756984515234e+00 1.29325863532720e-02
1.26670454545455e-01 2.79547986546265e+00 1.30158817350636e-02
1.30238636363636e-01 2.77356307316606e+00 1.30945106559720e-02
1.33806818181818e-01 2.75181811029603e+00 1.31686653661469e-02
1.37375000000000e-01 2.73024362969768e+00 1.32385267005065e-02
1.40943181818182e-01 2.70883829477728e+00 1.33042651114565e-02
1.44511363636364e-01 2.68760077942005e+00 1.33660415035939e-02
1.48079545454545e-01 2.66652976790844e+00 1.34240079803373e-02
1.51647727272727e-01 2.64562395497185e+00 1.34783085899967e-02
1.55215909090909e-01 2.62488204530627e+00 1.35290799020956e-02
1.58784090909091e-01 2.60430275389798e+00 1.35764515224355e-02
1.62352272727273e-01 2.58388480580707e+00 1.36205466554114e-02
1.65920454545455e-01 2.56362693608994e+00 1.36614825196813e-02
1.69488636363636e-01 2.54352788983296e+00 1.36993708144913e-02
1.73056818181818e-01 2.52358642173290e+00 1.37343180580419e-02
1.76625000000000e-01 2.50380129636518e+00 1.37664258925752e-02
1.80193181818182e-01 2.48417128799069e+00 1.37957914516352e-02
1.83761363636364e-01 2.46469518048021e+00 1.38225076270261e-02
1.87329545454545e-01 2.44537176723929e+00 1.38466633147144e-02
1.90897727272727e-01 2.42619985122882e+00 1.38683437041191e-02
1.94465909090909e-01 2.40717824460126e+00 1.38876304668526e-02
1.98034090909091e-01 2.38830576891957e+00 1.39046019279820e-02
2.01602272727273e-01 2.36958125498525e+00 1.39193333041158e-02
2.05170454545455e-01 2.35100354276685e+00 1.39318968462839e-02
2.08738636363636e-01 2.33257148141136e+00 1.39423620461349e-02
2.12306818181818e-01 2.31428392891932e+00 1.39507957557405e-02
2.15875000000000e-01 2.29613975233006e+00 1.39572622965574e-02
2.19443181818182e-01 2.27813782756524e+00 1.39618236343983e-02
2.23011363636364e-01 2.26027703935934e+00 1.39645394846161e-02
2.26579545454545e-01 2.24255628119078e+00 1.39654674111665e-02
2.30147727272727e-01 2.22497445528572e+00 1.39646629721579e-02
2.33715909090909e-01 2.20753047233042e+00 1.39621797907714e-02
2.37284090909091e-01 2.19022325162539e+00 1.39580696196719e-02
2.40852272727273e-01 2.17305172094363e+00 1.39523824684350e-02
2.44420454545455e-01 2.15601481646473e+00 1.39451666579634e-02
2.47988636363636e-01 2.13911148277328e+00 1.39364689338541e-02
2.51556818181818e-01 2.12234067259807e+00 1.39263345124931e-02
2.55125000000000e-01 2.10570134694433e+00 1.39148071227228e-02
2.58693181818182e-01 2.08919247496295e+00 1.39019291072663e-02
2.62261363636364e-01 2.07281303388678e+00 1.38877414693525e-02
2.65829545454545e-01 2.05656200896731e+00 1.38722839175632e-02
2.69397727272727e-01 2.04043839346849e+00 1.38555949532138e-02
2.72965909090909e-01 2.02444118843264e+00 1.38377118974622e-02
2.76534090909091e-01 2.00856940279175e+00 1.38186709154890e-02
2.80102272727273e-01 1.99282205324766e+00 1.37985070964216e-02
2.83670454545455e-01 1.97719816421152e+00 1.37772544735384e-02
2.87238636363636e-01 1.96169676779421e+00 1.37549460965704e-02
2.90806818181818e-01 1.94631690359198e+00 1.37316140485791e-02
2.94375000000000e-01 1.93105761878261e+00 1.37072894606862e-02
2.97943181818182e-01 1.91591796801401e+00 1.36820025792117e-02
3.01511363636364e-01 1.90089701334572e+00 1.36557827875514e-02
3.05079545454545e-01 1.88599382419088e+00 1.36286586277422e-02
3.08647727272727e-01 1.87120747730384e+00 1.36006578596177e-02
3.12215909090909e-01 1.85653705658583e+00 1.35718074694802e-02
3.15784090909091e-01 1.84198165316642e+00 1.35421336772343e-02
3.19352272727273e-01 1.82754036530071e+00 1.35116619921747e-02
3.22920454545455e-01 1.81321229831365e+00 1.34804172184551e-02
3.26488636363636e-01 1.79899656458567e+00 1.34484235060806e-02
3.30056818181818e-01 1.78489228337324e+00 1.34157043550023e-02
3.33625000000000e-01 1.77089858087972e+00 1.33822826180209e-02
3.37193181818182e-01 1.75701459015908e+00 1.33481805493776e-02
3.40761363636364e-01 1.74323945106218e+00 1.33134198150095e-02
3.44329545454545e-01 1.72957231018358e+00 1.32780215030367e-02
3.47897727272727e-01 1.71601232084548e+00 1.32420061671958e-02
3.51465909090909e-01 1.70255864293377e+00 1.32053938271721e-02
3.55034090909091e-01 1.68921044295834e+00 1.31682039680224e-02
3.58602272727273e-01 1.67596689396364e+00 1.31304555820099e-02
3.62170454545455e-01 1.66282717547757e+00 1.30921671673502e-02
3.65738636363636e-01 1.64979047349428e+00 1.30533567666945e-02
3.69306818181818e-01 1.63685598032196e+00 1.30140419653460e-02
3.72875000000000e-01 1.62402289463531e+00 1.29742398887331e-02
3.76443181818182e-01 1.61129042139146e+00 1.29339672397413e-02
3.80011363636364e-01 1.59865777178074e+00 1.28932403031191e-02
3.83579545454545e-01 1.58612416317784e+00 1.28520749502983e-02
3.87147727272727e-01 1.57368881912365e+00 1.28104866730810e-02
3.90715909090909e-01 1.56135096918540e+00 1.27684905801057e-02
3.94284090909091e-01 1.54910984900137e+00 1.27261013927179e-02
3.97852272727273e-01 1.53696470020244e+00 1.26833334778935e-02
4.01420454545455e-01 1.52491477036521e+00 1.26402008438844e-02
4.04988636363636e-01 1.51295931299323e+00 1.25967171706283e-02
4.08556818181818e-01 1.50109758738648e+00 1.25528958052529e-02
4.12125000000000e-01 1.48932885868038e+00 1.25087497570760e-02
4.15693181818182e-01 1.47765239777169e+00 1.24642917274728e-02
4.19261363636364e-01 1.46606748127342e+00 1.24195341111960e-02
4.22829545454545e-01 1.45457339147000e+00 1.23744889981658e-02
4.26397727272727e-01 1.44316941629808e+00 1.23291682005892e-02
4.29965909090909e-01 1.43185484922606e+00 1.22835832476922e-02
4.33534090909091e-01 1.42062898928721e+00 1.22377453800276e-02
4.37102272727273e-01 1.40949114101039e+00 1.21916655762529e-02
4.40670454545455e-01 1.39844061437707e+00 1.21453545474321e-02
4.44238636363636e-01 1.38747672480180e+00 1.20988227618351e-02
4.47806818181818e-01 1.37659879301942e+00 1.20520804392803e-02
4.51375000000000e-01 1.36580614511390e+00 1.20051375451060e-02
4.54943181818182e-01 1.35509811245273e+00 1.19580038147453e-02
4.58511363636364e-01 1.34447403164552e+00 1.19106887533857e-02
4.62079545454545e-01 1.33393324450294e+00 1.18632016360890e-02
4.65647727272727e-01 1.32347509801715e+00 1.18155515302003e-02
4.69215909090909e-01 1.31309894425720e+00 1.17677472894125e-02
4.72784090909091e-01 1.30280414039349e+00 1.17197975475107e-02
4.76352272727273e-01 1.29259004863621e+00 1.16717107406589e-02
4.79920454545455e-01 1.28245603619591e+00 1.16234951012402e-02
4.83488636363636e-01 1.27240147526387e+00 1.15751586785364e-02
4.87056818181818e-01 1.26242574291396e+00 1.15267093326951e-02
4.90625000000000e-01 1.25252822112371e+00 1.14781547284129e-02
4.94193181818182e-01 1.24270829671598e+00 1.14295023555548e-02
4.97761363636364e-01 1.23296536132098e+00 1.13807595279207e-02
5.01329545454545e-01 1.22329881133862e+00 1.13319333824488e-02
5.04897727272727e-01 1.21370804791899e+00 1.12830308980747e-02
5.08465909090909e-01 1.20419247687114e+00 1.12340588896767e-02
5.12034090909091e-01 1.19475150868077e+00 1.11850240017694e-02
5.15602272727273e-01 1.18538455845539e+00 1.11359327273607e-02
5.19170454545455e-01 1.17609104588817e+00 1.10867914017883e-02
5.22738636363636e-01 1.16687039523853e+00 1.10376062202409e-02
5.26306818181818e-01 1.15772203524628e+00 1.09883832317573e-02
5.29875000000000e-01 1.14864539914680e+00 1.09391283329971e-02
5.33443181818182e-01 1.13963992461893e+00 1.08898472857942e-02
5.37011363636364e-01 1.13070505375017e+00 1.08405457154638e-02
5.40579545454545e-01 1.12184023300209e+00 1.07912291095071e-02
5.44147727272727e-01 1.11304491319132e+00 1.07419028337022e-02
5.47715909090909e-01 1.10431854940940e+00 1.06925721262135e-02
5.51284090909091e-01 1.09566060103549e+00 1.06432420914957e-02
5.54852272727273e-01 1.08707053168718e+00 1.05939177164451e-02
5.58420454545455e-01 1.07854780918742e+00 1.05446038644645e-02
5.61988636363636e-01 1.07009190554561e+00 1.04953052904847e-02
5.65556818181818e-01 1.06170229688213e+00 1.04460266352046e-02
5.69125000000000e-01 1.05337846343895e+00 1.03967724191444e-02
5.72693181818182e-01 1.04511988953299e+00 1.03475470577451e-02
5.76261363636364e-01 1.03692606352416e+00 1.02983548594651e-02
5.79829545454545e-01 1.02879647778368e+00 1.02492000242386e-02
5.83397727272727e-01 1.02073062867568e+00 1.02000866573387e-02
5.86965909090909e-01 1.01272801648655e+00 1.01510187637957e-02
5.90534090909091e-01 1.00478814543372e+00 1.01020002426431e-02
5.94102272727273e-01 9.96910523621553e-01 1.00530349008747e-02
5.97670454545455e-01 9.89094663010938e-01 1.00041264478545e-02
6.01238636363636e-01 9.81340079401187e-01 9.95527850830884e-03
6.04806818181818e-01 9.73646292363323e-01 9.90649461691100e-03
6.08375000000000e-01 9.66012825247277e-01 9.85777821270768e-03
6.11943181818182e-01 9.58439205139942e-01 9.80913265221138e-03
6.15511363636364e-01 9.50924962835892e-01 9.76056120743407e-03
6.19079545454545e-01 9.43469632808315e-01 9.71206706424456e-03
6.22647727272727e-01 9.36072753191372e-01 9.66365333440528e-03
6.26215909090909e-01 9.28733865717744e-01 9.61532305036249e-03
6.29784090909091e-01 9.21452515724308e-01 9.56707915989111e-03
6.33352272727273e-01 9.14228252112517e-01 9.51892453824256e-03
6.36920454545455e-01 9.07060627320489e-01 9.47086198294745e-03
6.40488636363636e-01 8.99949197305728e-01 9.42289422512953e-03
6.44056818181818e-01 8.92893521486016e-01 9.37502392447615e-03
6.47625000000000e-01 8.85893162743922e-01 9.32725366407359e-03
6.51193181818182e-01 8.78947687389044e-01 9.27958596183397e-03
6.54761363636364e-01 8.72056665131149e-01 9.23202326854634e-03
6.58329545454545e-01 8.65219669053518e-01 9.18456796622128e-03
6.61897727272727e-01 8.58436275596159e-01 9.13722237860692e-03
6.65465909090909e-01 8.51706064500384e-01 9.08998876637236e-03
6.69034090909091e-01 8.45028618812144e-01 9.04286932216812e-03
6.72602272727273e-01 8.38403524846330e-01 8.99586618125591e-03
6.76170454545455e-01 8.31830372161171e-01 8.94898141671830e-03
6.79738636363636e-01 8.25308753541831e-01 8.90221704936442e-03
6.83306818181818e-01 8.18838264947890e-01 8.85557504309545e-03
6.86875000000000e-01 8.12418505515778e-01 8.80905730015374e-03
6.90443181818182e-01 8.06049077524726e-01 8.76266567114305e-03
6.94011363636364e-01 7.99729586372125e-01 8.71640195315139e-03
6.97579545454545e-01 7.93459640549090e-01 8.67026788813275e-03
7.01147727272727e-01 7.87238851624559e-01 8.62426517213803e-03
7.04715909090909e-01 7.81066834195980e-01 8.57839545089155e-03
7.08284090909091e-01 7.74943205890845e-01 8.53266031525824e-03
7.11852272727273e-01 7.68867587334470e-01 8.48706131058912e-03
7.15420454545455e-01 7.62839602126507e-01 8.44159993232752e-03
7.18988636363636e-01 7.56858876825455e-01 8.39627763472108e-03
7.22556818181818e-01 7.50925040901861e-01 8.35109582657421e-03
7.26125000000000e-01 7.45037726739182e-01 8.30605586689623e-03
7.29693181818182e-01 7.39196569603012e-01 8.26115907372674e-03
7.33261363636364e-01 7.33401207618490e-01 8.21640672235456e-03
7.36829545454545e-01 7.27651281747892e-01 8.17180004376730e-03
7.40397727272727e-01 7.21946435775636e-01 8.12734023278555e-03
7.43965909090909e-01 7.16286316264297e-01 8.08302844401686e-03
7.47534090909091e-01 7.10670572554770e-01 8.03886578771454e-03
7.51102272727273e-01 7.05098856737138e-01 7.99485333802124e-03
7.54670454545455e-01 6.99570823629135e-01 7.95099212895493e-03
7.58238636363636e-01 6.94086130761563e-01 7.90728316209878e-03
7.61806818181818e-01 6.88644438336509e-01 7.86372740271982e-03
7.65375000000000e-01 6.83245409226994e-01 7.82032577579796e-03
7.68943181818182e-01 6.77888708949137e-01 7.77707917382244e-03
7.72511363636364e-01 6.72574005641437e-01 7.73398845512092e-03
7.76079545454545e-01 6.67300970044219e-01 7.69105444239550e-03
7.79647727272727e-01 6.62069275485552e-01 7.64827792991172e-03
7.83215909090909e-01 6.56878597841925e-01 7.60565967980886e-03
7.86784090909091e-01 6.51728615537374e-01 7.56320041832500e-03
7.90352272727273e-01 6.46619009517109e-01 7.52090084309162e-03
7.93920454545454e-01 6.41549463227763e-01 7.47876161947610e-03
7.97488636363636e-01 6.36519662603713e-01 7.43678338738706e-03
8.01056818181818e-01 6.31529296029691e-01 7.39496675773856e-03
8.04625000000000e-01 6.26578054339524e-01 7.35331230883393e-03
8.08193181818182e-01 6.21665630790922e-01 7.31182059327248e-03
8.11761363636364e-01 6.16791721046481e-01 7.27049213639264e-03
8.15329545454545e-01 6.11956023154829e-01 7.22932743490145e-03
8.18897727272727e-01 6.07158237537438e-01 7.18832696324813e-03
8.22465909090909e-01 6.02398066953400e-01 7.14749117026284e-03
8.26034090909091e-01 5.97675216497779e-01 7.10682047572242e-03
8.29602272727273e-01 5.92989393577712e-01 7.06631527682305e-03
8.33170454545454e-01 5.88340307894295e-01 7.02597594485154e-03
8.36738636363636e-01 5.83727671429780e-01 6.98580283122396e-03
8.40306818181818e-01 5.79151198414065e-01 6.94579626426814e-03
8.43875000000000e-01 5.74610605322755e-01 6.90595654593633e-03
8.47443181818182e-01 5.70105610854308e-01 6.86628395793803e-03
8.51011363636364e-01 5.65635935912608e-01 6.82677876029852e-03
8.54579545454545e-01 5.61201303589677e-01 6.78744119008318e-03
8.58147727272727e-01 5.56801439153351e-01 6.74827146705833e-03
8.61715909090909e-01 5.52436070015673e-01 6.70926979063700e-03
8.65284090909091e-01 5.48104925730683e-01 6.67043633675824e-03
8.68852272727273e-01 5.43807737972730e-01 6.63177126363965e-03
8.72420454545454e-01 5.39544240519867e-01 6.59327470875294e-03
8.75988636363636e-01 5.35314169241894e-01 6.55494679419436e-03
8.79556818181818e-01 5.31117262070271e-01 6.51678762376034e-03
8.83125000000000e-01 5.26953258995692e-01 6.47879727996054e-03
8.86693181818182e-01 5.22821902047344e-01 6.44097582947551e-03
8.90261363636364e-01 5.18722935276925e-01 6.40332332182640e-03
8.93829545454545e-01 5.14656104742791e-01 6.36583978819314e-03
8.97397727272727e-01 5.10621158498456e-01 6.32852524645385e-03
9.00965909090909e-01 5.06617846564201e-01 6.29137969840990e-03
9.04534090909091e-01 5.02645920924446e-01 6.25440312695185e-03
9.08102272727273e-01 4.98705135508072e-01 6.21759550118331e-03
9.11670454545454e-01 4.94795246173179e-01 6.18095677367528e-03
9.15238636363636e-01 4.90916010695953e-01 6.14448688524940e-03
9.18806818181818e-01 4.87067188743607e-01 6.10818576232234e-03
9.22375000000000e-01 4.83248541871620e-01 6.07205331419449e-03
9.25943181818182e-01 4.79459833504891e-01 6.03608943791443e-03
9.29511363636364e-01 4.75700828923088e-01 6.00029401705488e-03
9.33079545454545e-01 4.71971295246106e-01 5.96466692062164e-03
9.36647727272727e-01 4.68271001423362e-01 5.92920800754731e-03
9.40215909090909e-01 4.64599718208245e-01 5.89391712417206e-03
9.43784090909091e-01 4.60957218155219e-01 5.85879410167067e-03
9.47352272727273e-01 4.57343275601932e-01 5.82383876062456e-03
9.50920454545454e-01 4.53757666655252e-01 5.78905090852936e-03
9.54488636363636e-01 4.50200169180892e-01 5.75443034406215e-03
9.58056818181818e-01 4.46670562779062e-01 5.71997685467156e-03
9.61625000000000e-01 4.43168628781473e-01 5.68569021411743e-03
9.65193181818182e-01 4.39694150234208e-01 5.65157018681290e-03
9.68761363636364e-01 4.36246911884289e-01 5.61761652670122e-03
9.72329545454545e-01 4.32826700166339e-01 5.58382897625038e-03
9.75897727272727e-01 4.29433303192625e-01 5.55020727046612e-03
9.79465909090909e-01 4.26066510730050e-01 5.51675113460653e-03
9.83034090909091e-01 4.22726114197068e-01 5.48346028184614e-03
9.86602272727273e-01 4.19411906647428e-01 5.45033441736096e-03
9.90170454545454e-01 4.16123682757357e-01 5.41737323606684e-03
9.93738636363636e-01 4.12861238815926e-01 5.38457642643327e-03
9.97306818181818e-01 4.09624372703107e-01 5.35194366829541e-03
1.00087500000000e+00 4.06412883886628e-01 5.31947462946740e-03
1.00444318181818e+00 4.03226573409386e-01 5.28716897082186e-03
1.00801136363636e+00 4.00065243874017e-01 5.25502634756447e-03
1.01157954545455e+00 3.96928699427756e-01 5.22304641827141e-03
1.01514772727273e+00 3.93816745724523e-01 5.19122881004023e-03
1.01871590909091e+00 3.90729189999926e-01 5.15957314255883e-03
1.02228409090909e+00 3.87665840971686e-01 5.12807905135130e-03
1.02585227272727e+00 3.84626508857166e-01 5.09674615324012e-03
1.02942045454545e+00 3.81611005361670e-01 5.06557406887497e-03
1.03298863636364e+00 3.78619143639506e-01 5.03456239061452e-03
1.03655681818182e+00 3.75650738364691e-01 5.00371070431743e-03
1.04012500000000e+00 3.72705605636635e-01 4.97301861149493e-03
1.04369318181818e+00 3.69783562996530e-01 4.94248569638691e-03
1.04726136363636e+00 3.66884429416067e-01 4.91211153721704e-03
1.05082954545455e+00 3.64008025286224e-01 4.88189571646899e-03
1.05439772727273e+00 3.61154172380687e-01 4.85183779055354e-03
1.05796590909091e+00 3.58322693921652e-01 4.82193731036877e-03
1.06153409090909e+00 3.55513414491514e-01 4.79219384220112e-03
1.06510227272727e+00 3.52726160047933e-01 4.76260693663416e-03
1.06867045454545e+00 3.49960757913101e-01 4.73317614880827e-03
1.07223863636364e+00 3.47217036738950e-01 4.70390100949614e-03
1.07580681818182e+00 3.44494826569226e-01 4.67478104469993e-03
1.07937500000000e+00 3.41793958755785e-01 4.64581579557720e-03
1.08294318181818e+00 3.39114265972689e-01 4.61700478879396e-03
1.08651136363636e+00 3.36455582205851e-01 4.58834754663952e-03
1.09007954545455e+00 3.33817742742762e-01 4.55984359626727e-03
1.09364772727273e+00 3.31200584139773e-01 4.53149244236874e-03
1.09721590909091e+00 3.28603944279918e-01 4.50329358567058e-03
1.10078409090909e+00 3.26027662294470e-01 4.47524654174288e-03
1.10435227272727e+00 3.23471578575907e-01 4.44735081299231e-03
1.10792045454545e+00 3.20935534768068e-01 4.41960590689373e-03
1.11148863636364e+00 3.18419373735023e-01 4.39201130992529e-03
1.11505681818182e+00 3.15922939615642e-01 4.36456650520679e-03
1.11862500000000e+00 3.13446077749212e-01 4.33727099043462e-03
1.12219318181818e+00 3.10988634687564e-01 4.31012425116782e-03
1.12576136363636e+00 3.08550458185578e-01 4.28312576992789e-03
