Energy (eV)          EEDF (eV^-(3/2))     First Anisotropy
3.71590909090909e-02 3.85725610711502e-02 2.18037066215454e-05
1.11477272727273e-01 3.82710041439663e-02 3.59843507507637e-05
1.85795454545455e-01 3.79718047614704e-02 4.74510856715061e-05
2.60113636363636e-01 3.76749444954354e-02 5.61306662711669e-05
3.34431818181818e-01 3.73804050568917e-02 6.33432848190942e-05
4.08750000000000e-01 3.70881683018980e-02 6.95887797465602e-05
4.83068181818182e-01 3.67982162283080e-02 7.51261577874100e-05
5.57386363636364e-01 3.65105309747081e-02 8.01120258143708e-05
6.31704545454545e-01 3.62250948193257e-02 8.46503794865984e-05
7.06022727272727e-01 3.59418901793580e-02 8.88148129575047e-05
7.80340909090909e-01 3.56608996085532e-02 9.26598722739069e-05
8.54659090909091e-01 3.53821057975249e-02 9.62274377188932e-05
9.28977272727273e-01 3.51054915721999e-02 9.95505738323523e-05
1.00329545454545e+00 3.48310398927774e-02 1.02655982056706e-04
1.07761363636364e+00 3.45587338515704e-02 1.05565632458478e-04
1.15193181818182e+00 3.42885566758640e-02 1.08297889665510e-04
1.22625000000000e+00 3.40204917222927e-02 1.10868312927371e-04
1.30056818181818e+00 3.37545224776057e-02 1.13290238640103e-04
1.37488636363636e+00 3.34906325576684e-02 1.15575214764536e-04
1.44920454545455e+00 3.32288057064621e-02 1.17733330702175e-04
1.52352272727273e+00 3.29690257933411e-02 1.19773471193442e-04
1.59784090909091e+00 3.27112768173295e-02 1.21703516097129e-04
1.67215909090909e+00 3.24555429007005e-02 1.23530499055163e-04
1.74647727272727e+00 3.22018082898454e-02 1.25260734000286e-04
1.82079545454545e+00 3.19500573543406e-02 1.26899918745961e-04
1.89511363636364e+00 3.17002745846297e-02 1.28453219090027e-04
1.96943181818182e+00 3.14524445951521e-02 1.29925339143656e-04
2.04375000000000e+00 3.12065521192177e-02 1.31320580027469e-04
2.11806818181818e+00 3.09625820094872e-02 1.32642888357608e-04
2.19238636363636e+00 3.07205192370454e-02 1.33895897883961e-04
2.26670454545455e+00 3.04803488904796e-02 1.35082964927828e-04
2.34102272727273e+00 3.02420561739337e-02 1.36207198165038e-04
2.41534090909091e+00 3.00056264093158e-02 1.37271484941374e-04
2.48965909090909e+00 2.97710450322148e-02 1.38278514085503e-04
2.56397727272727e+00 2.95382975920767e-02 1.39230795037634e-04
2.63829545454545e+00 2.93073697513304e-02 1.40130675235267e-04
2.71261363636364e+00 2.90782472836458e-02 1.40980354728428e-04
2.78693181818182e+00 2.88509160756488e-02 1.41781899658600e-04
2.86125000000000e+00 2.86253621234156e-02 1.42537254205246e-04
2.93556818181818e+00 2.84015715325022e-02 1.43248250546953e-04
3.00988636363636e+00 2.81795305170914e-02 1.43916618222539e-04
3.08420454545455e+00 2.79592253991459e-02 1.44543992484305e-04
3.15852272727273e+00 2.77406426068702e-02 1.45131921333561e-04
3.23284090909091e+00 2.75237686759829e-02 1.45681872382095e-04
3.30715909090909e+00 2.73085902467464e-02 1.46195239056030e-04
3.38147727272727e+00 2.70950940638648e-02 1.46673345632881e-04
3.45579545454545e+00 2.68832669756760e-02 1.47117452346250e-04
3.53011363636364e+00 2.66730959327397e-02 1.47528759503475e-04
3.60443181818182e+00 2.64645679888496e-02 1.47908411726420e-04
3.67875000000000e+00 2.62576702983939e-02 1.48257501836502e-04
3.75306818181818e+00 2.60523901161857e-02 1.48577073886954e-04
3.82738636363636e+00 2.58487147966791e-02 1.48868126341459e-04
3.90170454545455e+00 2.56466317931921e-02 1.49131614983118e-04
3.97602272727273e+00 2.54461286566281e-02 1.49368455220236e-04
4.05034090909091e+00 2.52471930362398e-02 1.49579524656262e-04
4.12465909090909e+00 2.50498126773173e-02 1.49765665474595e-04
4.19897727272727e+00 2.48539754209547e-02 1.49927686175578e-04
4.27329545454545e+00 2.46596692033064e-02 1.50066363633183e-04
4.34761363636364e+00 2.44668820543969e-02 1.50182444572715e-04
4.42193181818182e+00 2.42756020987321e-02 1.50276647355082e-04
4.49625000000000e+00 2.40858175532021e-02 1.50349663647584e-04
4.57056818181818e+00 2.38975167268159e-02 1.50402159549259e-04
4.64488636363636e+00 2.37106880199817e-02 1.50434776975708e-04
4.71920454545455e+00 2.35253199237935e-02 1.50448134945349e-04
4.79352272727273e+00 2.33414010189384e-02 1.50442830473304e-04
4.86784090909091e+00 2.31589199761547e-02 1.50419439784115e-04
4.94215909090909e+00 2.29778655543587e-02 1.50378519457900e-04
5.01647727272727e+00 2.27982266003469e-02 1.50320607114231e-04
5.09079545454545e+00 2.26199920481125e-02 1.50246222432680e-04
5.16511363636364e+00 2.24431509178196e-02 1.50155867750536e-04
5.23943181818182e+00 2.22676923161651e-02 1.50050028974883e-04
5.31375000000000e+00 2.20936054346575e-02 1.49929176450497e-04
5.38806818181818e+00 2.19208795493049e-02 1.49793765415203e-04
5.46238636363636e+00 2.17495040199545e-02 1.49644236714373e-04
5.53670454545455e+00 2.15794682896382e-02 1.49481017470486e-04
5.61102272727273e+00 2.14107618836216e-02 1.49304521454470e-04
5.68534090909091e+00 2.12433744096680e-02 1.49115149758074e-04
5.75965909090909e+00 2.10772955564790e-02 1.48913291438216e-04
5.83397727272727e+00 2.09125150933679e-02 1.48699323795332e-04
5.90829545454546e+00 2.07490228696321e-02 1.48473612960282e-04
5.98261363636364e+00 2.05868088136554e-02 1.48236514142938e-04
6.05693181818182e+00 2.04258629331087e-02 1.47988372167951e-04
6.13125000000000e+00 2.02661753135047e-02 1.47729521990880e-04
6.20556818181818e+00 2.01077361178666e-02 1.47460288879403e-04
6.27988636363636e+00 1.99505355861221e-02 1.47180988829926e-04
6.35420454545455e+00 1.97945640345029e-02 1.46891928959960e-04
6.42852272727273e+00 1.96398118547077e-02 1.46593407657813e-04
6.50284090909091e+00 1.94862695140373e-02 1.46285715001704e-04
6.57715909090909e+00 1.93339275540730e-02 1.45969133165746e-04
6.65147727272727e+00 1.91827765903405e-02 1.45643936522420e-04
6.72579545454546e+00 1.90328073117334e-02 1.45310392018494e-04
6.80011363636364e+00 1.88840104797202e-02 1.44968759268741e-04
6.87443181818182e+00 1.87363769284371e-02 1.44619290904414e-04
6.94875000000000e+00 1.85898975634551e-02 1.44262232912176e-04
7.02306818181818e+00 1.84445633614444e-02 1.43897824691774e-04
7.09738636363636e+00 1.83003653696187e-02 1.43526299322281e-04
7.17170454545455e+00 1.81572947051843e-02 1.43147883813434e-04
7.24602272727273e+00 1.80153425545974e-02 1.42762799152796e-04
7.32034090909091e+00 1.78745001736120e-02 1.42371260590576e-04
7.39465909090909e+00 1.77347588861445e-02 1.41973477917794e-04
7.46897727272727e+00 1.75961100839399e-02 1.41569655486799e-04
7.54329545454546e+00 1.74585452260422e-02 1.41159992471931e-04
7.61761363636364e+00 1.73220558380893e-02 1.40744682889689e-04
7.69193181818182e+00 1.71866335123319e-02 1.40323915843133e-04
7.76625000000000e+00 1.70522699065695e-02 1.39897875761311e-04
7.84056818181818e+00 1.69189567438199e-02 1.39466742398206e-04
7.91488636363636e+00 1.67866858118096e-02 1.39030691015127e-04
7.98920454545455e+00 1.66554489624686e-02 1.38589892553042e-04
8.06352272727273e+00 1.65252381112664e-02 1.38144513629989e-04
8.13784090909091e+00 1.63960452372020e-02 1.37694716747362e-04
8.21215909090909e+00 1.62678623818177e-02 1.37240660492728e-04
8.28647727272727e+00 1.61406816488738e-02 1.36782499520821e-04
8.36079545454546e+00 1.60144952038636e-02 1.36320384745250e-04
8.43511363636364e+00 1.58892952733813e-02 1.35854463322601e-04
8.50943181818182e+00 1.57650741450923e-02 1.35384878833632e-04
8.58375000000000e+00 1.56418241668053e-02 1.34911771461864e-04
8.65806818181818e+00 1.55195377461528e-02 1.34435277964135e-04
8.73238636363636e+00 1.53982073501243e-02 1.33955531802428e-04
8.80670454545455e+00 1.52778255046015e-02 1.33472663268396e-04
8.88102272727273e+00 1.51583847937644e-02 1.32986799456302e-04
8.95534090909091e+00 1.50398778600395e-02 1.32498064419745e-04
9.02965909090909e+00 1.49222974032378e-02 1.32006579326493e-04
9.10397727272727e+00 1.48056361802422e-02 1.31512462420544e-04
9.17829545454546e+00 1.46898870045621e-02 1.31015829169451e-04
9.25261363636364e+00 1.45750427457664e-02 1.30516792230889e-04
9.32693181818182e+00 1.44610963294190e-02 1.30015461592669e-04
9.40125000000000e+00 1.43480407362649e-02 1.29511944711388e-04
9.47556818181818e+00 1.42358690019251e-02 1.29006346469800e-04
9.54988636363636e+00 1.41245742164675e-02 1.28498769276094e-04
9.62420454545455e+00 1.40141495239814e-02 1.27989313157606e-04
9.69852272727273e+00 1.39045881220424e-02 1.27478075722226e-04
9.77284090909091e+00 1.37958832616340e-02 1.26965152281705e-04
9.84715909090909e+00 1.36880282463884e-02 1.26450635973970e-04
9.92147727272727e+00 1.35810164322893e-02 1.25934617716927e-04
9.99579545454545e+00 1.34748412272627e-02 1.25417186172801e-04
1.00701136363636e+01 1.33694960911861e-02 1.24898428227751e-04
1.01444318181818e+01 1.32649745340266e-02 1.24378428672348e-04
1.02187500000000e+01 1.31612701171216e-02 1.23857270001285e-04
1.02930681818182e+01 1.30583764521442e-02 1.23335032960599e-04
1.03673863636364e+01 1.29562872007109e-02 1.22811796403115e-04
1.04417045454545e+01 1.28549960739918e-02 1.22287637046702e-04
1.05160227272727e+01 1.27544968332768e-02 1.21762630382125e-04
1.05903409090909e+01 1.26547832867084e-02 1.21236850135977e-04
1.06646590909091e+01 1.25558492918033e-02 1.20710367725020e-04
1.07389772727273e+01 1.24576887540977e-02 1.20183253178063e-04
1.08132954545455e+01 1.23602956267753e-02 1.19655574607713e-04
1.08876136363636e+01 1.22636639111784e-02 1.19127399065004e-04
1.09619318181818e+01 1.21677876537646e-02 1.18598792029156e-04
1.10362500000000e+01 1.20726609484322e-02 1.18069816889324e-04
1.11105681818182e+01 1.19782779352521e-02 1.17540535812742e-04
1.11848863636364e+01 1.18846328001072e-02 1.17011009498235e-04
1.12592045454545e+01 1.17917197743359e-02 1.16481296956306e-04
1.13335227272727e+01 1.16995331351866e-02 1.15951456304969e-04
1.14078409090909e+01 1.16080672030143e-02 1.15421544289516e-04
1.14821590909091e+01 1.15173163433984e-02 1.14891615794867e-04
1.15564772727273e+01 1.14272749659669e-02 1.14361724654494e-04
1.16307954545455e+01 1.13379375240536e-02 1.13831923178259e-04
1.17051136363636e+01 1.12492985151110e-02 1.13302262903207e-04
1.17794318181818e+01 1.11613524780901e-02 1.12772794137443e-04
1.18537500000000e+01 1.10740939954007e-02 1.12243565497000e-04
1.19280681818182e+01 1.09875176918060e-02 1.11714624669141e-04
1.20023863636364e+01 1.09016182340923e-02 1.11186018190041e-04
1.20767045454545e+01 1.08163903307409e-02 1.10657791245685e-04
1.21510227272727e+01 1.07318287322961e-02 1.10129988372618e-04
1.22253409090909e+01 1.06479282289448e-02 1.09602653028709e-04
1.22996590909091e+01 1.05646836523065e-02 1.09075827157359e-04
1.23739772727273e+01 1.04820898744054e-02 1.08549551900294e-04
1.24482954545455e+01 1.04001418073571e-02 1.08023867175590e-04
1.25226136363636e+01 1.03188344037008e-02 1.07498812339866e-04
1.25969318181818e+01 1.02381626541338e-02 1.06974425780540e-04
1.26712500000000e+01 1.01581215891711e-02 1.06450744501926e-04
1.27455681818182e+01 1.00787062781779e-02 1.05927804798890e-04
1.28198863636364e+01 9.99991182906674e-03 1.05405642056741e-04
1.28942045454545e+01 9.92173338799644e-03 1.04884290571525e-04
1.29685227272727e+01 9.84416613966924e-03 1.04363784169196e-04
1.30428409090909e+01 9.76720530523262e-03 1.03844155821863e-04
1.31171590909091e+01 9.69084614379844e-03 1.03325437258242e-04
1.31914772727273e+01 9.61508395154145e-03 1.02807659593839e-04
1.32657954545455e+01 9.53991406141137e-03 1.02290852953680e-04
1.33401136363636e+01 9.46533184340157e-03 1.01775047058255e-04
1.34144318181818e+01 9.39133270258147e-03 1.01260270858885e-04
1.34887500000000e+01 9.31791208050702e-03 1.00746552167599e-04
1.35630681818182e+01 9.24506545437120e-03 1.00233918253548e-04
1.36373863636364e+01 9.17278833672592e-03 9.97223956630607e-05
1.37117045454545e+01 9.10107627520585e-03 9.92120100576606e-05
1.37860227272727e+01 9.02992485276852e-03 9.87027867628002e-05
1.38603409090909e+01 8.95932968586808e-03 9.81947504245699e-05
1.39346590909091e+01 8.88928642574958e-03 9.76879246612353e-05
1.40089772727273e+01 8.81979075765547e-03 9.71823326219745e-05
1.40832954545455e+01 8.75083840056131e-03 9.66779966493485e-05
1.41576136363636e+01 8.68242510739273e-03 9.61749387991620e-05
1.42319318181818e+01 8.61454666331007e-03 9.56731805141758e-05
1.43062500000000e+01 8.54719888691195e-03 9.51727422929190e-05
1.43805681818182e+01 8.48037762948650e-03 9.46736442190660e-05
1.44548863636364e+01 8.41407877475603e-03 9.41759057996820e-05
1.45292045454545e+01 8.34829823862389e-03 9.36795458193484e-05
1.46035227272727e+01 8.28303196936800e-03 9.31845828276511e-05
1.46778409090909e+01 8.21827594604603e-03 9.26910348318408e-05
1.47521590909091e+01 8.15402617960173e-03 9.21989189849325e-05
1.48264772727273e+01 8.09027871216431e-03 9.17082520822239e-05
1.49007954545455e+01 8.02702961680582e-03 9.12190502590997e-05
1.49751136363636e+01 7.96427499771613e-03 9.07313294533361e-05
1.50494318181818e+01 7.90201098870247e-03 9.02451051128628e-05
1.51237500000000e+01 7.84023375421987e-03 8.97603918992012e-05
1.51980681818182e+01 7.77893948870900e-03 8.92772041583563e-05
1.52723863636364e+01 7.71812441636207e-03 8.87955557754309e-05
1.53467045454545e+01 7.65778479089041e-03 8.83154600432885e-05
1.54210227272727e+01 7.59791689568047e-03 8.78369300965265e-05
1.54953409090909e+01 7.53851704239650e-03 8.73599786361325e-05
1.55696590909091e+01 7.47958157192921e-03 8.68846176500353e-05
1.56439772727273e+01 7.42110685377536e-03 8.64108588552563e-05
1.57182954545455e+01 7.36308928581515e-03 8.59387134271110e-05
1.57926136363636e+01 7.30552529445287e-03 8.54681924111385e-05
1.58669318181818e+01 7.24841133330062e-03 8.49993064611596e-05
1.59412500000000e+01 7.19174388406301e-03 8.45320655734618e-05
1.60155681818182e+01 7.13551945595013e-03 8.40664795064991e-05
1.60898863636364e+01 7.07973458546273e-03 8.36025576501751e-05
1.61642045454545e+01 7.02438583617908e-03 8.31403089075786e-05
1.62385227272727e+01 6.96946979888011e-03 8.26797420820387e-05
1.63128409090909e+01 6.91498309032187e-03 8.22208656302238e-05
1.63871590909091e+01 6.86092235405113e-03 8.17636874115616e-05
1.64614772727273e+01 6.80728425985466e-03 8.13082150826730e-05
1.65357954545455e+01 6.75406550355495e-03 8.08544558545110e-05
1.66101136363636e+01 6.70126280712282e-03 8.04024168600017e-05
1.66844318181818e+01 6.64887291751973e-03 7.99521049190815e-05
1.67587500000000e+01 6.59689260745920e-03 7.95035263002637e-05
1.68330681818182e+01 6.54531867488519e-03 7.90566870952950e-05
1.69073863636364e+01 6.49414794277504e-03 7.86115931015927e-05
1.69817045454545e+01 6.44337725894394e-03 7.81682497157539e-05
1.70560227272727e+01 6.39300349614483e-03 7.77266622792756e-05
1.71303409090909e+01 6.34302355098738e-03 7.72868358569856e-05
1.72046590909091e+01 6.29343434464080e-03 7.68487750121757e-05
1.72789772727273e+01 6.24423282234401e-03 7.64124841590075e-05
1.73532954545455e+01 6.19541595321807e-03 7.59779673445238e-05
1.74276136363636e+01 6.14698073035593e-03 7.55452285772471e-05
1.75019318181818e+01 6.09892416980173e-03 7.51142716162621e-05
1.75762500000000e+01 6.05124331120770e-03 7.46850997571495e-05
1.76505681818182e+01 6.00393521736964e-03 7.42577161669259e-05
1.77248863636364e+01 5.95699697404611e-03 7.38321237782772e-05
1.77992045454545e+01 5.91042568977913e-03 7.34083251936084e-05
1.78735227272727e+01 5.86421849597339e-03 7.29863229942981e-05
1.79478409090909e+01 5.81837254594209e-03 7.25661195417135e-05
1.80221590909091e+01 5.77288501551395e-03 7.21477167752421e-05
1.80964772727273e+01 5.72775310259648e-03 7.17311165275625e-05
1.81707954545455e+01 5.68297402700401e-03 7.13163203288333e-05
1.82451136363636e+01 5.63854503052855e-03 7.09033297008110e-05
1.83194318181818e+01 5.59446337603796e-03 7.04921459673338e-05
1.83937500000000e+01 5.55072634804388e-03 7.00827700619916e-05
1.84680681818182e+01 5.50733125228722e-03 6.96752028279663e-05
1.85423863636364e+01 5.46427541557239e-03 6.92694449227951e-05
1.86167045454545e+01 5.42155618560268e-03 6.88654967319084e-05
1.86910227272727e+01 5.37917093104273e-03 6.84633586456197e-05
1.87653409090909e+01 5.33711704067447e-03 6.80630308802570e-05
1.88396590909091e+01 5.29539192392244e-03 6.76645132966228e-05
1.89139772727273e+01 5.25399301046380e-03 6.72678056824110e-05
1.89882954545455e+01 5.21291775007053e-03 6.68729075761810e-05
1.90626136363636e+01 5.17216361266487e-03 6.64798185308953e-05
1.91369318181818e+01 5.13172808752103e-03 6.60885379435281e-05
1.92112500000000e+01 5.09160868375695e-03 6.56990648821383e-05
1.92855681818182e+01 5.05180292996397e-03 6.53113983545810e-05
1.93598863636364e+01 5.01230837405467e-03 6.49255372227290e-05
1.94342045454545e+01 4.97312258311192e-03 6.45414801245245e-05
1.95085227272727e+01 4.93424314343741e-03 6.41592257223193e-05
1.95828409090909e+01 4.89566765980382e-03 6.37787725419938e-05
1.96571590909091e+01 4.85739375591007e-03 6.34001188096754e-05
1.97314772727273e+01 4.81941907403262e-03 6.30232627049749e-05
1.98057954545455e+01 4.78174127488058e-03 6.26482022026298e-05
1.98801136363636e+01 4.74435803763862e-03 6.22749353089212e-05
1.99544318181818e+01 4.70726705925896e-03 6.19034599083509e-05
2.00287500000000e+01 4.67046605488802e-03 6.15337736080431e-05
2.01030681818182e+01 4.63395275753490e-03 6.11658739788225e-05
2.01773863636364e+01 4.59772491793184e-03 6.07997584779022e-05
2.02517045454545e+01 4.56178030439572e-03 6.04354243785822e-05
2.03260227272727e+01 4.52611670286526e-03 6.00728689931426e-05
2.04003409090909e+01 4.49073191623720e-03 5.97120895280288e-05
2.04746590909091e+01 4.45562376476159e-03 5.93530829368769e-05
2.05489772727273e+01 4.42079008572943e-03 5.89958461478322e-05
2.06232954545455e+01 4.38622873333974e-03 5.86403759209877e-05
2.06976136363636e+01 4.35193757873211e-03 5.82866690606622e-05
2.07719318181818e+01 4.31791450935784e-03 5.79347222773500e-05
2.08462500000000e+01 4.28415742935056e-03 5.75845320476170e-05
2.09205681818182e+01 4.25066425922915e-03 5.72360948306004e-05
2.09948863636364e+01 4.21743293576965e-03 5.68894069982936e-05
2.10692045454545e+01 4.18446141187829e-03 5.65444647720931e-05
2.11435227272727e+01 4.15174765661935e-03 5.62012644230534e-05
2.12178409090909e+01 4.11928965462505e-03 5.58598021414457e-05
2.12921590909091e+01 4.08708540643924e-03 5.55200739043694e-05
2.13664772727273e+01 4.05513292823720e-03 5.51820756799914e-05
2.14407954545455e+01 4.02343025170369e-03 5.48458032991180e-05
2.15151136363636e+01 3.99197542405714e-03 5.45112526459662e-05
2.15894318181818e+01 3.96076650749006e-03 5.41784195337994e-05
2.16637500000000e+01 3.92980157949164e-03 5.38472995786920e-05
2.17380681818182e+01 3.89907873258097e-03 5.35178883940936e-05
2.18123863636364e+01 3.86859607418969e-03 5.31901815279606e-05
2.18867045454545e+01 3.83835172654541e-03 5.28641744054695e-05
2.19610227272727e+01 3.80834382669205e-03 5.25398625090518e-05
2.20353409090909e+01 3.77857052596445e-03 5.22172412608398e-05
2.21096590909091e+01 3.74902999028760e-03 5.18963059033535e-05
2.21839772727273e+01 3.71972039992499e-03 5.15770516831389e-05
2.22582954545455e+01 3.69063994936679e-03 5.12594737350112e-05
2.23326136363636e+01 3.66178684734705e-03 5.09435672536481e-05
2.24069318181818e+01 3.63315931634529e-03 5.06293273814535e-05
2.24812500000000e+01 3.60475559286742e-03 5.03167490947616e-05
2.25555681818182e+01 3.57657392720615e-03 5.00058273788584e-05
2.26298863636364e+01 3.54861258333324e-03 4.96965571712230e-05
2.27042045454545e+01 3.52086983879260e-03 4.93889333097857e-05
2.27785227272727e+01 3.49334398471447e-03 4.90829506949320e-05
2.28528409090909e+01 3.46603332534703e-03 4.87786041834872e-05
2.29271590909091e+01 3.43893617831721e-03 4.84758884811135e-05
2.30014772727273e+01 3.41205087440452e-03 4.81747983075730e-05
2.30757954545455e+01 3.38537575743835e-03 4.78753282923174e-05
2.31501136363636e+01 3.35890918430968e-03 4.75774731289349e-05
2.32244318181818e+01 3.33264952452646e-03 4.72812274740127e-05
2.32987500000000e+01 3.30659516045859e-03 4.69865858444758e-05
2.33730681818182e+01 3.28074448712244e-03 4.66935427751356e-05
2.34473863636364e+01 3.25509591208197e-03 4.64020927674393e-05
