Energy (eV)          EEDF (eV^-(3/2))     First Anisotropy
3.58064516129032e-04 6.87754968298058e+01 3.57986642227654e-02
1.07419354838710e-03 6.80140659129166e+01 5.89848333920071e-02
1.79032258064516e-03 6.72610649911603e+01 7.75258362122733e-02
2.50645161290323e-03 6.65164007310819e+01 9.14058777246141e-02
3.22258064516129e-03 6.57799808380440e+01 1.02813022426964e-01
3.93870967741936e-03 6.50517140361816e+01 1.12579777508437e-01
4.65483870967742e-03 6.43315100604212e+01 1.21139551815395e-01
5.37096774193548e-03 6.36192796442851e+01 1.28755597341654e-01
6.08709677419355e-03 6.29149345114323e+01 1.35603510644078e-01
6.80322580645161e-03 6.22183873618321e+01 1.41808103517354e-01
7.51935483870968e-03 6.15295518619827e+01 1.47462285342166e-01
8.23548387096774e-03 6.08483426342373e+01 1.52637696882914e-01
8.95161290322581e-03 6.01746752457356e+01 1.57391135975229e-01
9.66774193548387e-03 5.95084661993611e+01 1.61768658278956e-01
1.03838709677419e-02 5.88496329198370e+01 1.65808310766822e-01
1.11000000000000e-02 5.81980937515395e+01 1.69542020530952e-01
1.18161290322581e-02 5.75537679392606e+01 1.72996939287415e-01
1.25322580645161e-02 5.69165756219111e+01 1.76196424908738e-01
1.32483870967742e-02 5.62864378198068e+01 1.79160773838779e-01
1.39645161290323e-02 5.56632764335816e+01 1.81907778410881e-01
1.46806451612903e-02 5.50470142254214e+01 1.84453157891350e-01
1.53967741935484e-02 5.44375748103267e+01 1.86810896288024e-01
1.61129032258065e-02 5.38348826538862e+01 1.88993511530831e-01
1.68290322580645e-02 5.32388630553770e+01 1.91012272083590e-01
1.75451612903226e-02 5.26494421391439e+01 1.92877372677598e-01
1.82612903225806e-02 5.20665468515893e+01 1.94598079134734e-01
1.89774193548387e-02 5.14901049457347e+01 1.96182848367667e-01
1.96935483870968e-02 5.09200449727713e+01 1.97639428203571e-01
2.04096774193548e-02 5.03562962784990e+01 1.98974941848516e-01
2.11258064516129e-02 4.97987889890789e+01 2.00195959463336e-01
2.18419354838710e-02 4.92474540027826e+01 2.01308558815790e-01
2.25580645161290e-02 4.87022229860437e+01 2.02318377729904e-01
2.32741935483871e-02 4.81630283602078e+01 2.03230659329460e-01
2.39903225806452e-02 4.76298032934952e+01 2.04050290903209e-01
2.47064516129032e-02 4.71024816967805e+01 2.04781838150889e-01
2.54225806451613e-02 4.65809982112040e+01 2.05429575154514e-01
2.61387096774194e-02 4.60652882003446e+01 2.05997510379198e-01
2.68548387096774e-02 4.55552877458208e+01 2.06489409973011e-01
2.75709677419355e-02 4.50509336356500e+01 2.06908818404850e-01
2.82870967741936e-02 4.45521633566385e+01 2.07259076489100e-01
2.90032258064516e-02 4.40589150898659e+01 2.07543337792765e-01
2.97193548387097e-02 4.35711276997053e+01 2.07764583316176e-01
3.04354838709677e-02 4.30887407264328e+01 2.07925634367036e-01
3.11516129032258e-02 4.26116943816429e+01 2.08029164456047e-01
3.18677419354839e-02 4.21399295378601e+01 2.08077710033633e-01
3.25838709677419e-02 4.16733877213673e+01 2.08073679921545e-01
3.33000000000000e-02 4.12120111075890e+01 2.08019364156636e-01
3.40161290322581e-02 4.07557425112373e+01 2.07916942004830e-01
3.47322580645161e-02 4.03045253801388e+01 2.07768489138675e-01
3.54483870967742e-02 3.98583037874799e+01 2.07575984210743e-01
3.61645161290323e-02 3.94170224271537e+01 2.07341314978077e-01
3.68806451612903e-02 3.89806266045800e+01 2.07066283949807e-01
3.75967741935484e-02 3.85490622300376e+01 2.06752613332558e-01
3.83129032258065e-02 3.81222758140396e+01 2.06401949827391e-01
3.90290322580645e-02 3.77002144585816e+01 2.06015869053898e-01
3.97451612903226e-02 3.72828258506854e+01 2.05595879406364e-01
4.04612903225807e-02 3.68700582578184e+01 2.05143425852036e-01
4.11774193548387e-02 3.64618605195392e+01 2.04659893451284e-01
4.18935483870968e-02 3.60581820412464e+01 2.04146610406701e-01
4.26096774193548e-02 3.56589727896551e+01 2.03604851114455e-01
4.33258064516129e-02 3.52641832848120e+01 2.03035839004521e-01
4.40419354838710e-02 3.48737645940445e+01 2.02440748981595e-01
4.47580645161290e-02 3.44876683275034e+01 2.01820709908385e-01
4.54741935483871e-02 3.41058466305239e+01 2.01176806926116e-01
4.61903225806452e-02 3.37282521777686e+01 2.00510083430211e-01
4.69064516129032e-02 3.33548381688445e+01 1.99821543114911e-01
4.76225806451613e-02 3.29855583209894e+01 1.99112151890744e-01
4.83387096774194e-02 3.26203668634012e+01 1.98382839499407e-01
4.90548387096774e-02 3.22592185329362e+01 1.97634501214980e-01
4.97709677419355e-02 3.19020685671020e+01 1.96867999444689e-01
5.04870967741936e-02 3.15488726985666e+01 1.96084165060549e-01
5.12032258064516e-02 3.11995871509440e+01 1.95283798828380e-01
5.19193548387097e-02 3.08541686320739e+01 1.94467672756648e-01
5.26354838709678e-02 3.05125743287077e+01 1.93636531203263e-01
5.33516129032258e-02 3.01747619023828e+01 1.92791092086421e-01
5.40677419354839e-02 2.98406894829745e+01 1.91932048030780e-01
5.47838709677419e-02 2.95103156635529e+01 1.91060067293973e-01
5.55000000000000e-02 2.91835994963486e+01 1.90175794800736e-01
5.62161290322581e-02 2.88605004865623e+01 1.89279853108819e-01
5.69322580645161e-02 2.85409785877232e+01 1.88372843252486e-01
5.76483870967742e-02 2.82249941964003e+01 1.87455345553411e-01
5.83645161290323e-02 2.79125081482835e+01 1.86527920449507e-01
5.90806451612903e-02 2.76034817123246e+01 1.85591109301243e-01
5.97967741935484e-02 2.72978765859737e+01 1.84645435019191e-01
6.05129032258065e-02 2.69956548913549e+01 1.83691402799010e-01
6.12290322580645e-02 2.66967791696345e+01 1.82729500822620e-01
6.19451612903226e-02 2.64012123764119e+01 1.81760200793723e-01
6.26612903225807e-02 2.61089178779908e+01 1.80783958579402e-01
6.33774193548387e-02 2.58198594459627e+01 1.79801214823375e-01
6.40935483870968e-02 2.55340012527486e+01 1.78812395405084e-01
6.48096774193549e-02 2.52513078679645e+01 1.77817912002835e-01
6.55258064516129e-02 2.49717442532111e+01 1.76818162632996e-01
6.62419354838710e-02 2.46952757577604e+01 1.75813532045191e-01
6.69580645161290e-02 2.44218681150161e+01 1.74804392219048e-01
6.76741935483871e-02 2.41514874374991e+01 1.73791102840595e-01
6.83903225806452e-02 2.38841002126756e+01 1.72774011643741e-01
6.91064516129032e-02 2.36196732995099e+01 1.71753454850454e-01
6.98225806451613e-02 2.33581739236389e+01 1.70729757593587e-01
7.05387096774194e-02 2.30995696733350e+01 1.69703234212942e-01
7.12548387096774e-02 2.28438284961524e+01 1.68674188646957e-01
7.19709677419355e-02 2.25909186942808e+01 1.67642914809558e-01
7.26870967741936e-02 2.23408089206398e+01 1.66609696847626e-01
7.34032258064516e-02 2.20934681756166e+01 1.65574809490886e-01
7.41193548387097e-02 2.18488658025918e+01 1.64538518389111e-01
7.48354838709678e-02 2.16069714841606e+01 1.63501080336589e-01
7.55516129032258e-02 2.13677552389613e+01 1.62462743585817e-01
7.62677419354839e-02 2.11311874173646e+01 1.61423748150291e-01
7.69838709677420e-02 2.08972386978190e+01 1.60384326000711e-01
7.77000000000000e-02 2.06658800837669e+01 1.59344701347149e-01
7.84161290322581e-02 2.04370828994927e+01 1.58305090902503e-01
7.91322580645161e-02 2.02108187867570e+01 1.57265704091883e-01
7.98483870967742e-02 1.99870597011154e+01 1.56226743260556e-01
8.05645161290323e-02 1.97657779089477e+01 1.55188403909134e-01
8.12806451612903e-02 1.95469459835089e+01 1.54150874931801e-01
8.19967741935484e-02 1.93305368015460e+01 1.53114338761083e-01
8.27129032258065e-02 1.91165235404118e+01 1.52078971590733e-01
8.34290322580645e-02 1.89048796742586e+01 1.51044943591769e-01
8.41451612903226e-02 1.86955789707654e+01 1.50012419039790e-01
8.48612903225807e-02 1.84885954883356e+01 1.48981556517395e-01
8.55774193548387e-02 1.82839035724264e+01 1.47952509110596e-01
8.62935483870968e-02 1.80814778523839e+01 1.46925424520916e-01
8.70096774193549e-02 1.78812932387218e+01 1.45900445249696e-01
8.77258064516129e-02 1.76833249195825e+01 1.44877708777073e-01
8.84419354838710e-02 1.74875483576753e+01 1.43857347660783e-01
8.91580645161291e-02 1.72939392876350e+01 1.42839489704350e-01
8.98741935483871e-02 1.71024737126089e+01 1.41824258120537e-01
9.05903225806452e-02 1.69131279012955e+01 1.40811771618508e-01
9.13064516129032e-02 1.67258783853806e+01 1.39802144557602e-01
9.20225806451613e-02 1.65407019562459e+01 1.38795487096933e-01
9.27387096774194e-02 1.63575756621041e+01 1.37791905272318e-01
9.34548387096774e-02 1.61764768055114e+01 1.36791501137148e-01
9.41709677419355e-02 1.59973829401920e+01 1.35794372899567e-01
9.48870967741936e-02 1.58202718682680e+01 1.34800614990390e-01
9.56032258064516e-02 1.56451216378446e+01 1.33810318192384e-01
9.63193548387097e-02 1.54719105399482e+01 1.32823569766292e-01
9.70354838709678e-02 1.53006171058455e+01 1.31840453510780e-01
9.77516129032258e-02 1.51312201047021e+01 1.30861049881273e-01
9.84677419354839e-02 1.49636985406276e+01 1.29885436105946e-01
9.91838709677419e-02 1.47980316500831e+01 1.28913686238633e-01
9.99000000000000e-02 1.46341988996095e+01 1.27945871297840e-01
1.00616129032258e-01 1.44721799824940e+01 1.26982059277734e-01
1.01332258064516e-01 1.43119548178195e+01 1.26022315271636e-01
1.02048387096774e-01 1.41535035464980e+01 1.25066701628409e-01
1.02764516129032e-01 1.39968065293063e+01 1.24115277933008e-01
1.03480645161290e-01 1.38418443444521e+01 1.23168101117676e-01
1.04196774193548e-01 1.36885977851667e+01 1.22225225537332e-01
1.04912903225806e-01 1.35370478573246e+01 1.21286703042799e-01
1.05629032258065e-01 1.33871757770887e+01 1.20352583051947e-01
1.06345161290323e-01 1.32389629685830e+01 1.19422912618810e-01
1.07061290322581e-01 1.30923910615896e+01 1.18497736500768e-01
1.07777419354839e-01 1.29474418892717e+01 1.17577097223818e-01
1.08493548387097e-01 1.28040974859224e+01 1.16661035146024e-01
1.09209677419355e-01 1.26623400847379e+01 1.15749588519192e-01
1.09925806451613e-01 1.25221521156149e+01 1.14842793548833e-01
1.10641935483871e-01 1.23835162029732e+01 1.13940684452459e-01
1.11358064516129e-01 1.22464151636022e+01 1.13043293516273e-01
1.12074193548387e-01 1.21108320045308e+01 1.12150651150270e-01
1.12790322580645e-01 1.19767499209215e+01 1.11262785941864e-01
1.13506451612903e-01 1.18441522939875e+01 1.10379724708049e-01
1.14222580645161e-01 1.17130226889329e+01 1.09501492546107e-01
1.14938709677419e-01 1.15833448529153e+01 1.08628112882954e-01
1.15654838709677e-01 1.14551027130320e+01 1.07759607523152e-01
1.16370967741936e-01 1.13282803743274e+01 1.06895996695618e-01
1.17087096774194e-01 1.12028621178229e+01 1.06037299099078e-01
1.17803225806452e-01 1.10788323985686e+01 1.05183531946290e-01
1.18519354838710e-01 1.09561758437171e+01 1.04334711007094e-01
1.19235483870968e-01 1.08348772506173e+01 1.03490850650311e-01
1.19951612903226e-01 1.07149215849306e+01 1.02651963884512e-01
1.20667741935484e-01 1.05962939787676e+01 1.01818062397721e-01
1.21383870967742e-01 1.04789797288448e+01 1.00989156596051e-01
1.22100000000000e-01 1.03629642946626e+01 1.00165255679036e-01
1.22816129032258e-01 1.02482332961458e+01 9.93463675616775e-02
1.23532258064516e-01 1.01347725135485e+01 9.85324989848756e-02
1.24248387096774e-01 1.00225678839885e+01 9.77236556363033e-02
1.24964516129032e-01 9.91160550027708e+00 9.69198420573349e-02
1.25680645161290e-01 9.80187160919573e+00 9.61210617187895e-02
1.26396774193548e-01 9.69335260979125e+00 9.53273170529920e-02
1.27112903225806e-01 9.58603505169004e+00 9.45386094850042e-02
1.27829032258065e-01 9.47990563343104e+00 9.37549394630316e-02
1.28545161290323e-01 9.37495120081702e+00 9.29763064880491e-02
1.29261290322581e-01 9.27115874528422e+00 9.22027091426446e-02
1.29977419354839e-01 9.16851540229000e+00 9.14341451191252e-02
1.30693548387097e-01 9.06700844971832e+00 9.06706112469037e-02
1.31409677419355e-01 8.96662530630292e+00 8.99121035191429e-02
1.32125806451613e-01 8.86735353006795e+00 8.91586171187376e-02
1.32841935483871e-01 8.76918081678584e+00 8.84101464436347e-02
1.33558064516129e-01 8.67209499845222e+00 8.76666851314867e-02
1.34274193548387e-01 8.57608404177770e+00 8.69282260836520e-02
1.34990322580645e-01 8.48113604669660e+00 8.61947614885943e-02
1.35706451612903e-01 8.38723924489187e+00 8.54662828446998e-02
1.36422580645161e-01 8.29438199833653e+00 8.47427809824864e-02
1.37138709677419e-01 8.20255279785111e+00 8.40242460862442e-02
1.37854838709677e-01 8.11174026167720e+00 8.33106677151194e-02
1.38570967741936e-01 8.02193313406674e+00 8.26020348236632e-02
1.39287096774194e-01 7.93312028388688e+00 8.18983357818459e-02
1.40003225806452e-01 7.84529070324040e+00 8.11995583945716e-02
1.40719354838710e-01 7.75843350610130e+00 8.05056899206866e-02
1.41435483870968e-01 7.67253792696552e+00 7.98167170914897e-02
1.42151612903226e-01 7.58759331951664e+00 7.91326261287864e-02
1.42867741935484e-01 7.50358915530630e+00 7.84534027624707e-02
1.43583870967742e-01 7.42051502244927e+00 7.77790322476609e-02
1.44300000000000e-01 7.33836062433295e+00 7.71094994059394e-02
1.45016129032258e-01 7.25711577800711e+00 7.64447885671037e-02
1.45732258064516e-01 7.17677041393301e+00 7.57848836334696e-02
1.46448387096774e-01 7.09731457371479e+00 7.51297681516892e-02
1.47164516129032e-01 7.01873840920854e+00 7.44794252450388e-02
1.47880645161290e-01 6.94103218130164e+00 7.38338376559896e-02
1.48596774193548e-01 6.86418625870564e+00 7.31929877604987e-02
1.49312903225806e-01 6.78819111676256e+00 7.25568575819291e-02
1.50029032258065e-01 6.71303733626431e+00 7.19254288046173e-02
1.50745161290323e-01 6.63871560228524e+00 7.12986827870824e-02
1.51461290322581e-01 6.56521670302762e+00 7.06766005749046e-02
1.52177419354839e-01 6.49253152867985e+00 7.00591629132755e-02
1.52893548387097e-01 6.42065107028739e+00 6.94463502592132e-02
1.53609677419355e-01 6.34956641863610e+00 6.88381427934649e-02
1.54325806451613e-01 6.27926876314802e+00 6.82345204321094e-02
1.55041935483871e-01 6.20974939078933e+00 6.76354628378616e-02
1.55758064516129e-01 6.14099968499042e+00 6.70409494310775e-02
1.56474193548387e-01 6.07301112457785e+00 6.64509594004628e-02
1.57190322580645e-01 6.00577528271832e+00 6.58654717135230e-02
1.57906451612903e-01 5.93928382587413e+00 6.52844651267464e-02
1.58622580645161e-01 5.87352851277029e+00 6.47079181954999e-02
1.59338709677419e-01 5.80850119337306e+00 6.41358092836790e-02
1.60054838709677e-01 5.74419380787979e+00 6.35681165731085e-02
1.60770967741935e-01 5.68059838571994e+00 6.30048180726876e-02
1.61487096774194e-01 5.61770704456719e+00 6.24458916273078e-02
1.62203225806452e-01 5.55551198936245e+00 6.18913149265234e-02
1.62919354838710e-01 5.49400551134771e+00 6.13410655130022e-02
1.63635483870968e-01 5.43317998711055e+00 6.07951207907539e-02
1.64351612903226e-01 5.37302787763932e+00 6.02534580331309e-02
1.65067741935484e-01 5.31354172738866e+00 5.97160543906321e-02
1.65783870967742e-01 5.25471416335544e+00 5.91828868984868e-02
1.66500000000000e-01 5.19653789416491e+00 5.86539325002118e-02
1.67216129032258e-01 5.13900570896195e+00 5.81291680057415e-02
1.67932258064516e-01 5.08211047713790e+00 5.76085701302325e-02
1.68648387096774e-01 5.02584514682062e+00 5.70921155381556e-02
1.69364516129032e-01 4.97020274421103e+00 5.65797807953109e-02
1.70080645161290e-01 4.91517637271872e+00 5.60715423936808e-02
1.70796774193548e-01 4.86075921210722e+00 5.55673767577015e-02
1.71512903225806e-01 4.80694451764860e+00 5.50672602503616e-02
1.72229032258065e-01 4.75372561928754e+00 5.45711691791333e-02
1.72945161290323e-01 4.70109592081459e+00 5.40790798017472e-02
1.73661290322581e-01 4.64904889904859e+00 5.35909683318049e-02
1.74377419354839e-01 4.59757810302819e+00 5.31068109442325e-02
1.75093548387097e-01 4.54667715321228e+00 5.26265837805904e-02
1.75809677419355e-01 4.49633974068925e+00 5.21502629542301e-02
1.76525806451613e-01 4.44655962639504e+00 5.16778245553061e-02
1.77241935483871e-01 4.39733064033988e+00 5.12092446556551e-02
1.77958064516129e-01 4.34864668084350e+00 5.07444993135322e-02
1.78674193548387e-01 4.30050171377884e+00 5.02835645782038e-02
1.79390322580645e-01 4.25288977182425e+00 4.98264164944189e-02
1.80106451612903e-01 4.20580495372379e+00 4.93730311067640e-02
1.80822580645161e-01 4.15924142355583e+00 4.89233844638740e-02
1.81538709677419e-01 4.11319341000971e+00 4.84774526225287e-02
1.82254838709677e-01 4.06765520567039e+00 4.80352116516302e-02
1.82970967741936e-01 4.02262116631110e+00 4.75966376360669e-02
1.83687096774194e-01 3.97808571019371e+00 4.71617066804579e-02
1.84403225806452e-01 3.93404331737695e+00 4.67303949127900e-02
1.85119354838710e-01 3.89048852903220e+00 4.63026784879510e-02
1.85835483870968e-01 3.84741594676693e+00 4.58785335911496e-02
1.86551612903226e-01 3.80482023195557e+00 4.54579364412356e-02
1.87267741935484e-01 3.76269610507783e+00 4.50408632939207e-02
1.87983870967742e-01 3.72103834506433e+00 4.46272904449042e-02
1.88700000000000e-01 3.67984178864946e+00 4.42171942436467e-02
1.89416129032258e-01 3.63910132960330e+00 4.38105510636940e-02
1.90132258064516e-01 3.59881191848651e+00 4.34073373266194e-02
1.90848387096774e-01 3.55896856163327e+00 4.30075295296381e-02
1.91564516129032e-01 3.51956632066390e+00 4.26111042119175e-02
1.92280645161290e-01 3.48060031187277e+00 4.22180379694039e-02
1.92996774193548e-01 3.44206570562300e+00 4.18283074573199e-02
1.93712903225806e-01 3.40395772574784e+00 4.14418893925812e-02
1.94429032258065e-01 3.36627164895869e+00 4.10587605561311e-02
1.95145161290323e-01 3.32900280425968e+00 4.06788977952004e-02
1.95861290322581e-01 3.29214657236871e+00 4.03022780254930e-02
1.96577419354839e-01 3.25569838514495e+00 3.99288782332956e-02
1.97293548387097e-01 3.21965372502257e+00 3.95586754775155e-02
1.98009677419355e-01 3.18400812445090e+00 3.91916468916516e-02
1.98725806451613e-01 3.14875716534062e+00 3.88277696856940e-02
1.99441935483871e-01 3.11389647851623e+00 3.84670211479566e-02
2.00158064516129e-01 3.07942174317445e+00 3.81093786468487e-02
2.00874193548387e-01 3.04532868634872e+00 3.77548196325748e-02
2.01590322580645e-01 3.01161308237955e+00 3.74033216387796e-02
2.02306451612903e-01 2.97827075239085e+00 3.70548622841327e-02
2.03022580645161e-01 2.94529756377188e+00 3.67094192738511e-02
2.03738709677419e-01 2.91268942966512e+00 3.63669704011647e-02
2.04454838709677e-01 2.88044230845965e+00 3.60274935487231e-02
2.05170967741936e-01 2.84855220329026e+00 3.56909666899551e-02
2.05887096774194e-01 2.81701516154207e+00 3.53573678903655e-02
2.06603225806452e-01 2.78582727436057e+00 3.50266753087845e-02
2.07319354838710e-01 2.75498467616718e+00 3.46988671985691e-02
2.08035483870968e-01 2.72448354418013e+00 3.43739219087463e-02
2.08751612903226e-01 2.69432009794062e+00 3.40518178851157e-02
2.09467741935484e-01 2.66449059884427e+00 3.37325336713030e-02
2.10183870967742e-01 2.63499134967774e+00 3.34160479097617e-02
2.10900000000000e-01 2.60581869416048e+00 3.31023393499367e-02
2.11616129032258e-01 2.57696901641032e+00 3.27913868273566e-02
2.12332258064516e-01 2.54843874074107e+00 3.24831692786051e-02
2.13048387096774e-01 2.52022433097143e+00 3.21776657588415e-02
2.13764516129032e-01 2.49232229007008e+00 3.18748554182271e-02
2.14480645161290e-01 2.46472915972220e+00 3.15747175108828e-02
2.15196774193548e-01 2.43744151990087e+00 3.12772313956038e-02
2.15912903225806e-01 2.41045598844313e+00 3.09823765365363e-02
2.16629032258065e-01 2.38376922063083e+00 3.06901325038146e-02
2.17345161290323e-01 2.35737790877601e+00 3.04004789741626e-02
2.18061290322581e-01 2.33127878181100e+00 3.01133957314663e-02
2.18777419354839e-01 2.30546860488292e+00 2.98288626673072e-02
2.19493548387097e-01 2.27994417895278e+00 2.95468597814618e-02
2.20209677419355e-01 2.25470234039894e+00 2.92673671823710e-02
2.20925806451613e-01 2.22973996062505e+00 2.89903650875775e-02
2.21641935483871e-01 2.20505394567222e+00 2.87158338241315e-02
2.22358064516129e-01 2.18064123583557e+00 2.84437538289699e-02
2.23074193548387e-01 2.15649880528497e+00 2.81741056492598e-02
2.23790322580645e-01 2.13262366169003e+00 2.79068699427185e-02
2.24506451612903e-01 2.10901284584924e+00 2.76420274779081e-02
2.25222580645161e-01 2.08566343132312e+00 2.73795591344969e-02
2.25938709677419e-01 2.06257252407155e+00 2.71194459034981e-02
