Energy (eV)          EEDF (eV^-(3/2))     First Anisotropy
3.18928571428571e-04 2.68086051126327e+02 0.00000000000000e+00
9.56785714285714e-04 2.61552058231300e+02 0.00000000000000e+00
1.59464285714286e-03 2.55177316677320e+02 0.00000000000000e+00
2.23250000000000e-03 2.48957945072084e+02 0.00000000000000e+00
2.87035714285714e-03 2.42890156623487e+02 0.00000000000000e+00
3.50821428571429e-03 2.36970256833942e+02 0.00000000000000e+00
4.14607142857143e-03 2.31194641250912e+02 0.00000000000000e+00
4.78392857142857e-03 2.25559793272258e+02 0.00000000000000e+00
5.42178571428571e-03 2.20062282005090e+02 0.00000000000000e+00
6.05964285714286e-03 2.14698760176794e+02 0.00000000000000e+00
6.69750000000000e-03 2.09465962096978e+02 0.00000000000000e+00
7.33535714285714e-03 2.04360701669086e+02 0.00000000000000e+00
7.97321428571429e-03 1.99379870450484e+02 0.00000000000000e+00
8.61107142857143e-03 1.94520435759812e+02 0.00000000000000e+00
9.24892857142857e-03 1.89779438830483e+02 0.00000000000000e+00
9.88678571428572e-03 1.85153993009171e+02 0.00000000000000e+00
1.05246428571429e-02 1.80641281998214e+02 0.00000000000000e+00
1.11625000000000e-02 1.76238558140855e+02 0.00000000000000e+00
1.18003571428571e-02 1.71943140748274e+02 0.00000000000000e+00
1.24382142857143e-02 1.67752414467394e+02 0.00000000000000e+00
1.30760714285714e-02 1.63663827688474e+02 0.00000000000000e+00
1.37139285714286e-02 1.59674890991502e+02 0.00000000000000e+00
1.43517857142857e-02 1.55783175630468e+02 0.00000000000000e+00
1.49896428571429e-02 1.51986312054565e+02 0.00000000000000e+00
1.56275000000000e-02 1.48281988465447e+02 0.00000000000000e+00
1.62653571428571e-02 1.44667949409635e+02 0.00000000000000e+00
1.69032142857143e-02 1.41141994405246e+02 0.00000000000000e+00
1.75410714285714e-02 1.37701976602177e+02 0.00000000000000e+00
1.81789285714286e-02 1.34345801474955e+02 0.00000000000000e+00
1.88167857142857e-02 1.31071425547444e+02 0.00000000000000e+00
1.94546428571429e-02 1.27876855148627e+02 0.00000000000000e+00
2.00925000000000e-02 1.24760145198726e+02 0.00000000000000e+00
2.07303571428571e-02 1.21719398024891e+02 0.00000000000000e+00
2.13682142857143e-02 1.18752762205772e+02 0.00000000000000e+00
2.20060714285714e-02 1.15858431444237e+02 0.00000000000000e+00
2.26439285714286e-02 1.13034643467573e+02 0.00000000000000e+00
2.32817857142857e-02 1.10279678954491e+02 0.00000000000000e+00
2.39196428571429e-02 1.07591860488281e+02 0.00000000000000e+00
2.45575000000000e-02 1.04969551535480e+02 0.00000000000000e+00
2.51953571428571e-02 1.02411155449440e+02 0.00000000000000e+00
2.58332142857143e-02 9.99151144981732e+01 0.00000000000000e+00
2.64710714285714e-02 9.74799089158958e+01 0.00000000000000e+00
2.71089285714286e-02 9.51040559776878e+01 0.00000000000000e+00
2.77467857142857e-02 9.27861090967049e+01 0.00000000000000e+00
2.83846428571429e-02 9.05246569433951e+01 0.00000000000000e+00
2.90225000000000e-02 8.83183225861810e+01 0.00000000000000e+00
2.96603571428571e-02 8.61657626530872e+01 0.00000000000000e+00
3.02982142857143e-02 8.40656665138007e+01 0.00000000000000e+00
3.09360714285714e-02 8.20167554816663e+01 0.00000000000000e+00
3.15739285714286e-02 8.00177820351325e+01 0.00000000000000e+00
3.22117857142857e-02 7.80675290581720e+01 0.00000000000000e+00
3.28496428571429e-02 7.61648090992158e+01 0.00000000000000e+00
3.34875000000000e-02 7.43084636481490e+01 0.00000000000000e+00
3.41253571428571e-02 7.24973624309279e+01 0.00000000000000e+00
3.47632142857143e-02 7.07304027213896e+01 0.00000000000000e+00
3.54010714285714e-02 6.90065086698343e+01 0.00000000000000e+00
3.60389285714286e-02 6.73246306479728e+01 0.00000000000000e+00
3.66767857142857e-02 6.56837446098378e+01 0.00000000000000e+00
3.73146428571429e-02 6.40828514682732e+01 0.00000000000000e+00
3.79525000000000e-02 6.25209764866191e+01 0.00000000000000e+00
3.85903571428571e-02 6.09971686852235e+01 0.00000000000000e+00
3.92282142857143e-02 5.95105002624185e+01 0.00000000000000e+00
3.98660714285714e-02 5.80600660296096e+01 0.00000000000000e+00
4.05039285714286e-02 5.66449828601329e+01 0.00000000000000e+00
4.11417857142857e-02 5.52643891515451e+01 0.00000000000000e+00
4.17796428571429e-02 5.39174443010194e+01 0.00000000000000e+00
4.24175000000000e-02 5.26033281935272e+01 0.00000000000000e+00
4.30553571428571e-02 5.13212407024941e+01 0.00000000000000e+00
4.36932142857143e-02 5.00704012026264e+01 0.00000000000000e+00
4.43310714285714e-02 4.88500480946115e+01 0.00000000000000e+00
4.49689285714286e-02 4.76594383414025e+01 0.00000000000000e+00
4.56067857142857e-02 4.64978470158046e+01 0.00000000000000e+00
4.62446428571429e-02 4.53645668590888e+01 0.00000000000000e+00
4.68825000000000e-02 4.42589078503622e+01 0.00000000000000e+00
4.75203571428571e-02 4.31801967864353e+01 0.00000000000000e+00
4.81582142857143e-02 4.21277768719278e+01 0.00000000000000e+00
4.87960714285714e-02 4.11010073193660e+01 0.00000000000000e+00
4.94339285714286e-02 4.00992629590252e+01 0.00000000000000e+00
5.00717857142857e-02 3.91219338582833e+01 0.00000000000000e+00
5.07096428571429e-02 3.81684249502499e+01 0.00000000000000e+00
5.13475000000000e-02 3.72381556714484e+01 0.00000000000000e+00
5.19853571428571e-02 3.63305596083274e+01 0.00000000000000e+00
5.26232142857143e-02 3.54450841523884e+01 0.00000000000000e+00
5.32610714285714e-02 3.45811901637190e+01 0.00000000000000e+00
5.38989285714286e-02 3.37383516427260e+01 0.00000000000000e+00
5.45367857142857e-02 3.29160554098702e+01 0.00000000000000e+00
5.51746428571429e-02 3.21138007932062e+01 0.00000000000000e+00
5.58125000000000e-02 3.13310993235383e+01 0.00000000000000e+00
5.64503571428571e-02 3.05674744370056e+01 0.00000000000000e+00
5.70882142857143e-02 2.98224611849167e+01 0.00000000000000e+00
5.77260714285714e-02 2.90956059506559e+01 0.00000000000000e+00
5.83639285714286e-02 2.83864661734896e+01 0.00000000000000e+00
5.90017857142857e-02 2.76946100791038e+01 0.00000000000000e+00
5.96396428571429e-02 2.70196164167099e+01 0.00000000000000e+00
6.02775000000000e-02 2.63610742025570e+01 0.00000000000000e+00
6.09153571428571e-02 2.57185824696965e+01 0.00000000000000e+00
6.15532142857143e-02 2.50917500238445e+01 0.00000000000000e+00
6.21910714285714e-02 2.44801952051960e+01 0.00000000000000e+00
6.28289285714286e-02 2.38835456560427e+01 0.00000000000000e+00
6.34667857142857e-02 2.33014380940558e+01 0.00000000000000e+00
6.41046428571429e-02 2.27335180910940e+01 0.00000000000000e+00
6.47425000000000e-02 2.21794398574024e+01 0.00000000000000e+00
6.53803571428571e-02 2.16388660310719e+01 0.00000000000000e+00
6.60182142857143e-02 2.11114674726287e+01 0.00000000000000e+00
6.66560714285714e-02 2.05969230646318e+01 0.00000000000000e+00
6.72939285714286e-02 2.00949195161531e+01 0.00000000000000e+00
6.79317857142857e-02 1.96051511720249e+01 0.00000000000000e+00
6.85696428571429e-02 1.91273198267345e+01 0.00000000000000e+00
6.92075000000000e-02 1.86611345428561e+01 0.00000000000000e+00
6.98453571428572e-02 1.82063114739077e+01 0.00000000000000e+00
7.04832142857143e-02 1.77625736915249e+01 0.00000000000000e+00
7.11210714285714e-02 1.73296510168478e+01 0.00000000000000e+00
7.17589285714286e-02 1.69072798560169e+01 0.00000000000000e+00
7.23967857142857e-02 1.64952030396784e+01 0.00000000000000e+00
7.30346428571429e-02 1.60931696664017e+01 0.00000000000000e+00
7.36725000000000e-02 1.57009349499127e+01 0.00000000000000e+00
7.43103571428572e-02 1.53182600700505e+01 0.00000000000000e+00
7.49482142857143e-02 1.49449120273573e+01 0.00000000000000e+00
7.55860714285714e-02 1.45806635012113e+01 0.00000000000000e+00
7.62239285714286e-02 1.42252927114184e+01 0.00000000000000e+00
7.68617857142857e-02 1.38785832831766e+01 0.00000000000000e+00
7.74996428571429e-02 1.35403241153316e+01 0.00000000000000e+00
7.81375000000000e-02 1.32103092518436e+01 0.00000000000000e+00
7.87753571428571e-02 1.28883377563870e+01 0.00000000000000e+00
7.94132142857143e-02 1.25742135900057e+01 0.00000000000000e+00
8.00510714285714e-02 1.22677454917512e+01 0.00000000000000e+00
8.06889285714286e-02 1.19687468622294e+01 0.00000000000000e+00
8.13267857142857e-02 1.16770356499853e+01 0.00000000000000e+00
8.19646428571429e-02 1.13924342406579e+01 0.00000000000000e+00
8.26025000000000e-02 1.11147693488353e+01 0.00000000000000e+00
8.32403571428572e-02 1.08438719125469e+01 0.00000000000000e+00
8.38782142857143e-02 1.05795769903265e+01 0.00000000000000e+00
8.45160714285714e-02 1.03217236607840e+01 0.00000000000000e+00
8.51539285714286e-02 1.00701549246252e+01 0.00000000000000e+00
8.57917857142857e-02 9.82471760905979e+00 0.00000000000000e+00
8.64296428571429e-02 9.58526227453861e+00 0.00000000000000e+00
8.70675000000000e-02 9.35164312376461e+00 0.00000000000000e+00
8.77053571428572e-02 9.12371791292102e+00 0.00000000000000e+00
8.83432142857143e-02 8.90134786506328e+00 0.00000000000000e+00
8.89810714285714e-02 8.68439758562191e+00 0.00000000000000e+00
8.96189285714286e-02 8.47273497996468e+00 0.00000000000000e+00
9.02567857142857e-02 8.26623117296815e+00 0.00000000000000e+00
9.08946428571429e-02 8.06476043054934e+00 0.00000000000000e+00
9.15325000000000e-02 7.86820008310998e+00 0.00000000000000e+00
9.21703571428572e-02 7.67643045084663e+00 0.00000000000000e+00
9.28082142857143e-02 7.48933477088113e+00 0.00000000000000e+00
9.34460714285714e-02 7.30679912616716e+00 0.00000000000000e+00
9.40839285714286e-02 7.12871237612948e+00 0.00000000000000e+00
9.47217857142857e-02 6.95496608899373e+00 0.00000000000000e+00
9.53596428571429e-02 6.78545447576551e+00 0.00000000000000e+00
9.59975000000000e-02 6.62007432581857e+00 0.00000000000000e+00
9.66353571428571e-02 6.45872494405292e+00 0.00000000000000e+00
9.72732142857143e-02 6.30130808958452e+00 0.00000000000000e+00
9.79110714285714e-02 6.14772791592934e+00 0.00000000000000e+00
9.85489285714286e-02 5.99789091264524e+00 0.00000000000000e+00
9.91867857142857e-02 5.85170584839621e+00 0.00000000000000e+00
9.98246428571429e-02 5.70908371540430e+00 0.00000000000000e+00
1.00462500000000e-01 5.56993767525543e+00 0.00000000000000e+00
1.01100357142857e-01 5.43418300602600e+00 0.00000000000000e+00
1.01738214285714e-01 5.30173705069825e+00 0.00000000000000e+00
1.02376071428571e-01 5.17251916683280e+00 0.00000000000000e+00
1.03013928571429e-01 5.04645067746787e+00 0.00000000000000e+00
1.03651785714286e-01 4.92345482321519e+00 0.00000000000000e+00
1.04289642857143e-01 4.80345671552344e+00 0.00000000000000e+00
1.04927500000000e-01 4.68638329108089e+00 0.00000000000000e+00
1.05565357142857e-01 4.57216326732922e+00 0.00000000000000e+00
1.06203214285714e-01 4.46072709906173e+00 0.00000000000000e+00
1.06841071428571e-01 4.35200693607928e+00 0.00000000000000e+00
1.07478928571429e-01 4.24593658187833e+00 0.00000000000000e+00
1.08116785714286e-01 4.14245145334580e+00 0.00000000000000e+00
1.08754642857143e-01 4.04148854143635e+00 0.00000000000000e+00
1.09392500000000e-01 3.94298637280804e+00 0.00000000000000e+00
1.10030357142857e-01 3.84688497239298e+00 0.00000000000000e+00
1.10668214285714e-01 3.75312582688029e+00 0.00000000000000e+00
1.11306071428571e-01 3.66165184908912e+00 0.00000000000000e+00
1.11943928571429e-01 3.57240734320987e+00 0.00000000000000e+00
1.12581785714286e-01 3.48533797089270e+00 0.00000000000000e+00
1.13219642857143e-01 3.40039071816252e+00 0.00000000000000e+00
1.13857500000000e-01 3.31751386314030e+00 0.00000000000000e+00
1.14495357142857e-01 3.23665694455117e+00 0.00000000000000e+00
1.15133214285714e-01 3.15777073100004e+00 0.00000000000000e+00
1.15771071428571e-01 3.08080719099605e+00 0.00000000000000e+00
1.16408928571429e-01 3.00571946370759e+00 0.00000000000000e+00
1.17046785714286e-01 2.93246183043015e+00 0.00000000000000e+00
1.17684642857143e-01 2.86098968674953e+00 0.00000000000000e+00
1.18322500000000e-01 2.79125951538353e+00 0.00000000000000e+00
1.18960357142857e-01 2.72322885968557e+00 0.00000000000000e+00
1.19598214285714e-01 2.65685629779408e+00 0.00000000000000e+00
1.20236071428571e-01 2.59210141741194e+00 0.00000000000000e+00
1.20873928571429e-01 2.52892479120064e+00 0.00000000000000e+00
1.21511785714286e-01 2.46728795277411e+00 0.00000000000000e+00
1.22149642857143e-01 2.40715337327772e+00 0.00000000000000e+00
1.22787500000000e-01 2.34848443853801e+00 0.00000000000000e+00
1.23425357142857e-01 2.29124542676943e+00 0.00000000000000e+00
1.24063214285714e-01 2.23540148682440e+00 0.00000000000000e+00
1.24701071428571e-01 2.18091861697346e+00 0.00000000000000e+00
1.25338928571429e-01 2.12776364420261e+00 0.00000000000000e+00
1.25976785714286e-01 2.07590420401527e+00 0.00000000000000e+00
1.26614642857143e-01 2.02530872072647e+00 0.00000000000000e+00
1.27252500000000e-01 1.97594638823734e+00 0.00000000000000e+00
1.27890357142857e-01 1.92778715127821e+00 0.00000000000000e+00
1.28528214285714e-01 1.88080168710881e+00 0.00000000000000e+00
1.29166071428571e-01 1.83496138766454e+00 0.00000000000000e+00
1.29803928571429e-01 1.79023834213787e+00 0.00000000000000e+00
1.30441785714286e-01 1.74660531998424e+00 0.00000000000000e+00
1.31079642857143e-01 1.70403575434221e+00 0.00000000000000e+00
1.31717500000000e-01 1.66250372585766e+00 0.00000000000000e+00
1.32355357142857e-01 1.62198394690230e+00 0.00000000000000e+00
1.32993214285714e-01 1.58245174617672e+00 0.00000000000000e+00
1.33631071428571e-01 1.54388305368882e+00 0.00000000000000e+00
1.34268928571429e-01 1.50625438609824e+00 0.00000000000000e+00
1.34906785714286e-01 1.46954283241811e+00 0.00000000000000e+00
1.35544642857143e-01 1.43372604006518e+00 0.00000000000000e+00
1.36182500000000e-01 1.39878220125001e+00 0.00000000000000e+00
1.36820357142857e-01 1.36469003969885e+00 0.00000000000000e+00
1.37458214285714e-01 1.33142879769914e+00 0.00000000000000e+00
1.38096071428571e-01 1.29897822346073e+00 0.00000000000000e+00
1.38733928571429e-01 1.26731855878521e+00 0.00000000000000e+00
1.39371785714286e-01 1.23643052703568e+00 0.00000000000000e+00
1.40009642857143e-01 1.20629532139980e+00 0.00000000000000e+00
1.40647500000000e-01 1.17689459343885e+00 0.00000000000000e+00
1.41285357142857e-01 1.14821044191594e+00 0.00000000000000e+00
1.41923214285714e-01 1.12022540189646e+00 0.00000000000000e+00
1.42561071428571e-01 1.09292243411417e+00 0.00000000000000e+00
1.43198928571429e-01 1.06628491459655e+00 0.00000000000000e+00
1.43836785714286e-01 1.04029662454288e+00 0.00000000000000e+00
1.44474642857143e-01 1.01494174044917e+00 0.00000000000000e+00
1.45112500000000e-01 9.90204824473628e-01 0.00000000000000e+00
1.45750357142857e-01 9.66070815037046e-01 0.00000000000000e+00
1.46388214285714e-01 9.42525017652243e-01 0.00000000000000e+00
1.47026071428571e-01 9.19553095977022e-01 0.00000000000000e+00
1.47663928571429e-01 8.97141063085196e-01 0.00000000000000e+00
1.48301785714286e-01 8.75275272950360e-01 0.00000000000000e+00
1.48939642857143e-01 8.53942412137224e-01 0.00000000000000e+00
1.49577500000000e-01 8.33129491695463e-01 0.00000000000000e+00
1.50215357142857e-01 8.12823839251120e-01 0.00000000000000e+00
1.50853214285714e-01 7.93013091290775e-01 0.00000000000000e+00
1.51491071428571e-01 7.73685185633763e-01 0.00000000000000e+00
1.52128928571429e-01 7.54828354087870e-01 0.00000000000000e+00
1.52766785714286e-01 7.36431115284030e-01 0.00000000000000e+00
1.53404642857143e-01 7.18482267685650e-01 0.00000000000000e+00
1.54042500000000e-01 7.00970882768333e-01 0.00000000000000e+00
1.54680357142857e-01 6.83886298365815e-01 0.00000000000000e+00
1.55318214285714e-01 6.67218112178090e-01 0.00000000000000e+00
1.55956071428571e-01 6.50956175437756e-01 0.00000000000000e+00
1.56593928571429e-01 6.35090586730725e-01 0.00000000000000e+00
1.57231785714286e-01 6.19611685967551e-01 0.00000000000000e+00
1.57869642857143e-01 6.04510048501680e-01 0.00000000000000e+00
1.58507500000000e-01 5.89776479391064e-01 0.00000000000000e+00
1.59145357142857e-01 5.75402007799629e-01 0.00000000000000e+00
1.59783214285714e-01 5.61377881535201e-01 0.00000000000000e+00
1.60421071428571e-01 5.47695561720550e-01 0.00000000000000e+00
1.61058928571429e-01 5.34346717594322e-01 0.00000000000000e+00
1.61696785714286e-01 5.21323221438683e-01 0.00000000000000e+00
1.62334642857143e-01 5.08617143630590e-01 0.00000000000000e+00
1.62972500000000e-01 4.96220747813682e-01 0.00000000000000e+00
1.63610357142857e-01 4.84126486187832e-01 0.00000000000000e+00
1.64248214285714e-01 4.72326994913522e-01 0.00000000000000e+00
1.64886071428571e-01 4.60815089628215e-01 0.00000000000000e+00
1.65523928571429e-01 4.49583761072006e-01 0.00000000000000e+00
1.66161785714286e-01 4.38626170819895e-01 0.00000000000000e+00
1.66799642857143e-01 4.27935647118068e-01 0.00000000000000e+00
1.67437500000000e-01 4.17505680821663e-01 0.00000000000000e+00
1.68075357142857e-01 4.07329921431547e-01 0.00000000000000e+00
1.68713214285714e-01 3.97402173227677e-01 0.00000000000000e+00
1.69351071428571e-01 3.87716391496717e-01 0.00000000000000e+00
1.69988928571429e-01 3.78266678851585e-01 0.00000000000000e+00
1.70626785714286e-01 3.69047281640708e-01 0.00000000000000e+00
1.71264642857143e-01 3.60052586444796e-01 0.00000000000000e+00
1.71902500000000e-01 3.51277116658994e-01 0.00000000000000e+00
1.72540357142857e-01 3.42715529158337e-01 0.00000000000000e+00
1.73178214285714e-01 3.34362611044483e-01 0.00000000000000e+00
1.73816071428571e-01 3.26213276471732e-01 0.00000000000000e+00
1.74453928571429e-01 3.18262563550401e-01 0.00000000000000e+00
1.75091785714286e-01 3.10505631325677e-01 0.00000000000000e+00
1.75729642857143e-01 3.02937756830106e-01 0.00000000000000e+00
1.76367500000000e-01 2.95554332207911e-01 0.00000000000000e+00
1.77005357142857e-01 2.88350861909409e-01 0.00000000000000e+00
1.77643214285714e-01 2.81322959953804e-01 0.00000000000000e+00
1.78281071428571e-01 2.74466347258686e-01 0.00000000000000e+00
1.78918928571429e-01 2.67776849034633e-01 0.00000000000000e+00
1.79556785714286e-01 2.61250392243297e-01 0.00000000000000e+00
1.80194642857143e-01 2.54883003117454e-01 0.00000000000000e+00
1.80832500000000e-01 2.48670804741496e-01 0.00000000000000e+00
1.81470357142857e-01 2.42610014690888e-01 0.00000000000000e+00
1.82108214285714e-01 2.36696942729164e-01 0.00000000000000e+00
1.82746071428571e-01 2.30927988561048e-01 0.00000000000000e+00
1.83383928571429e-01 2.25299639640343e-01 0.00000000000000e+00
1.84021785714286e-01 2.19808469031243e-01 0.00000000000000e+00
1.84659642857143e-01 2.14451133321775e-01 0.00000000000000e+00
1.85297500000000e-01 2.09224370588090e-01 0.00000000000000e+00
1.85935357142857e-01 2.04124998408380e-01 0.00000000000000e+00
1.86573214285714e-01 1.99149911925188e-01 0.00000000000000e+00
1.87211071428571e-01 1.94296081954958e-01 0.00000000000000e+00
1.87848928571429e-01 1.89560553143649e-01 0.00000000000000e+00
1.88486785714286e-01 1.84940442167312e-01 0.00000000000000e+00
1.89124642857143e-01 1.80432935976516e-01 0.00000000000000e+00
1.89762500000000e-01 1.76035290083564e-01 0.00000000000000e+00
1.90400357142857e-01 1.71744826891460e-01 0.00000000000000e+00
1.91038214285714e-01 1.67558934063594e-01 0.00000000000000e+00
1.91676071428571e-01 1.63475062933170e-01 0.00000000000000e+00
1.92313928571429e-01 1.59490726951398e-01 0.00000000000000e+00
1.92951785714286e-01 1.55603500173506e-01 0.00000000000000e+00
1.93589642857143e-01 1.51811015781654e-01 0.00000000000000e+00
1.94227500000000e-01 1.48110964643851e-01 0.00000000000000e+00
1.94865357142857e-01 1.44501093907990e-01 0.00000000000000e+00
1.95503214285714e-01 1.40979205630153e-01 0.00000000000000e+00
1.96141071428571e-01 1.37543155436347e-01 0.00000000000000e+00
1.96778928571429e-01 1.34190851216862e-01 0.00000000000000e+00
1.97416785714286e-01 1.30920251852440e-01 0.00000000000000e+00
1.98054642857143e-01 1.27729365971506e-01 0.00000000000000e+00
1.98692500000000e-01 1.24616250737672e-01 0.00000000000000e+00
1.99330357142857e-01 1.21579010666808e-01 0.00000000000000e+00
1.99968214285714e-01 1.18615796472933e-01 0.00000000000000e+00
2.00606071428571e-01 1.15724803942245e-01 0.00000000000000e+00
2.01243928571429e-01 1.12904272834579e-01 0.00000000000000e+00
