Energy (eV)          EEDF (eV^-(3/2))     First Anisotropy
1.07291666666667e-03 6.86142989041409e+00 3.54852030928828e-03
3.21875000000000e-03 6.81243569826162e+00 5.85839003532879e-03
5.36458333333333e-03 6.76379135010042e+00 7.73049260617636e-03
7.51041666666667e-03 6.71549434803602e+00 9.15076952940893e-03
9.65625000000000e-03 6.66754221179707e+00 1.03336656409239e-02
1.18020833333333e-02 6.61993247867520e+00 1.13602908186417e-02
1.39479166666667e-02 6.57266270406616e+00 1.22726347617702e-02
1.60937500000000e-02 6.52573046041573e+00 1.30960628213422e-02
1.82395833333333e-02 6.47913333731432e+00 1.38474035656283e-02
2.03854166666667e-02 6.43286894209408e+00 1.45385551853318e-02
2.25312500000000e-02 6.38693489887372e+00 1.51783284009967e-02
2.46770833333333e-02 6.34132884858362e+00 1.57734819717369e-02
2.68229166666667e-02 6.29604844936942e+00 1.63293472042076e-02
2.89687500000000e-02 6.25109137589572e+00 1.68502256560494e-02
3.11145833333333e-02 6.20645531930773e+00 1.73396535956216e-02
3.32604166666667e-02 6.16213798751887e+00 1.78005844249119e-02
3.54062500000000e-02 6.11813710465714e+00 1.82355182637400e-02
3.75520833333333e-02 6.07445041099964e+00 1.86465962706769e-02
3.96979166666667e-02 6.03107566318460e+00 1.90356709650009e-02
4.18437500000000e-02 5.98801063374866e+00 1.94043595962329e-02
4.39895833333333e-02 5.94525311104775e+00 1.97540852443100e-02
4.61354166666667e-02 5.90280089941690e+00 2.00861090858214e-02
4.82812500000000e-02 5.86065181877045e+00 2.04015559990325e-02
5.04270833333333e-02 5.81880370451585e+00 2.07014350473935e-02
5.25729166666667e-02 5.77725440767535e+00 2.09866561766093e-02
5.47187500000000e-02 5.73600179453261e+00 2.12580438985247e-02
5.68645833333333e-02 5.69504374654288e+00 2.15163485339980e-02
5.90104166666667e-02 5.65437816042568e+00 2.17622556515476e-02
6.11562500000000e-02 5.61400294784745e+00 2.19963939937996e-02
6.33020833333333e-02 5.57391603532971e+00 2.22193421138185e-02
6.54479166666667e-02 5.53411536431949e+00 2.24316340852639e-02
6.75937500000000e-02 5.49459889090050e+00 2.26337643904443e-02
6.97395833333333e-02 5.45536458570057e+00 2.28261920660305e-02
7.18854166666667e-02 5.41641043394439e+00 2.30093443487485e-02
7.40312500000000e-02 5.37773443518808e+00 2.31836198447758e-02
7.61770833333333e-02 5.33933460322664e+00 2.33493912397390e-02
7.83229166666667e-02 5.30120896613240e+00 2.35070077307692e-02
8.04687500000000e-02 5.26335556600915e+00 2.36567971679097e-02
8.26145833333333e-02 5.22577245890015e+00 2.37990678923953e-02
8.47604166666667e-02 5.18845771481485e+00 2.39341104194466e-02
8.69062500000000e-02 5.15140941749971e+00 2.40621989358584e-02
8.90520833333333e-02 5.11462566434704e+00 2.41835925858139e-02
9.11979166666667e-02 5.07810456641208e+00 2.42985366718236e-02
9.33437500000000e-02 5.04184424819823e+00 2.44072637332427e-02
9.54895833333333e-02 5.00584284756689e+00 2.45099944690996e-02
9.76354166666667e-02 4.97009851574659e+00 2.46069386182379e-02
9.97812500000000e-02 4.93460941713075e+00 2.46982957712554e-02
1.01927083333333e-01 4.89937372909179e+00 2.47842559860619e-02
1.04072916666667e-01 4.86438964237211e+00 2.48650005104286e-02
1.06218750000000e-01 4.82965536039790e+00 2.49407024559752e-02
1.08364583333333e-01 4.79516909913632e+00 2.50115270960795e-02
1.10510416666667e-01 4.76092908788679e+00 2.50776324922201e-02
1.12656250000000e-01 4.72693356828775e+00 2.51391700833948e-02
1.14802083333333e-01 4.69318079426749e+00 2.51962848143416e-02
1.16947916666667e-01 4.65966903276970e+00 2.52491156587961e-02
1.19093750000000e-01 4.62639656283216e+00 2.52977961025838e-02
1.21239583333333e-01 4.59336167553481e+00 2.53424541959107e-02
1.23385416666667e-01 4.56056267466707e+00 2.53832129882935e-02
1.25531250000000e-01 4.52799787587049e+00 2.54201909319563e-02
1.27677083333333e-01 4.49566560658471e+00 2.54535018802775e-02
1.29822916666667e-01 4.46356420666298e+00 2.54832554555488e-02
1.31968750000000e-01 4.43169202757200e+00 2.55095573914655e-02
1.34114583333333e-01 4.40004743233628e+00 2.55325094931534e-02
1.36260416666667e-01 4.36862879610739e+00 2.55522099529106e-02
1.38406250000000e-01 4.33743450541510e+00 2.55687536453037e-02
1.40552083333333e-01 4.30646295811069e+00 2.55822320597259e-02
1.42697916666667e-01 4.27571256389454e+00 2.55927335751622e-02
1.44843750000000e-01 4.24518174361369e+00 2.56003437178164e-02
1.46989583333333e-01 4.21486892920436e+00 2.56051450740753e-02
1.49135416666667e-01 4.18477256418204e+00 2.56072175324938e-02
1.51281250000000e-01 4.15489110298104e+00 2.56066385113355e-02
1.53427083333333e-01 4.12522301089669e+00 2.56034828576811e-02
1.55572916666667e-01 4.09576676454127e+00 2.55978230628145e-02
1.57718750000000e-01 4.06652085122200e+00 2.55897294652688e-02
1.59864583333333e-01 4.03748376888295e+00 2.55792701403030e-02
1.62010416666667e-01 4.00865402653009e+00 2.55665110934120e-02
1.64156250000000e-01 3.98003014364433e+00 2.55515164431648e-02
1.66302083333333e-01 3.95161065012338e+00 2.55343483041847e-02
1.68447916666667e-01 3.92339408667861e+00 2.55150669624447e-02
1.70593750000000e-01 3.89537900428030e+00 2.54937310412376e-02
1.72739583333333e-01 3.86756396409956e+00 2.54703973800072e-02
1.74885416666667e-01 3.83994753787945e+00 2.54451211942902e-02
1.77031250000000e-01 3.81252830740982e+00 2.54179562274502e-02
1.79177083333333e-01 3.78530486446951e+00 2.53889546271194e-02
1.81322916666667e-01 3.75827581117380e+00 2.53581670920743e-02
1.83468750000000e-01 3.73143975947657e+00 2.53256430118179e-02
1.85614583333333e-01 3.70479533111292e+00 2.52914303419589e-02
1.87760416666667e-01 3.67834115792483e+00 2.52555757398586e-02
1.89906250000000e-01 3.65207588138868e+00 2.52181246937385e-02
1.92052083333333e-01 3.62599815255822e+00 2.51791213980029e-02
1.94197916666667e-01 3.60010663237035e+00 2.51386088791437e-02
1.96343750000000e-01 3.57439999119595e+00 2.50966291157395e-02
1.98489583333333e-01 3.54887690878353e+00 2.50532229144851e-02
2.00635416666667e-01 3.52353607454641e+00 2.50084300275608e-02
2.02781250000000e-01 3.49837618713547e+00 2.49622892646508e-02
2.04927083333333e-01 3.47339595438328e+00 2.49148383702511e-02
2.07072916666667e-01 3.44859409357429e+00 2.48661141335118e-02
2.09218750000000e-01 3.42396933103782e+00 2.48161524931984e-02
2.11364583333333e-01 3.39952040209294e+00 2.47649884167101e-02
2.13510416666667e-01 3.37524605130272e+00 2.47126560032355e-02
2.15656250000000e-01 3.35114503208625e+00 2.46591885824317e-02
2.17802083333333e-01 3.32721610666416e+00 2.46046185954682e-02
2.19947916666667e-01 3.30345804629826e+00 2.45489776922021e-02
2.22093750000000e-01 3.27986963092121e+00 2.44922968242307e-02
2.24239583333333e-01 3.25644964908282e+00 2.44346061281954e-02
2.26385416666667e-01 3.23319689817599e+00 2.43759350175706e-02
2.28531250000000e-01 3.21011018408306e+00 2.43163122706434e-02
2.30677083333333e-01 3.18718832112279e+00 2.42557659162451e-02
2.32822916666667e-01 3.16443013226361e+00 2.41943233206631e-02
2.34968750000000e-01 3.14183444878559e+00 2.41320112710265e-02
2.37114583333333e-01 3.11940011022818e+00 2.40688558635742e-02
2.39260416666667e-01 3.09712596459160e+00 2.40048825861310e-02
2.41406250000000e-01 3.07501086801343e+00 2.39401163973071e-02
2.43552083333333e-01 3.05305368471722e+00 2.38745816173755e-02
2.45697916666667e-01 3.03125328720273e+00 2.38083020066936e-02
2.47843750000000e-01 3.00960855593640e+00 2.37413008410648e-02
2.49989583333333e-01 2.98811837930067e+00 2.36736008052748e-02
2.52135416666667e-01 2.96678165377396e+00 2.36052240677861e-02
2.54281250000000e-01 2.94559728363409e+00 2.35361923525738e-02
2.56427083333333e-01 2.92456418090842e+00 2.34665268353335e-02
2.58572916666667e-01 2.90368126554418e+00 2.33962482147373e-02
2.60718750000000e-01 2.88294746512410e+00 2.33253767810173e-02
2.62864583333333e-01 2.86236171481744e+00 2.32539323148421e-02
2.65010416666667e-01 2.84192295754119e+00 2.31819341553932e-02
2.67156250000000e-01 2.82163014368736e+00 2.31094012659315e-02
2.69302083333333e-01 2.80148223107475e+00 2.30363521353278e-02
2.71447916666667e-01 2.78147818510172e+00 2.29628048431832e-02
2.73593750000000e-01 2.76161697848439e+00 2.28887771225892e-02
2.75739583333333e-01 2.74189759120928e+00 2.28142862642858e-02
2.77885416666667e-01 2.72231901067805e+00 2.27393491790285e-02
2.80031250000000e-01 2.70288023145614e+00 2.26639824577314e-02
2.82177083333333e-01 2.68358025522620e+00 2.25882022782127e-02
2.84322916666667e-01 2.66441809092531e+00 2.25120244649913e-02
2.86468750000000e-01 2.64539275450352e+00 2.24354645469792e-02
2.88614583333333e-01 2.62650326887802e+00 2.23585376667718e-02
2.90760416666667e-01 2.60774866406341e+00 2.22812586380320e-02
2.92906250000000e-01 2.58912797693948e+00 2.22036420008906e-02
2.95052083333333e-01 2.57064025120629e+00 2.21257019337295e-02
2.97197916666667e-01 2.55228453750772e+00 2.20474523083018e-02
2.99343750000000e-01 2.53405989320815e+00 2.19689067429733e-02
3.01489583333333e-01 2.51596538234839e+00 2.18900785169473e-02
3.03635416666667e-01 2.49800007576290e+00 2.18109806232527e-02
3.05781250000000e-01 2.48016305086501e+00 2.17316258199523e-02
3.07927083333333e-01 2.46245339160353e+00 2.16520265467540e-02
3.10072916666667e-01 2.44487018857419e+00 2.15721949759887e-02
3.12218750000000e-01 2.42741253881279e+00 2.14921430618973e-02
3.14364583333333e-01 2.41007954575270e+00 2.14118824595705e-02
3.16510416666667e-01 2.39287031933066e+00 2.13314245740273e-02
3.18656250000000e-01 2.37578397578762e+00 2.12507806076827e-02
3.20802083333333e-01 2.35881963762698e+00 2.11699614815617e-02
3.22947916666667e-01 2.34197643371522e+00 2.10889778825771e-02
3.25093750000000e-01 2.32525349908994e+00 2.10078403092747e-02
3.27239583333333e-01 2.30864997491896e+00 2.09265589952598e-02
3.29385416666667e-01 2.29216500859590e+00 2.08451439547661e-02
3.31531250000000e-01 2.27579775355527e+00 2.07636050267718e-02
3.33677083333333e-01 2.25954736923221e+00 2.06819518005760e-02
3.35822916666667e-01 2.24341302115355e+00 2.06001936597465e-02
3.37968750000000e-01 2.22739388075936e+00 2.05183398246828e-02
3.40114583333333e-01 2.21148912536359e+00 2.04363992802870e-02
3.42260416666667e-01 2.19569793824061e+00 2.03543808183704e-02
3.44406250000000e-01 2.18001950845312e+00 2.02722930787380e-02
3.46552083333333e-01 2.16445303081355e+00 2.01901444788944e-02
3.48697916666667e-01 2.14899770596637e+00 2.01079432549834e-02
3.50843750000000e-01 2.13365274022213e+00 2.00256975014637e-02
3.52989583333333e-01 2.11841734551949e+00 1.99434151027926e-02
3.55135416666667e-01 2.10329073950365e+00 1.98611037729657e-02
3.57281250000000e-01 2.08827214536613e+00 1.97787710938509e-02
3.59427083333333e-01 2.07336079180755e+00 1.96964244487913e-02
3.61572916666667e-01 2.05855591311229e+00 1.96140710608092e-02
3.63718750000000e-01 2.04385674899378e+00 1.95317180296576e-02
3.65864583333333e-01 2.02926254455807e+00 1.94493722672884e-02
3.68010416666667e-01 2.01477255037484e+00 1.93670405347800e-02
3.70156250000000e-01 2.00038602232807e+00 1.92847294781618e-02
3.72302083333333e-01 1.98610222158022e+00 1.92024455656959e-02
3.74447916666667e-01 1.97192041463997e+00 1.91201951235819e-02
3.76593750000000e-01 1.95783987321789e+00 1.90379843706084e-02
3.78739583333333e-01 1.94385987419135e+00 1.89558193571918e-02
3.80885416666667e-01 1.92997969966905e+00 1.88737059999137e-02
3.83031250000000e-01 1.91619863685152e+00 1.87916501150483e-02
3.85177083333333e-01 1.90251597799677e+00 1.87096573593075e-02
3.87322916666667e-01 1.88893102048174e+00 1.86277332632587e-02
3.89468750000000e-01 1.87544306666748e+00 1.85458832637743e-02
3.91614583333333e-01 1.86205142386549e+00 1.84641126464331e-02
3.93760416666667e-01 1.84875540439623e+00 1.83824265778651e-02
3.95906250000000e-01 1.83555432545884e+00 1.83008301371669e-02
3.98052083333333e-01 1.82244750909807e+00 1.82193282599123e-02
4.00197916666667e-01 1.80943428226014e+00 1.81379257694638e-02
4.02343750000000e-01 1.79651397666664e+00 1.80566274073985e-02
4.04489583333333e-01 1.78368592878222e+00 1.79754377790758e-02
4.06635416666667e-01 1.77094947986778e+00 1.78943613839606e-02
4.08781250000000e-01 1.75830397585852e+00 1.78134026450980e-02
4.10927083333333e-01 1.74574876733225e+00 1.77325658561933e-02
4.13072916666667e-01 1.73328320956011e+00 1.76518552109849e-02
4.15218750000000e-01 1.72090666238862e+00 1.75712748317994e-02
4.17364583333333e-01 1.70861849020853e+00 1.74908287181045e-02
4.19510416666667e-01 1.69641806200328e+00 1.74105207749682e-02
4.21656250000000e-01 1.68430475123480e+00 1.73303548407311e-02
4.23802083333333e-01 1.67227793581300e+00 1.72503346369831e-02
4.25947916666667e-01 1.66033699814200e+00 1.71704637961452e-02
4.28093750000000e-01 1.64848132500953e+00 1.70907458882949e-02
4.30239583333333e-01 1.63671030755713e+00 1.70111843725232e-02
4.32385416666667e-01 1.62502334132414e+00 1.69317826236709e-02
4.34531250000000e-01 1.61341982614069e+00 1.68525439583394e-02
4.36677083333333e-01 1.60189916609849e+00 1.67734715875865e-02
4.38822916666667e-01 1.59046076959276e+00 1.66945686428516e-02
4.40968750000000e-01 1.57910404921865e+00 1.66158382011771e-02
4.43114583333333e-01 1.56782842174254e+00 1.65372832392079e-02
4.45260416666667e-01 1.55663330814215e+00 1.64589066583298e-02
4.47406250000000e-01 1.54551813350611e+00 1.63807113091326e-02
4.49552083333333e-01 1.53448232700595e+00 1.63026999466776e-02
4.51697916666667e-01 1.52352532193422e+00 1.62248752548755e-02
4.53843750000000e-01 1.51264655560737e+00 1.61472398702187e-02
4.55989583333333e-01 1.50184546933813e+00 1.60697963382761e-02
4.58135416666667e-01 1.49112150847206e+00 1.59925471373411e-02
4.60281250000000e-01 1.48047412229329e+00 1.59154947014591e-02
4.62427083333333e-01 1.46990276399757e+00 1.58386413781118e-02
4.64572916666667e-01 1.45940689072708e+00 1.57619894511629e-02
4.66718750000000e-01 1.44898596347912e+00 1.56855411632046e-02
4.68864583333333e-01 1.43863944707967e+00 1.56092986743941e-02
4.71010416666667e-01 1.42836681021666e+00 1.55332640847234e-02
4.73156250000000e-01 1.41816752535142e+00 1.54574394557105e-02
4.75302083333333e-01 1.40804106869283e+00 1.53818267703549e-02
4.77447916666667e-01 1.39798692022898e+00 1.53064279547503e-02
4.79593750000000e-01 1.38800456364143e+00 1.52312448991428e-02
4.81739583333333e-01 1.37809348627979e+00 1.51562794189756e-02
4.83885416666667e-01 1.36825317919203e+00 1.50815332758676e-02
4.86031250000000e-01 1.35848313704126e+00 1.50070081980596e-02
4.88177083333333e-01 1.34878285808089e+00 1.49327058425158e-02
4.90322916666667e-01 1.33915184418353e+00 1.48586278152892e-02
4.92468750000000e-01 1.32958960076029e+00 1.47847756913771e-02
4.94614583333333e-01 1.32009563673644e+00 1.47111509778482e-02
4.96760416666667e-01 1.31066946457901e+00 1.46377551336159e-02
4.98906250000000e-01 1.30131060021852e+00 1.45645895887222e-02
5.01052083333333e-01 1.29201856302512e+00 1.44916557084604e-02
5.03197916666667e-01 1.28279287583493e+00 1.44189548125787e-02
5.05343750000000e-01 1.27363306487413e+00 1.43464881940089e-02
5.07489583333333e-01 1.26453865973558e+00 1.42742570839561e-02
5.09635416666667e-01 1.25550919340400e+00 1.42022626705502e-02
5.11781250000000e-01 1.24654420218222e+00 1.41305061170407e-02
5.13927083333333e-01 1.23764322566841e+00 1.40589885278224e-02
5.16072916666667e-01 1.22880580677999e+00 1.39877109665558e-02
5.18218750000000e-01 1.22003149168217e+00 1.39166744738414e-02
5.20364583333333e-01 1.21131982976558e+00 1.38458800341596e-02
5.22510416666667e-01 1.20267037366913e+00 1.37753285934741e-02
5.24656250000000e-01 1.19408267921063e+00 1.37050210764037e-02
5.26802083333333e-01 1.18555630536489e+00 1.36349583540471e-02
5.28947916666667e-01 1.17709081428553e+00 1.35651412610877e-02
5.31093750000000e-01 1.16868577123769e+00 1.34955706124797e-02
5.33239583333333e-01 1.16034074457647e+00 1.34262471721346e-02
5.35385416666667e-01 1.15205530576789e+00 1.33571716695403e-02
5.37531250000000e-01 1.14382902932343e+00 1.32883448159796e-02
5.39677083333333e-01 1.13566149277903e+00 1.32197672740490e-02
5.41822916666667e-01 1.12755227671499e+00 1.31514396738106e-02
5.43968750000000e-01 1.11950096469250e+00 1.30833626285568e-02
5.46114583333333e-01 1.11150714323304e+00 1.30155367051398e-02
5.48260416666667e-01 1.10357040183738e+00 1.29479624396704e-02
5.50406250000000e-01 1.09569033292393e+00 1.28806403528416e-02
5.52552083333333e-01 1.08786653180858e+00 1.28135709210474e-02
5.54697916666667e-01 1.08009859672285e+00 1.27467545916410e-02
5.56843750000000e-01 1.07238612875399e+00 1.26801917978321e-02
5.58989583333333e-01 1.06472873182525e+00 1.26138829305717e-02
5.61135416666667e-01 1.05712601271321e+00 1.25478283533850e-02
5.63281250000000e-01 1.04957758098958e+00 1.24820284168560e-02
5.65427083333333e-01 1.04208304900190e+00 1.24164834312548e-02
5.67572916666667e-01 1.03464203189006e+00 1.23511936809591e-02
5.69718750000000e-01 1.02725414752978e+00 1.22861594385389e-02
5.71864583333333e-01 1.01991901651371e+00 1.22213809381048e-02
5.74010416666667e-01 1.01263626216717e+00 1.21568583893305e-02
5.76156250000000e-01 1.00540551049329e+00 1.20925919911494e-02
5.78302083333333e-01 9.98226390154436e-01 1.20285819058084e-02
5.80447916666667e-01 9.91098532487289e-01 1.19648282724997e-02
5.82593750000000e-01 9.84021571449504e-01 1.19013312206810e-02
5.84739583333333e-01 9.76995143601541e-01 1.18380908448119e-02
5.86885416666667e-01 9.70018888121050e-01 1.17751072176127e-02
5.89031250000000e-01 9.63092446751029e-01 1.17123804030184e-02
5.91177083333333e-01 9.56215463782042e-01 1.16499104315791e-02
5.93322916666667e-01 9.49387586065937e-01 1.15876973133532e-02
5.95468750000000e-01 9.42608462965472e-01 1.15257410505072e-02
5.97614583333333e-01 9.35877746336899e-01 1.14640416133629e-02
5.99760416666667e-01 9.29195090543049e-01 1.14025989529387e-02
6.01906250000000e-01 9.22560152404374e-01 1.13414130132038e-02
6.04052083333333e-01 9.15972591181893e-01 1.12804837077515e-02
6.06197916666667e-01 9.09432068589675e-01 1.12198109319997e-02
6.08343750000000e-01 9.02938248747251e-01 1.11593945751135e-02
6.10489583333333e-01 8.96490798162908e-01 1.10992344972858e-02
6.12635416666667e-01 8.90089385745606e-01 1.10393305416060e-02
6.14781250000000e-01 8.83733682758708e-01 1.09796825456602e-02
6.16927083333333e-01 8.77423362803626e-01 1.09202903194035e-02
6.19072916666667e-01 8.71158101831185e-01 1.08611536567067e-02
6.21218750000000e-01 8.64937578096639e-01 1.08022723466426e-02
6.23364583333333e-01 8.58761472143658e-01 1.07436461519360e-02
6.25510416666667e-01 8.52629466815163e-01 1.06852748201973e-02
6.27656250000000e-01 8.46541247209589e-01 1.06271580949033e-02
6.29802083333333e-01 8.40496500665203e-01 1.05692956944073e-02
6.31947916666667e-01 8.34494916770440e-01 1.05116873228693e-02
6.34093750000000e-01 8.28536187321367e-01 1.04543326809428e-02
6.36239583333333e-01 8.22620006306333e-01 1.03972314453299e-02
6.38385416666667e-01 8.16746069915819e-01 1.03403832794154e-02
6.40531250000000e-01 8.10914076501072e-01 1.02837878436669e-02
6.42677083333333e-01 8.05123726559078e-01 1.02274447757199e-02
6.44822916666667e-01 7.99374722741949e-01 1.01713537007265e-02
6.46968750000000e-01 7.93666769816692e-01 1.01155142414773e-02
6.49114583333333e-01 7.87999574650494e-01 1.00599259990006e-02
6.51260416666667e-01 7.82372846219669e-01 1.00045885626345e-02
6.53406250000000e-01 7.76786295570528e-01 9.94950151987869e-03
6.55552083333333e-01 7.71239635804966e-01 9.89466443749290e-03
6.57697916666667e-01 7.65732582088995e-01 9.84007687130162e-03
6.59843750000000e-01 7.60264851614673e-01 9.78573837578317e-03
6.61989583333333e-01 7.54836163585998e-01 9.73164848565393e-03
6.64135416666667e-01 7.49446239227031e-01 9.67780672541226e-03
6.66281250000000e-01 7.44094801744867e-01 9.62421261867261e-03
6.68427083333333e-01 7.38781576315816e-01 9.57086567022485e-03
6.70572916666667e-01 7.33506290093144e-01 9.51776537532292e-03
6.72718750000000e-01 7.28268672171046e-01 9.46491122877059e-03
6.74864583333333e-01 7.23068453571118e-01 9.41230270744313e-03
6.77010416666667e-01 7.17905367249726e-01 9.35993927932893e-03
