Energy (eV)          EEDF (eV^-(3/2))     First Anisotropy
8.57142857142857e-03 4.90954207079874e-01 3.09091414709322e-04
2.57142857142857e-02 4.86129312276465e-01 5.09602975591008e-04
4.28571428571429e-02 4.81351834532728e-01 6.70631391707207e-04
6.00000000000000e-02 4.76621307868846e-01 7.91694018380957e-04
7.71428571428572e-02 4.71937270859283e-01 8.91614634128660e-04
9.42857142857143e-02 4.67299266630416e-01 9.77541646528782e-04
1.11428571428571e-01 4.62706842780272e-01 1.05318985362908e-03
1.28571428571429e-01 4.58159551378732e-01 1.12081166641730e-03
1.45714285714286e-01 4.53656948879809e-01 1.18190692951051e-03
1.62857142857143e-01 4.49198596098521e-01 1.23753991624123e-03
1.80000000000000e-01 4.44784058166275e-01 1.28850155982541e-03
1.97142857142857e-01 4.40412904465745e-01 1.33540074550408e-03
2.14285714285714e-01 4.36084708659347e-01 1.37871944498331e-03
2.31428571428571e-01 4.31799048573932e-01 1.41884787854871e-03
2.48571428571429e-01 4.27555506185464e-01 1.45610793156485e-03
2.65714285714286e-01 4.23353667577964e-01 1.49076932721972e-03
2.82857142857143e-01 4.19193122903627e-01 1.52306112986272e-03
3.00000000000000e-01 4.15073466342516e-01 1.55318013944899e-03
3.17142857142857e-01 4.10994296050055e-01 1.58129714684902e-03
3.34285714285714e-01 4.06955214157613e-01 1.60756169339112e-03
3.51428571428571e-01 4.02955826692721e-01 1.63210574957177e-03
3.68571428571429e-01 3.98995743554748e-01 1.65504659451039e-03
3.85714285714286e-01 3.95074578476741e-01 1.67648910863435e-03
4.02857142857143e-01 3.91191948987965e-01 1.69652761638132e-03
4.20000000000000e-01 3.87347476376466e-01 1.71524738498315e-03
4.37142857142857e-01 3.83540785643452e-01 1.73272585087405e-03
4.54285714285714e-01 3.79771505493316e-01 1.74903363966058e-03
4.71428571428571e-01 3.76039268270198e-01 1.76423541791554e-03
4.88571428571429e-01 3.72343709931422e-01 1.77839060491781e-03
5.05714285714286e-01 3.68684470011932e-01 1.79155397898382e-03
5.22857142857143e-01 3.65061191589247e-01 1.80377619338154e-03
5.40000000000000e-01 3.61473521248579e-01 1.81510421945962e-03
5.57142857142857e-01 3.57921109042031e-01 1.82558172556309e-03
5.74285714285714e-01 3.54403608473809e-01 1.83524940910908e-03
5.91428571428571e-01 3.50920676446699e-01 1.84414528594134e-03
6.08571428571429e-01 3.47471973235311e-01 1.85230493951458e-03
6.25714285714286e-01 3.44057162452911e-01 1.85976174279247e-03
6.42857142857143e-01 3.40675911018674e-01 1.86654705320866e-03
6.60000000000000e-01 3.37327889125162e-01 1.87269038593342e-03
6.77142857142857e-01 3.34012770201303e-01 1.87821956516545e-03
6.94285714285714e-01 3.30730230895323e-01 1.88316086218584e-03
7.11428571428571e-01 3.27479951028168e-01 1.88753911896029e-03
7.28571428571429e-01 3.24261613567373e-01 1.89137785567649e-03
7.45714285714286e-01 3.21074904596120e-01 1.89469937006851e-03
7.62857142857143e-01 3.17919513282663e-01 1.89752482637744e-03
7.80000000000000e-01 3.14795131849984e-01 1.89987433638809e-03
7.97142857142857e-01 3.11701455541933e-01 1.90176703062574e-03
8.14285714285714e-01 3.08638182605194e-01 1.90322112582904e-03
8.31428571428572e-01 3.05605014247977e-01 1.90425398651928e-03
8.48571428571429e-01 3.02601654614897e-01 1.90488217832576e-03
8.65714285714286e-01 2.99627810758101e-01 1.90512151901478e-03
8.82857142857143e-01 2.96683192608725e-01 1.90498712471062e-03
9.00000000000000e-01 2.93767512948582e-01 1.90449345284778e-03
9.17142857142857e-01 2.90880487379040e-01 1.90365433970604e-03
9.34285714285714e-01 2.88021834302739e-01 1.90248303742942e-03
9.51428571428572e-01 2.85191274886528e-01 1.90099224828873e-03
9.68571428571429e-01 2.82388533037515e-01 1.89919415385195e-03
9.85714285714286e-01 2.79613335376126e-01 1.89710044397334e-03
1.00285714285714e+00 2.76865411209461e-01 1.89472234275708e-03
1.02000000000000e+00 2.74144492507482e-01 1.89207063574574e-03
1.03714285714286e+00 2.71450313861266e-01 1.88915568915954e-03
1.05428571428571e+00 2.68782612480906e-01 1.88598746599180e-03
1.07142857142857e+00 2.66141128183655e-01 1.88257556283367e-03
1.08857142857143e+00 2.63525603294261e-01 1.87892921796887e-03
1.10571428571429e+00 2.60935782694591e-01 1.87505731582080e-03
1.12285714285714e+00 2.58371413796461e-01 1.87096842854484e-03
1.14000000000000e+00 2.55832246448379e-01 1.86667081872289e-03
1.15714285714286e+00 2.53318032980182e-01 1.86217244529048e-03
1.17428571428571e+00 2.50828528155699e-01 1.85748098563324e-03
1.19142857142857e+00 2.48363489169420e-01 1.85260385539597e-03
1.20857142857143e+00 2.45922675560593e-01 1.84754821276069e-03
1.22571428571429e+00 2.43505849252382e-01 1.84232095823673e-03
1.24285714285714e+00 2.41112774526826e-01 1.83692876766228e-03
1.26000000000000e+00 2.38743217944079e-01 1.83137809107365e-03
1.27714285714286e+00 2.36396948377759e-01 1.82567515471968e-03
1.29428571428571e+00 2.34073736972895e-01 1.81982597765473e-03
1.31142857142857e+00 2.31773357141032e-01 1.81383638656732e-03
1.32857142857143e+00 2.29495584485456e-01 1.80771201700998e-03
1.34571428571429e+00 2.27240196832319e-01 1.80145831083348e-03
1.36285714285714e+00 2.25006974207482e-01 1.79508054333892e-03
1.38000000000000e+00 2.22795698765960e-01 1.78858382021862e-03
1.39714285714286e+00 2.20606154820074e-01 1.78197307744571e-03
1.41428571428571e+00 2.18438128801835e-01 1.77525309427902e-03
1.43142857142857e+00 2.16291409256988e-01 1.76842850484427e-03
1.44857142857143e+00 2.14165786779414e-01 1.76150379768619e-03
1.46571428571429e+00 2.12061054035973e-01 1.75448331203858e-03
1.48285714285714e+00 2.09977005745050e-01 1.74737126073698e-03
1.50000000000000e+00 2.07913438614469e-01 1.74017172622566e-03
1.51714285714286e+00 2.05870151363993e-01 1.73288865928453e-03
1.53428571428571e+00 2.03846944691480e-01 1.72552588955639e-03
1.55142857142857e+00 2.01843621266249e-01 1.71808713488964e-03
1.56857142857143e+00 1.99859985671140e-01 1.71057599996609e-03
1.58571428571429e+00 1.97895844422396e-01 1.70299597204950e-03
1.60285714285714e+00 1.95951005949763e-01 1.69535044067311e-03
1.62000000000000e+00 1.94025280541520e-01 1.68764269325410e-03
1.63714285714286e+00 1.92118480362489e-01 1.67987591319731e-03
1.65428571428571e+00 1.90230419423457e-01 1.67205318862878e-03
1.67142857142857e+00 1.88360913574112e-01 1.66417752012181e-03
1.68857142857143e+00 1.86509780451605e-01 1.65625181883078e-03
1.70571428571429e+00 1.84676839496454e-01 1.64827890207408e-03
1.72285714285714e+00 1.82861911934077e-01 1.64026151047451e-03
1.74000000000000e+00 1.81064820725867e-01 1.63220230348242e-03
1.75714285714286e+00 1.79285390583610e-01 1.62410385716839e-03
1.77428571428571e+00 1.77523447941748e-01 1.61596867160590e-03
1.79142857142857e+00 1.75778820950093e-01 1.60779917738433e-03
1.80857142857143e+00 1.74051339427936e-01 1.59959773350098e-03
1.82571428571429e+00 1.72340834876762e-01 1.59136662297754e-03
1.84285714285714e+00 1.70647140463086e-01 1.58310806793040e-03
1.86000000000000e+00 1.68970090974734e-01 1.57482422517061e-03
1.87714285714286e+00 1.67309522832346e-01 1.56651718386963e-03
1.89428571428571e+00 1.65665274064150e-01 1.55818897189189e-03
1.91142857142857e+00 1.64037184298593e-01 1.54984156136740e-03
1.92857142857143e+00 1.62425094723235e-01 1.54147686649256e-03
1.94571428571429e+00 1.60828848094882e-01 1.53309673929095e-03
1.96285714285714e+00 1.59248288723630e-01 1.52470298296315e-03
1.98000000000000e+00 1.57683262433636e-01 1.51629734765594e-03
1.99714285714286e+00 1.56133616572272e-01 1.50788152811150e-03
2.01428571428571e+00 1.54599199987118e-01 1.49945716916098e-03
2.03142857142857e+00 1.53079863018608e-01 1.49102587054888e-03
2.04857142857143e+00 1.51575457463094e-01 1.48258918473341e-03
2.06571428571429e+00 1.50085836580877e-01 1.47414861285011e-03
2.08285714285714e+00 1.48610855081356e-01 1.46570561660727e-03
2.10000000000000e+00 1.47150369087727e-01 1.45726161427297e-03
2.11714285714286e+00 1.45704236144216e-01 1.44881797837259e-03
2.13428571428571e+00 1.44272315195041e-01 1.44037604049792e-03
2.15142857142857e+00 1.42854466577174e-01 1.43193709552288e-03
2.16857142857143e+00 1.41450551987033e-01 1.42350239945720e-03
2.18571428571429e+00 1.40060434486801e-01 1.41507316564193e-03
2.20285714285714e+00 1.38683978490607e-01 1.40665057539833e-03
2.22000000000000e+00 1.37321049732660e-01 1.39823577425452e-03
2.23714285714286e+00 1.35971515272910e-01 1.38982986972962e-03
2.25428571428571e+00 1.34635243477787e-01 1.38143393557414e-03
2.27142857142857e+00 1.33312104013114e-01 1.37304901548167e-03
2.28857142857143e+00 1.32001967814010e-01 1.36467612102726e-03
2.30571428571429e+00 1.30704707089799e-01 1.35631622810540e-03
2.32285714285714e+00 1.29420195311141e-01 1.34797028649899e-03
2.34000000000000e+00 1.28148307181206e-01 1.33963921635191e-03
2.35714285714286e+00 1.26888918640042e-01 1.33132390606095e-03
2.37428571428571e+00 1.25641906846904e-01 1.32302521603695e-03
2.39142857142857e+00 1.24407150173377e-01 1.31474398199232e-03
2.40857142857143e+00 1.23184528176101e-01 1.30648101298194e-03
2.42571428571429e+00 1.21973921600533e-01 1.29823708808270e-03
2.44285714285714e+00 1.20775212368958e-01 1.29001296501909e-03
2.46000000000000e+00 1.19588283554351e-01 1.28180937687902e-03
2.47714285714286e+00 1.18413019383685e-01 1.27362703012377e-03
2.49428571428571e+00 1.17249305221706e-01 1.26546660794002e-03
2.51142857142857e+00 1.16097027564273e-01 1.25732877316643e-03
2.52857142857143e+00 1.14956074013608e-01 1.24921416644539e-03
2.54571428571429e+00 1.13826333281106e-01 1.24112340313751e-03
2.56285714285714e+00 1.12707695176165e-01 1.23305708111683e-03
2.58000000000000e+00 1.11600050582443e-01 1.22501577772165e-03
2.59714285714286e+00 1.10503291460293e-01 1.21700004788622e-03
2.61428571428571e+00 1.09417310831838e-01 1.20901042714022e-03
2.63142857142857e+00 1.08342002774567e-01 1.20104743422490e-03
2.64857142857143e+00 1.07277262398821e-01 1.19311156935812e-03
2.66571428571429e+00 1.06222985849825e-01 1.18520331137339e-03
2.68285714285714e+00 1.05179070297284e-01 1.17732312478050e-03
2.70000000000000e+00 1.04145413913768e-01 1.16947145693984e-03
2.71714285714286e+00 1.03121915876436e-01 1.16164873631519e-03
2.73428571428571e+00 1.02108476353295e-01 1.15385537516675e-03
2.75142857142857e+00 1.01104996497057e-01 1.14609177189800e-03
2.76857142857143e+00 1.00111378424627e-01 1.13835830943318e-03
2.78571428571429e+00 9.91275252184977e-02 1.13065535256862e-03
2.80285714285714e+00 9.81533409170541e-02 1.12298325437990e-03
2.82000000000000e+00 9.71887304948675e-02 1.11534235360688e-03
2.83714285714286e+00 9.62335998638402e-02 1.10773297302444e-03
2.85428571428571e+00 9.52878558605328e-02 1.10015542186741e-03
2.87142857142857e+00 9.43514062402940e-02 1.09260999794194e-03
2.88857142857143e+00 9.34241596585461e-02 1.08509698611228e-03
2.90571428571429e+00 9.25060256716550e-02 1.07761665585112e-03
2.92285714285714e+00 9.15969147278968e-02 1.07016926706341e-03
2.94000000000000e+00 9.06967381494641e-02 1.06275506766884e-03
2.95714285714286e+00 8.98054081331343e-02 1.05537429208551e-03
2.97428571428571e+00 8.89228377385783e-02 1.04802716341878e-03
2.99142857142857e+00 8.80489408827610e-02 1.04071389536577e-03
3.00857142857143e+00 8.71836323228426e-02 1.03343469080666e-03
3.02571428571429e+00 8.63268276566227e-02 1.02618973954096e-03
3.04285714285714e+00 8.54784433141199e-02 1.01897922358874e-03
3.06000000000000e+00 8.46383965411225e-02 1.01180331495677e-03
3.07714285714286e+00 8.38066053994677e-02 1.00466217422973e-03
3.09428571428571e+00 8.29829887562469e-02 9.97555952550107e-04
3.11142857142857e+00 8.21674662784757e-02 9.90484793339776e-04
3.12857142857143e+00 8.13599584174528e-02 9.83448830990722e-04
3.14571428571429e+00 8.05603864088573e-02 9.76448188773850e-04
3.16285714285714e+00 7.97686722648988e-02 9.69482983670865e-04
3.18000000000000e+00 7.89847387592624e-02 9.62553324311096e-04
3.19714285714286e+00 7.82085094270726e-02 9.55659309663903e-04
3.21428571428571e+00 7.74399085549183e-02 9.48801030832898e-04
3.23142857142857e+00 7.66788611757898e-02 9.41978572615195e-04
3.24857142857143e+00 7.59252930547541e-02 9.35192012285830e-04
3.26571428571429e+00 7.51791306887719e-02 9.28441417666807e-04
3.28285714285714e+00 7.44403012993793e-02 9.21726851535828e-04
3.30000000000000e+00 7.37087328188939e-02 9.15048369721315e-04
3.31714285714286e+00 7.29843538901235e-02 9.08406019889932e-04
3.33428571428571e+00 7.22670938571446e-02 9.01799843175116e-04
3.35142857142857e+00 7.15568827604991e-02 8.95229875591655e-04
3.36857142857143e+00 7.08536513240622e-02 8.88696146908016e-04
3.38571428571429e+00 7.01573309546342e-02 8.82198678863503e-04
3.40285714285714e+00 6.94678537351177e-02 8.75737489195193e-04
3.42000000000000e+00 6.87851524118659e-02 8.69312589879416e-04
3.43714285714286e+00 6.81091603941887e-02 8.62923986007882e-04
3.45428571428571e+00 6.74398117458211e-02 8.56571677267964e-04
3.47142857142857e+00 6.67770411803736e-02 8.50255659228104e-04
3.48857142857143e+00 6.61207840492817e-02 8.43975922292163e-04
3.50571428571429e+00 6.54709763412192e-02 8.37732450053518e-04
3.52285714285714e+00 6.48275546757363e-02 8.31525222976749e-04
3.54000000000000e+00 6.41904562916453e-02 8.25354216774110e-04
3.55714285714286e+00 6.35596190463661e-02 8.19219401364516e-04
3.57428571428571e+00 6.29349814080299e-02 8.13120742220838e-04
3.59142857142857e+00 6.23164824511740e-02 8.07058201539158e-04
3.60857142857143e+00 6.17040618456745e-02 8.01031737269875e-04
3.62571428571429e+00 6.10976598560199e-02 7.95041301598220e-04
3.64285714285714e+00 6.04972173353780e-02 7.89086844312970e-04
3.66000000000000e+00 5.99026757149258e-02 7.83168311307649e-04
3.67714285714286e+00 5.93139770030694e-02 7.77285643616479e-04
3.69428571428571e+00 5.87310637781323e-02 7.71438778642052e-04
3.71142857142857e+00 5.81538791842859e-02 7.65627651220285e-04
3.72857142857143e+00 5.75823669213773e-02 7.59852192722831e-04
3.74571428571429e+00 5.70164712440943e-02 7.54112329654202e-04
3.76285714285714e+00 5.64561369564334e-02 7.48407986736436e-04
3.78000000000000e+00 5.59013094018886e-02 7.42739085525527e-04
3.79714285714286e+00 5.53519344625756e-02 7.37105543518808e-04
3.81428571428571e+00 5.48079585524584e-02 7.31507275274682e-04
3.83142857142857e+00 5.42693286135065e-02 7.25944193383637e-04
3.84857142857143e+00 5.37359921063381e-02 7.20416207636742e-04
3.86571428571429e+00 5.32078970093045e-02 7.14923223730591e-04
3.88285714285714e+00 5.26849918133301e-02 7.09465146093888e-04
3.90000000000000e+00 5.21672255128853e-02 7.04041876609774e-04
3.91714285714286e+00 5.16545476050406e-02 6.98653313789603e-04
3.93428571428571e+00 5.11469080831881e-02 6.93299353795259e-04
3.95142857142857e+00 5.06442574334167e-02 6.87979891325300e-04
3.96857142857143e+00 5.01465466258990e-02 6.82694818844963e-04
3.98571428571429e+00 4.96537271139168e-02 6.77444025390217e-04
4.00285714285714e+00 4.91657508290495e-02 6.72227399159524e-04
4.02000000000000e+00 4.86825701728616e-02 6.67044826334103e-04
4.03714285714286e+00 4.82041380159072e-02 6.61896190313053e-04
4.05428571428571e+00 4.77304076919089e-02 6.56781372647489e-04
4.07142857142857e+00 4.72613329943403e-02 6.51700253849938e-04
4.08857142857143e+00 4.67968681684930e-02 6.46652712681347e-04
4.10571428571429e+00 4.63369679104620e-02 6.41638625046558e-04
4.12285714285714e+00 4.58815873626579e-02 6.36657866372218e-04
4.14000000000000e+00 4.54306821061484e-02 6.31710310517187e-04
4.15714285714286e+00 4.49842081596300e-02 6.26795829064554e-04
4.17428571428571e+00 4.45421219740292e-02 6.21914292175838e-04
4.19142857142857e+00 4.41043804292826e-02 6.17065569330822e-04
4.20857142857143e+00 4.36709408270258e-02 6.12249528667471e-04
4.22571428571429e+00 4.32417608895545e-02 6.07466035961655e-04
4.24285714285714e+00 4.28167987556376e-02 6.02714956809913e-04
4.26000000000000e+00 4.23960129734586e-02 5.97996155623129e-04
4.27714285714286e+00 4.19793624995675e-02 5.93309494971114e-04
4.29428571428571e+00 4.15668066938722e-02 5.88654836364293e-04
4.31142857142857e+00 4.11583053166072e-02 5.84032040930548e-04
4.32857142857143e+00 4.07538185215915e-02 5.79440968803861e-04
4.34571428571429e+00 4.03533068551777e-02 5.74881478181874e-04
4.36285714285714e+00 3.99567312523468e-02 5.70353427330616e-04
4.38000000000000e+00 3.95640530301975e-02 5.65856673654766e-04
4.39714285714286e+00 3.91752338868914e-02 5.61391073091009e-04
4.41428571428571e+00 3.87902358970043e-02 5.56956480823742e-04
4.43142857142857e+00 3.84090215086742e-02 5.52552751904624e-04
4.44857142857143e+00 3.80315535373809e-02 5.48179740686553e-04
4.46571428571429e+00 3.76577951648930e-02 5.43837299952851e-04
4.48285714285714e+00 3.72877099356259e-02 5.39525282759344e-04
4.50000000000000e+00 3.69212617506332e-02 5.35243541575237e-04
4.51714285714286e+00 3.65584148665543e-02 5.30991927721548e-04
4.53428571428571e+00 3.61991338912994e-02 5.26770292026905e-04
4.55142857142857e+00 3.58433837813666e-02 5.22578485394929e-04
4.56857142857143e+00 3.54911298361005e-02 5.18416358280139e-04
4.58571428571429e+00 3.51423376966461e-02 5.14283759883188e-04
4.60285714285714e+00 3.47969733425512e-02 5.10180539844233e-04
4.62000000000000e+00 3.44550030862192e-02 5.06106547449013e-04
4.63714285714286e+00 3.41163935718667e-02 5.02061631108838e-04
4.65428571428571e+00 3.37811117715171e-02 4.98045638961862e-04
4.67142857142857e+00 3.34491249824783e-02 4.94058419393089e-04
4.68857142857143e+00 3.31204008220406e-02 4.90099820548960e-04
4.70571428571429e+00 3.27949072264443e-02 4.86169689593495e-04
4.72285714285714e+00 3.24726124477106e-02 4.82267874265602e-04
4.74000000000000e+00 3.21534850485176e-02 4.78394222145315e-04
4.75714285714286e+00 3.18374939011742e-02 4.74548580172329e-04
4.77428571428571e+00 3.15246081838995e-02 4.70730795197392e-04
4.79142857142857e+00 3.12147973784522e-02 4.66940714459165e-04
4.80857142857143e+00 3.09080312652329e-02 4.63178185134606e-04
4.82571428571429e+00 3.06042799222698e-02 4.59443053651350e-04
4.84285714285714e+00 3.03035137222631e-02 4.55735167120501e-04
4.86000000000000e+00 3.00057033278503e-02 4.52054372658196e-04
4.87714285714286e+00 2.97108196906012e-02 4.48400516939807e-04
4.89428571428571e+00 2.94188340475614e-02 4.44773446705905e-04
4.91142857142857e+00 2.91297179190261e-02 4.41173009199716e-04
4.92857142857143e+00 2.88434431040128e-02 4.37599051750716e-04
4.94571428571429e+00 2.85599816792713e-02 4.34051421138800e-04
4.96285714285714e+00 2.82793059965259e-02 4.30529964912950e-04
4.98000000000000e+00 2.80013886780991e-02 4.27034530763927e-04
4.99714285714286e+00 2.77262026159313e-02 4.23564966111405e-04
5.01428571428571e+00 2.74537209683698e-02 4.20121118568519e-04
5.03142857142857e+00 2.71839171580781e-02 4.16702836343375e-04
5.04857142857143e+00 2.69167648678500e-02 4.13309967853220e-04
5.06571428571429e+00 2.66522380396466e-02 4.09942361136459e-04
5.08285714285714e+00 2.63903108720235e-02 4.06599865066804e-04
5.10000000000000e+00 2.61309578160838e-02 4.03282328773040e-04
5.11714285714286e+00 2.58741535745265e-02 3.99989601256674e-04
5.13428571428571e+00 2.56198730986616e-02 3.96721531818593e-04
5.15142857142857e+00 2.53680915864483e-02 3.93477970427685e-04
5.16857142857143e+00 2.51187844786232e-02 3.90258767363406e-04
5.18571428571429e+00 2.48719274577669e-02 3.87063772671943e-04
5.20285714285714e+00 2.46274964459031e-02 3.83892837284407e-04
5.22000000000000e+00 2.43854676007561e-02 3.80745812480134e-04
5.23714285714286e+00 2.41458173148281e-02 3.77622549532502e-04
5.25428571428571e+00 2.39085222126266e-02 3.74522900100965e-04
5.27142857142857e+00 2.36735591488217e-02 3.71446716569626e-04
5.28857142857143e+00 2.34409052046649e-02 3.68393851716045e-04
5.30571428571429e+00 2.32105376870864e-02 3.65364158208151e-04
5.32285714285714e+00 2.29824341264560e-02 3.62357489634387e-04
5.34000000000000e+00 2.27565722731187e-02 3.59373700007205e-04
5.35714285714286e+00 2.25329300965057e-02 3.56412643434953e-04
5.37428571428571e+00 2.23114857825553e-02 3.53474174482153e-04
5.39142857142857e+00 2.20922177319854e-02 3.50558148480648e-04
5.40857142857143e+00 2.18751045569784e-02 3.47664421222715e-04
