Energy (eV)          EEDF (eV^-(3/2))     First Anisotropy
3.96153846153846e-03 6.79439193669855e+00 6.68771252072713e-03
1.18846153846154e-02 6.61696324724497e+00 1.09358860194197e-02
1.98076923076923e-02 6.44416792927602e+00 1.41547825728076e-02
2.77307692307692e-02 6.27588498607702e+00 1.64351621059122e-02
3.56538461538462e-02 6.11199658235277e+00 1.82050183157903e-02
4.35769230769231e-02 5.95238795901191e+00 1.96311845103980e-02
5.15000000000000e-02 5.79694735386747e+00 2.08024844831510e-02
5.94230769230769e-02 5.64556592307063e+00 2.17740134818376e-02
6.73461538461538e-02 5.49813766565695e+00 2.25832492444091e-02
7.52692307692308e-02 5.35455934847052e+00 2.32573200168425e-02
8.31923076923077e-02 5.21473043419123e+00 2.38167613667272e-02
9.11153846153846e-02 5.07855301079747e+00 2.42776515980571e-02
9.90384615384615e-02 4.94593172344357e+00 2.46529142612353e-02
1.06961538461538e-01 4.81677370721734e+00 2.49531572795750e-02
1.14884615384615e-01 4.69098852217379e+00 2.51872376912963e-02
1.22807692307692e-01 4.56848809024569e+00 2.53626556818824e-02
1.30730769230769e-01 4.44918663343241e+00 2.54858378810547e-02
1.38653846153846e-01 4.33300061373681e+00 2.55623462962323e-02
1.46576923076923e-01 4.21984867467038e+00 2.55970358447496e-02
1.54500000000000e-01 4.10965158428577e+00 2.55941753922484e-02
1.62423076923077e-01 4.00233218031026e+00 2.55575424798224e-02
1.70346153846154e-01 3.89781531421673e+00 2.54904983292345e-02
1.78269230769231e-01 3.79602780056400e+00 2.53960481302028e-02
1.86192307692308e-01 3.69689836507374e+00 2.52768902563498e-02
1.94115384615385e-01 3.60035759472264e+00 2.51354566187487e-02
2.02038461538462e-01 3.50633788913770e+00 2.49739462116445e-02
2.09961538461538e-01 3.41477341326081e+00 2.47943532226451e-02
2.17884615384615e-01 3.32560005124784e+00 2.45984907799784e-02
2.25807692307692e-01 3.23875536157670e+00 2.43880111644237e-02
2.33730769230769e-01 3.15417853332216e+00 2.41644231304625e-02
2.41653846153846e-01 3.07181034357459e+00 2.39291068435319e-02
2.49576923076923e-01 2.99159311597054e+00 2.36833268371406e-02
2.57500000000000e-01 2.91347068030630e+00 2.34282432953424e-02
2.65423076923077e-01 2.83738833346912e+00 2.31649220114444e-02
2.73346153846154e-01 2.76329280032302e+00 2.28943430728562e-02
2.81269230769231e-01 2.69113219723570e+00 2.26174085358037e-02
2.89192307692308e-01 2.62085599546331e+00 2.23349493330471e-02
2.97115384615385e-01 2.55241498576897e+00 2.20477313582330e-02
3.05038461538462e-01 2.48576124396517e+00 2.17564609257733e-02
3.12961538461538e-01 2.42084809735603e+00 2.14617896703154e-02
3.20884615384615e-01 2.35763009205536e+00 2.11643189566702e-02
3.28807692307692e-01 2.29606296115981e+00 2.08646038607065e-02
3.36730769230769e-01 2.23610359375141e+00 2.05631567726444e-02
3.44653846153846e-01 2.17771000471018e+00 2.02604506665995e-02
3.52576923076923e-01 2.12084130531509e+00 1.99569220744828e-02
3.60500000000000e-01 2.06545767461270e+00 1.96529737863728e-02
3.68423076923077e-01 2.01152033166718e+00 1.93489773594476e-02
3.76346153846154e-01 1.95899150799432e+00 1.90452753627444e-02
3.84269230769231e-01 1.90783442153565e+00 1.87421834325051e-02
3.92192307692308e-01 1.85801325075894e+00 1.84399922166461e-02
4.00115384615385e-01 1.80949310957505e+00 1.81389691194556e-02
4.08038461538462e-01 1.76224002290980e+00 1.78393599203788e-02
4.15961538461538e-01 1.71622090291372e+00 1.75413902679112e-02
4.23884615384615e-01 1.67140352579288e+00 1.72452670600461e-02
4.31807692307692e-01 1.62775650924537e+00 1.69511797216217e-02
4.39730769230769e-01 1.58524929048641e+00 1.66593013877032e-02
4.47653846153846e-01 1.54385210484743e+00 1.63697900010708e-02
4.55576923076923e-01 1.50353596493413e+00 1.60827893312144e-02
4.63500000000000e-01 1.46427264032869e+00 1.57984299147579e-02
4.71423076923077e-01 1.42603463789599e+00 1.55168299567875e-02
4.79346153846154e-01 1.38879518230568e+00 1.52380961375261e-02
4.87269230769231e-01 1.35252819751508e+00 1.49623243623071e-02
4.95192307692308e-01 1.31720828843102e+00 1.46896004965680e-02
5.03115384615385e-01 1.28281072312751e+00 1.44200010238172e-02
5.11038461538462e-01 1.24931141552786e+00 1.41535936671614e-02
5.18961538461538e-01 1.21668690853890e+00 1.38904379701924e-02
5.26884615384615e-01 1.18491435762567e+00 1.36305858401829e-02
5.34807692307692e-01 1.15397151481529e+00 1.33740820563767e-02
5.42730769230769e-01 1.12383671311819e+00 1.31209647458697e-02
5.50653846153846e-01 1.09448885135636e+00 1.28712658293218e-02
5.58576923076923e-01 1.06590737938774e+00 1.26250114386416e-02
5.66500000000000e-01 1.03807228371647e+00 1.23822223043127e-02
5.74423076923077e-01 1.01096407352182e+00 1.21429141356557e-02
5.82346153846154e-01 9.84563766878752e-01 1.19070979566311e-02
5.90269230769231e-01 9.58852877600602e-01 1.16747804198949e-02
5.98192307692308e-01 9.33813402248811e-01 1.14459641244915e-02
6.06115384615385e-01 9.09427807526434e-01 1.12206478961341e-02
6.14038461538462e-01 8.85679018000866e-01 1.09988270549779e-02
6.21961538461538e-01 8.62550404147181e-01 1.07804936671943e-02
6.29884615384615e-01 8.40025770703654e-01 1.05656367813519e-02
6.37807692307692e-01 8.18089345331518e-01 1.03542426505813e-02
6.45730769230769e-01 7.96725767570708e-01 1.01462949414087e-02
6.53653846153846e-01 7.75920078084058e-01 9.94177493005406e-03
6.61576923076923e-01 7.55657708182391e-01 9.74066168698040e-03
6.69500000000000e-01 7.35924469623134e-01 9.54293224762909e-03
6.77423076923077e-01 7.16706544701095e-01 9.34856178404021e-03
6.85346153846154e-01 6.97990476494068e-01 9.15752375253178e-03
6.93269230769231e-01 6.79763159520501e-01 8.96979003182754e-03
7.01192307692308e-01 6.62011830535259e-01 8.78533106783548e-03
7.09115384615385e-01 6.44724059592468e-01 8.60411599797149e-03
7.17038461538462e-01 6.27887741341737e-01 8.42611277096287e-03
7.24961538461538e-01 6.11491086551681e-01 8.25128825944947e-03
7.32884615384615e-01 5.95522613854760e-01 8.07960836578743e-03
7.40807692307692e-01 5.79971141707787e-01 7.91103812146164e-03
7.48730769230769e-01 5.64825780562282e-01 7.74554178047259e-03
7.56653846153846e-01 5.50075925239331e-01 7.58308290702659e-03
7.64576923076923e-01 5.35711247503560e-01 7.42362445786565e-03
7.72500000000000e-01 5.21721688831034e-01 7.26712885770562e-03
7.80423076923077e-01 5.08097453381848e-01 7.11355807733021e-03
7.88346153846154e-01 4.94829001092351e-01 6.96287369781995e-03
7.96269230769231e-01 4.81907041044426e-01 6.81503697027250e-03
8.04192307692308e-01 4.69322524942905e-01 6.67000888159638e-03
8.12115384615385e-01 4.57066640779709e-01 6.52775020837709e-03
8.20038461538462e-01 4.45130806663457e-01 6.38822156922810e-03
8.27961538461539e-01 4.33506664810196e-01 6.25138347376386e-03
8.35884615384615e-01 4.22186075691050e-01 6.11719636837547e-03
8.43807692307692e-01 4.11161112332738e-01 5.98562067899469e-03
8.51730769230769e-01 4.00424054766881e-01 5.85661685101403e-03
8.59653846153846e-01 3.89967384624284e-01 5.73014538651119e-03
8.67576923076923e-01 3.79783779870372e-01 5.60616687893516e-03
8.75500000000000e-01 3.69866109678111e-01 5.48464204417283e-03
8.83423076923077e-01 3.60207429444726e-01 5.36553175429662e-03
8.91346153846154e-01 3.50800975898580e-01 5.24879706294034e-03
8.99269230769231e-01 3.41640162394303e-01 5.13439922848001e-03
9.07192307692308e-01 3.32718574290122e-01 5.02229974202445e-03
9.15115384615385e-01 3.24029964456154e-01 4.91246034818389e-03
9.23038461538462e-01 3.15568248900011e-01 4.80484306551068e-03
9.30961538461539e-01 3.07327502506621e-01 4.69941020533321e-03
9.38884615384615e-01 2.99301954889305e-01 4.59612438906933e-03
9.46807692307692e-01 2.91485986349214e-01 4.49494856410948e-03
9.54730769230769e-01 2.83874123940265e-01 4.39584601835046e-03
9.62653846153846e-01 2.76461037636832e-01 4.29878039345045e-03
9.70576923076923e-01 2.69241536601534e-01 4.20371569688273e-03
9.78500000000000e-01 2.62210565550462e-01 4.11061631203667e-03
9.86423076923077e-01 2.55363201219637e-01 4.01944701056758e-03
9.94346153846154e-01 2.48694648898363e-01 3.93017295956132e-03
1.00226923076923e+00 2.42200239091476e-01 3.84275972837985e-03
1.01019230769231e+00 2.35875424237280e-01 3.75717329826707e-03
1.01811538461538e+00 2.29715775524094e-01 3.67338005752007e-03
1.02603846153846e+00 2.23716979858990e-01 3.59134683004738e-03
1.03396153846154e+00 2.17874836673358e-01 3.51104086798776e-03
1.04188461538462e+00 2.12185255146661e-01 3.43242983201342e-03
1.04980769230769e+00 2.06644251333984e-01 3.35548183748612e-03
1.05773076923077e+00 2.01247945229943e-01 3.28016543612661e-03
1.06565384615385e+00 1.95992558200733e-01 3.20644959806393e-03
1.07357692307692e+00 1.90874410330964e-01 3.13430375247698e-03
1.08150000000000e+00 1.85889917714884e-01 3.06369776944530e-03
1.08942307692308e+00 1.81035590081211e-01 2.99460194759132e-03
1.09734615384615e+00 1.76308028303539e-01 2.92698702831115e-03
1.10526923076923e+00 1.71703922058053e-01 2.86082420477018e-03
1.11319230769231e+00 1.67220047389886e-01 2.79608511052969e-03
1.12111538461538e+00 1.62853264573379e-01 2.73274180222073e-03
1.12903846153846e+00 1.58600515907851e-01 2.67076678985791e-03
1.13696153846154e+00 1.54458823472020e-01 2.61013301953940e-03
1.14488461538462e+00 1.50425287145084e-01 2.55081385656178e-03
1.15280769230769e+00 1.46497082570911e-01 2.49278311207820e-03
1.16073076923077e+00 1.42671459085892e-01 2.43601502632879e-03
1.16865384615385e+00 1.38945737888936e-01 2.38048425227838e-03
1.17657692307692e+00 1.35317310161073e-01 2.32616587904650e-03
1.18450000000000e+00 1.31783635153349e-01 2.27303541569707e-03
1.19242307692308e+00 1.28342238494599e-01 2.22106877908274e-03
1.20034615384615e+00 1.24990710429345e-01 2.17024229982224e-03
1.20826923076923e+00 1.21726704154958e-01 2.12053272487109e-03
1.21619230769231e+00 1.18547934103415e-01 2.07191720640787e-03
1.22411538461538e+00 1.15452174417191e-01 2.02437328680044e-03
1.23203846153846e+00 1.12437257386993e-01 1.97787891598438e-03
1.23996153846154e+00 1.09501071866034e-01 1.93241243666312e-03
1.24788461538462e+00 1.06641561860765e-01 1.88795256988940e-03
1.25580769230769e+00 1.03856725087960e-01 1.84447843029739e-03
1.26373076923077e+00 1.01144611511223e-01 1.80196951195372e-03
1.27165384615385e+00 9.85033220380197e-02 1.76040567457415e-03
1.27957692307692e+00 9.59310071869052e-02 1.71976715686013e-03
1.28750000000000e+00 9.34258657368546e-02 1.68003456298982e-03
1.29542307692308e+00 9.09861435226112e-02 1.64118885194521e-03
1.30334615384615e+00 8.86101321871594e-02 1.60321133924247e-03
1.31126923076923e+00 8.62961680015118e-02 1.56608369642989e-03
1.31919230769231e+00 8.40426306507880e-02 1.52978794134957e-03
1.32711538461538e+00 8.18479421494440e-02 1.49430642580171e-03
1.33503846153846e+00 7.97105657339589e-02 1.45962184533330e-03
1.34296153846154e+00 7.76290047423922e-02 1.42571722719339e-03
1.35088461538462e+00 7.56018016115103e-02 1.39257591860903e-03
1.35880769230769e+00 7.36275368540523e-02 1.36018159531573e-03
1.36673076923077e+00 7.17048280245304e-02 1.32851825013430e-03
1.37465384615385e+00 6.98323287921375e-02 1.29757018185203e-03
1.38257692307692e+00 6.80087279960751e-02 1.26732200264314e-03
1.39050000000000e+00 6.62327486909708e-02 1.23775862724265e-03
1.39842307692308e+00 6.45031472898560e-02 1.20886526410378e-03
1.40634615384615e+00 6.28187126807712e-02 1.18062741506251e-03
1.41426923076923e+00 6.11782653892412e-02 1.15303087353092e-03
1.42219230769231e+00 5.95806567202282e-02 1.12606171643299e-03
1.43011538461538e+00 5.80247679865119e-02 1.09970629441155e-03
1.43803846153846e+00 5.65095097238139e-02 1.07395123717996e-03
1.44596153846154e+00 5.50338208987434e-02 1.04878344401009e-03
1.45388461538462e+00 5.35966681955227e-02 1.02419007447808e-03
1.46180769230769e+00 5.21970452910540e-02 1.00015855308378e-03
1.46973076923077e+00 5.08339721237611e-02 9.76676560275977e-04
1.47765384615385e+00 4.95064942342879e-02 9.53732023720513e-04
1.48557692307692e+00 4.82136820958954e-02 9.31313122275551e-04
1.49350000000000e+00 4.69546304395255e-02 9.09408277526778e-04
1.50142307692308e+00 4.57284576443974e-02 8.88006146710769e-04
1.50934615384615e+00 4.45343051123606e-02 8.67095621486837e-04
1.51726923076923e+00 4.33713366736364e-02 8.46665825735394e-04
1.52519230769231e+00 4.22387379800755e-02 8.26706109103575e-04
1.53311538461538e+00 4.11357159565464e-02 8.07206039395647e-04
1.54103846153846e+00 4.00614982445917e-02 7.88155405356176e-04
1.54896153846154e+00 3.90153326423052e-02 7.69544209305845e-04
1.55688461538462e+00 3.79964865972535e-02 7.51362659978576e-04
1.56480769230769e+00 3.70042466926173e-02 7.33601174884575e-04
1.57273076923077e+00 3.60379181300925e-02 7.16250373386590e-04
1.58065384615385e+00 3.50968242612242e-02 6.99301069965094e-04
1.58857692307692e+00 3.41803061127680e-02 6.82744276213413e-04
1.59650000000000e+00 3.32877219093154e-02 6.66571194329332e-04
1.60442307692308e+00 3.24184466401359e-02 6.50773211578853e-04
1.61234615384615e+00 3.15718716160196e-02 6.35341898789151e-04
1.62026923076923e+00 3.07474040476711e-02 6.20269008195286e-04
1.62819230769231e+00 2.99444666165328e-02 6.05546468388941e-04
1.63611538461538e+00 2.91624970848748e-02 5.91166378492942e-04
1.64403846153846e+00 2.84009479014348e-02 5.77121009483159e-04
1.65196153846154e+00 2.76592858051895e-02 5.63402798565963e-04
1.65988461538462e+00 2.69369914649931e-02 5.50004343710121e-04
1.66780769230769e+00 2.62335591153298e-02 5.36918404733130e-04
1.67573076923077e+00 2.55484961904961e-02 5.24137898028459e-04
1.68365384615385e+00 2.48813229915635e-02 5.11655891437348e-04
1.69157692307692e+00 2.42315723499310e-02 4.99465605130369e-04
1.69950000000000e+00 2.35987892895878e-02 4.87560406663186e-04
1.70742307692308e+00 2.29825307193312e-02 4.75933806713623e-04
1.71534615384615e+00 2.23823651188353e-02 4.64579457599866e-04
1.72326923076923e+00 2.17978722395641e-02 4.53491151368488e-04
1.73119230769231e+00 2.12286428011135e-02 4.42662815903174e-04
1.73911538461538e+00 2.06742782141801e-02 4.32088510513286e-04
1.74703846153846e+00 2.01343903010169e-02 4.21762426447354e-04
1.75496153846154e+00 1.96086010150713e-02 4.11678882644009e-04
1.76288461538462e+00 1.90965421849658e-02 4.01832321599870e-04
1.77080769230769e+00 1.85978552562977e-02 3.92217309755765e-04
1.77873076923077e+00 1.81121910327813e-02 3.82828533519672e-04
1.78665384615385e+00 1.76392094396556e-02 3.73660795398934e-04
1.79457692307692e+00 1.71785792851896e-02 3.64709014277162e-04
1.80250000000000e+00 1.67299780216827e-02 3.55968221691936e-04
1.81042307692308e+00 1.62930915268263e-02 3.47433558590376e-04
1.81834615384615e+00 1.58676138812966e-02 3.39100274007625e-04
1.82626923076923e+00 1.54532471565992e-02 3.30963723458340e-04
1.83419230769231e+00 1.50497012001722e-02 3.23019365973679e-04
1.84211538461538e+00 1.46566934386055e-02 3.15262760788133e-04
1.85003846153846e+00 1.42739486794819e-02 3.07689567425613e-04
1.85796153846154e+00 1.39011989129578e-02 3.00295542513342e-04
1.86588461538462e+00 1.35381831299177e-02 2.93076536683482e-04
1.87380769230769e+00 1.31846471389441e-02 2.86028494594658e-04
1.88173076923077e+00 1.28403433831096e-02 2.79147451954265e-04
1.88965384615385e+00 1.25050307719383e-02 2.72429532622647e-04
1.89757692307692e+00 1.21784745123446e-02 2.65870948580289e-04
1.90550000000000e+00 1.18604459394718e-02 2.59467997144944e-04
1.91342307692308e+00 1.15507223614134e-02 2.53217058524202e-04
1.92134615384615e+00 1.12490869016359e-02 2.47114594699566e-04
1.92926923076923e+00 1.09553283484961e-02 2.41157148118778e-04
1.93719230769231e+00 1.06692410031327e-02 2.35341339459570e-04
1.94511538461538e+00 1.03906245397184e-02 2.29663865157289e-04
1.95303846153846e+00 1.01192838649904e-02 2.24121497282374e-04
1.96096153846154e+00 9.85502897779945e-03 2.18711081165872e-04
1.96888461538462e+00 9.59767483997449e-03 2.13429533090345e-04
1.97680769230769e+00 9.34704124657738e-03 2.08273840138247e-04
1.98473076923077e+00 9.10295269621397e-03 2.03241057975416e-04
1.99265384615385e+00 8.86523827170911e-03 1.98328308695507e-04
2.00057692307692e+00 8.63373152026321e-03 1.93532780644989e-04
2.00850000000000e+00 8.40827033370203e-03 1.88851726354074e-04
2.01642307692308e+00 8.18869683821713e-03 1.84282460703303e-04
2.02434615384615e+00 7.97485728271447e-03 1.79822360013411e-04
2.03226923076923e+00 7.76660193208209e-03 1.75468861006863e-04
2.04019230769231e+00 7.56378495950745e-03 1.71219459131846e-04
2.04811538461538e+00 7.36626434725073e-03 1.67071706726819e-04
2.05603846153846e+00 7.17390178706879e-03 1.63023212811693e-04
2.06396153846154e+00 6.98656258078171e-03 1.59071641326927e-04
2.07188461538462e+00 6.80411554858522e-03 1.55214709421070e-04
2.07980769230769e+00 6.62643293707643e-03 1.51450187232271e-04
2.08773076923077e+00 6.45339032743658e-03 1.47775896246121e-04
2.09565384615385e+00 6.28486655071189e-03 1.44189707698621e-04
2.10357692307692e+00 6.12074360285865e-03 1.40689542351034e-04
2.11150000000000e+00 5.96090655995957e-03 1.37273368958437e-04
2.11942307692308e+00 5.80524349994367e-03 1.33939202903943e-04
2.12734615384615e+00 5.65364542347145e-03 1.30685105473900e-04
2.13526923076923e+00 5.50600617823679e-03 1.27509183047141e-04
2.14319230769231e+00 5.36222238272439e-03 1.24409585845900e-04
2.15111538461538e+00 5.22219335576556e-03 1.21384506578924e-04
2.15903846153846e+00 5.08582104595027e-03 1.18432180212004e-04
2.16696153846154e+00 4.95300996122315e-03 1.15550882667349e-04
2.17488461538462e+00 4.82366710379385e-03 1.12738929558734e-04
2.18280769230769e+00 4.69770190493760e-03 1.09994675962395e-04
2.19073076923077e+00 4.57502615998216e-03 1.07316515205094e-04
2.19865384615385e+00 4.45555396816690e-03 1.04702877685469e-04
2.20657692307692e+00 4.33920167241938e-03 1.02152230646774e-04
2.21450000000000e+00 4.22588779932077e-03 9.96630770475703e-05
2.22242307692308e+00 4.11553300353776e-03 9.72339545489403e-05
2.23034615384615e+00 4.00806001175999e-03 9.48634349472207e-05
2.23826923076923e+00 3.90339356901470e-03 9.25501235491131e-05
2.24619230769231e+00 3.80146038467836e-03 9.02926582450526e-05
2.25411538461538e+00 3.70218908247268e-03 8.80897085096135e-05
2.26203846153846e+00 3.60551015042550e-03 8.59399751842140e-05
2.26996153846154e+00 3.51135589101562e-03 8.38421895197064e-05
2.27788461538462e+00 3.41966037497095e-03 8.17951122452543e-05
2.28580769230769e+00 3.33035939504926e-03 7.97975333560969e-05
2.29373076923077e+00 3.24339041999927e-03 7.78482712220291e-05
2.30165384615385e+00 3.15869255187279e-03 7.59461717203305e-05
2.30957692307692e+00 3.07620648333280e-03 7.40901080292125e-05
2.31750000000000e+00 2.99587445513905e-03 7.22789797976222e-05
2.32542307692308e+00 2.91764021670699e-03 7.05117123970966e-05
2.33334615384615e+00 2.84144898637910e-03 6.87872564835716e-05
2.34126923076923e+00 2.76724741335223e-03 6.71045875205428e-05
2.34919230769231e+00 2.69498353944396e-03 6.54627050942819e-05
2.35711538461538e+00 2.62460676360181e-03 6.38606321796340e-05
2.36503846153846e+00 2.55606780643087e-03 6.22974149491917e-05
2.37296153846154e+00 2.48931867488632e-03 6.07721220705353e-05
2.38088461538462e+00 2.42431262948225e-03 5.92838440227469e-05
2.38880769230769e+00 2.36100415152696e-03 5.78316929123762e-05
2.39673076923077e+00 2.29934891051754e-03 5.64148018194235e-05
2.40465384615385e+00 2.23930373384337e-03 5.50323241612382e-05
2.41257692307692e+00 2.18082657652195e-03 5.36834335154321e-05
2.42050000000000e+00 2.12387649108896e-03 5.23673230112033e-05
2.42842307692308e+00 2.06841359960670e-03 5.10832047784519e-05
2.43634615384615e+00 2.01439906550939e-03 4.98303096127450e-05
2.44426923076923e+00 1.96179506660364e-03 4.86078866143515e-05
2.45219230769231e+00 1.91056476798953e-03 4.74152026838282e-05
2.46011538461538e+00 1.86067229687332e-03 4.62515419841082e-05
2.46803846153846e+00 1.81208271742112e-03 4.51162057803723e-05
2.47596153846154e+00 1.76476200575204e-03 4.40085119254675e-05
2.48388461538462e+00 1.71867702666717e-03 4.29277943594198e-05
2.49180769230769e+00 1.67379551042279e-03 4.18734029562681e-05
2.49973076923077e+00 1.63008602963679e-03 4.08447030454126e-05
