Energy (eV)          EEDF (eV^-(3/2))     First Anisotropy
4.16129032258065e-03 1.73339537392115e+00 1.14576670451640e-03
1.24838709677419e-02 1.71422320923428e+00 1.88787001079915e-03
2.08064516129032e-02 1.69526309766674e+00 2.48132085469814e-03
2.91290322580645e-02 1.67651269385081e+00 2.92560254903304e-03
3.74516129032258e-02 1.65796967824930e+00 3.29074374896366e-03
4.57741935483871e-02 1.63963175710720e+00 3.60338827182128e-03
5.40967741935484e-02 1.62149666194035e+00 3.87740685049368e-03
6.24193548387097e-02 1.60356214943548e+00 4.12122442252467e-03
7.07419354838710e-02 1.58582600102328e+00 4.34046057694535e-03
7.90645161290323e-02 1.56828602273151e+00 4.53910958668930e-03
8.73870967741936e-02 1.55094004480267e+00 4.72014473014238e-03
9.57096774193548e-02 1.53378592152355e+00 4.88585861547659e-03
1.04032258064516e-01 1.51682153088909e+00 5.03806883112496e-03
1.12354838709677e-01 1.50004477440839e+00 5.17824919262582e-03
1.20677419354839e-01 1.48345357666143e+00 5.30761721652740e-03
1.29000000000000e-01 1.46704588528499e+00 5.42719454791955e-03
1.37322580645161e-01 1.45081967073864e+00 5.53785003443646e-03
1.45645161290323e-01 1.43477292568498e+00 5.64033111532114e-03
1.53967741935484e-01 1.41890366510969e+00 5.73528723598147e-03
1.62290322580645e-01 1.40320992605349e+00 5.82328773426077e-03
1.70612903225806e-01 1.38768976706875e+00 5.90483560286911e-03
1.78935483870968e-01 1.37234126828075e+00 5.98037828636998e-03
1.87258064516129e-01 1.35716253113221e+00 6.05031633872214e-03
1.95580645161290e-01 1.34215167789805e+00 6.11501031901329e-03
2.03903225806452e-01 1.32730685177703e+00 6.17478643143623e-03
2.12225806451613e-01 1.31262621636048e+00 6.22994116362445e-03
2.20548387096774e-01 1.29810795562386e+00 6.28074509318138e-03
2.28870967741935e-01 1.28375027369062e+00 6.32744613353268e-03
2.37193548387097e-01 1.26955139442262e+00 6.37027221119617e-03
2.45516129032258e-01 1.25550956138906e+00 6.40943353257882e-03
2.53838709677419e-01 1.24162303764047e+00 6.44512457210126e-03
2.62161290322581e-01 1.22789010532982e+00 6.47752572711356e-03
2.70483870967742e-01 1.21430906566454e+00 6.50680474371627e-03
2.78806451612903e-01 1.20087823868977e+00 6.53311800406307e-03
2.87129032258065e-01 1.18759596293537e+00 6.55661160057297e-03
2.95451612903226e-01 1.17446059535598e+00 6.57742227461129e-03
3.03774193548387e-01 1.16147051112174e+00 6.59567828894477e-03
3.12096774193548e-01 1.14862410328855e+00 6.61150015320053e-03
3.20419354838710e-01 1.13591978272885e+00 6.62500126534037e-03
3.28741935483871e-01 1.12335597792953e+00 6.63628852603872e-03
3.37064516129032e-01 1.11093113468261e+00 6.64546284047583e-03
3.45387096774194e-01 1.09864371604357e+00 6.65261958841604e-03
3.53709677419355e-01 1.08649220199733e+00 6.65784904882416e-03
3.62032258064516e-01 1.07447508937597e+00 6.66123675852157e-03
3.70354838709677e-01 1.06259089166874e+00 6.66286387912475e-03
3.78677419354839e-01 1.05083813874322e+00 6.66280749223019e-03
3.87000000000000e-01 1.03921537675895e+00 6.66114086642960e-03
3.95322580645161e-01 1.02772116798425e+00 6.65793373656161e-03
4.03645161290323e-01 1.01635409053207e+00 6.65325252348729e-03
4.11967741935484e-01 1.00511273827077e+00 6.64716053413041e-03
4.20290322580645e-01 9.93995720647298e-01 6.63971817887666e-03
4.28612903225806e-01 9.83001662436433e-01 6.63098313815034e-03
4.36935483870968e-01 9.72129203649838e-01 6.62101051490257e-03
4.45258064516129e-01 9.61376999365060e-01 6.60985300728651e-03
4.53580645161290e-01 9.50743719487286e-01 6.59756103357736e-03
4.61903225806452e-01 9.40228048679304e-01 6.58418286339347e-03
4.70225806451613e-01 9.29828686107672e-01 6.56976474079163e-03
4.78548387096774e-01 9.19544345349135e-01 6.55435098096152e-03
4.86870967741936e-01 9.09373754229198e-01 6.53798409221510e-03
4.95193548387097e-01 8.99315654603324e-01 6.52070486149618e-03
5.03516129032258e-01 8.89368802263149e-01 6.50255243359705e-03
5.11838709677419e-01 8.79531966780610e-01 6.48356441233426e-03
5.20161290322581e-01 8.69803931299070e-01 6.46377692857682e-03
5.28483870967742e-01 8.60183492439757e-01 6.44322470344561e-03
5.36806451612903e-01 8.50669460151209e-01 6.42194113335020e-03
5.45129032258065e-01 8.41260657509660e-01 6.39995834460863e-03
5.53451612903226e-01 8.31955920626132e-01 6.37730724434187e-03
5.61774193548387e-01 8.22754098500847e-01 6.35401759280254e-03
5.70096774193548e-01 8.13654052832391e-01 6.33011804757042e-03
5.78419354838710e-01 8.04654657925689e-01 6.30563620487777e-03
5.86741935483871e-01 7.95754800551225e-01 6.28059866178685e-03
5.95064516129032e-01 7.86953379762434e-01 6.25503104981890e-03
6.03387096774194e-01 7.78249306818744e-01 6.22895807831366e-03
6.11709677419355e-01 7.69641504993436e-01 6.20240357644080e-03
6.20032258064516e-01 7.61128909483018e-01 6.17539052029873e-03
6.28354838709677e-01 7.52710467274243e-01 6.14794108210541e-03
6.36677419354839e-01 7.44385136974517e-01 6.12007665625561e-03
6.45000000000000e-01 7.36151888722654e-01 6.09181788381984e-03
6.53322580645161e-01 7.28009704060365e-01 6.06318469583624e-03
6.61645161290323e-01 7.19957575769605e-01 6.03419633488125e-03
6.69967741935484e-01 7.11994507784851e-01 6.00487137537340e-03
6.78290322580645e-01 7.04119515068868e-01 5.97522776195445e-03
6.86612903225806e-01 6.96331623456640e-01 5.94528282740783e-03
6.94935483870968e-01 6.88629869569296e-01 5.91505330956161e-03
7.03258064516129e-01 6.81013300693948e-01 5.88455538553807e-03
7.11580645161290e-01 6.73480974633914e-01 5.85380468481570e-03
7.19903225806452e-01 6.66031959634326e-01 5.82281631083877e-03
7.28225806451613e-01 6.58665334225837e-01 5.79160486240646e-03
7.36548387096774e-01 6.51380187141102e-01 5.76018444423464e-03
7.44870967741936e-01 6.44175617201183e-01 5.72856869554919e-03
7.53193548387097e-01 6.37050733175761e-01 5.69677080122153e-03
7.61516129032258e-01 6.30004653701403e-01 5.66480350231769e-03
7.69838709677419e-01 6.23036507171753e-01 5.63267912198551e-03
7.78161290322581e-01 6.16145431603179e-01 5.60040957480255e-03
7.86483870967742e-01 6.09330574554838e-01 5.56800637562391e-03
7.94806451612903e-01 6.02591093022540e-01 5.53548066312744e-03
8.03129032258065e-01 5.95926153309549e-01 5.50284320766267e-03
8.11451612903226e-01 5.89334930948516e-01 5.47010441868409e-03
8.19774193548387e-01 5.82816610598829e-01 5.43727436625436e-03
8.28096774193548e-01 5.76370385922370e-01 5.40436278762757e-03
8.36419354838710e-01 5.69995459507314e-01 5.37137909350102e-03
8.44741935483871e-01 5.63691042768845e-01 5.33833238772455e-03
8.53064516129032e-01 5.57456355829650e-01 5.30523147140570e-03
8.61387096774194e-01 5.51290627452490e-01 5.27208485382948e-03
8.69709677419355e-01 5.45193094916455e-01 5.23890076350938e-03
8.78032258064516e-01 5.39163003943678e-01 5.20568715135489e-03
8.86354838709677e-01 5.33199608605470e-01 5.17245170778062e-03
8.94677419354839e-01 5.27302171210369e-01 5.13920186684613e-03
9.03000000000000e-01 5.21469962232696e-01 5.10594481018650e-03
9.11322580645161e-01 5.15702260221812e-01 5.07268748282632e-03
9.19645161290323e-01 5.09998351694323e-01 5.03943659663776e-03
9.27967741935484e-01 5.04357531064483e-01 5.00619863361869e-03
9.36290322580645e-01 4.98779100556447e-01 4.97297986054847e-03
9.44612903225806e-01 4.93262370100466e-01 4.93978633185967e-03
9.52935483870968e-01 4.87806657265130e-01 4.90662389236464e-03
9.61258064516129e-01 4.82411287172486e-01 4.87349819086965e-03
9.69580645161290e-01 4.77075592398088e-01 4.84041468140984e-03
9.77903225806452e-01 4.71798912910231e-01 4.80737863005195e-03
9.86225806451613e-01 4.66580595966996e-01 4.77439512188833e-03
9.94548387096774e-01 4.61419996051362e-01 4.74146906181043e-03
1.00287096774194e+00 4.56316474790944e-01 4.70860518870408e-03
1.01119354838710e+00 4.51269400854485e-01 4.67580806962018e-03
1.01951612903226e+00 4.46278149922805e-01 4.64308210894369e-03
1.02783870967742e+00 4.41342104567205e-01 4.61043156093922e-03
1.03616129032258e+00 4.36460654188041e-01 4.57786052432729e-03
1.04448387096774e+00 4.31633194939156e-01 4.54537295009665e-03
1.05280645161290e+00 4.26859129653255e-01 4.51297264581535e-03
1.06112903225806e+00 4.22137867767995e-01 4.48066327982033e-03
1.06945161290323e+00 4.17468825252933e-01 4.44844838525172e-03
1.07777419354839e+00 4.12851424537283e-01 4.41633136396963e-03
1.08609677419355e+00 4.08285094438460e-01 4.38431549034822e-03
1.09441935483871e+00 4.03769270091434e-01 4.35240392397919e-03
1.10274193548387e+00 3.99303392839822e-01 4.32059968591448e-03
1.11106451612903e+00 3.94886910285045e-01 4.28890568045208e-03
1.11938709677419e+00 3.90519276098522e-01 4.25732471717916e-03
1.12770967741935e+00 3.86199949994326e-01 4.22585948600143e-03
1.13603225806452e+00 3.81928397662348e-01 4.19451256978784e-03
1.14435483870968e+00 3.77704090702202e-01 4.16328644742861e-03
1.15267741935484e+00 3.73526506557861e-01 4.13218349680179e-03
1.16100000000000e+00 3.69395128453015e-01 4.10120599765489e-03
1.16932258064516e+00 3.65309445327132e-01 4.07035613439673e-03
1.17764516129032e+00 3.61268951772254e-01 4.03963599880451e-03
1.18596774193548e+00 3.57273147970485e-01 4.00904759266319e-03
1.19429032258065e+00 3.53321539632151e-01 3.97859283032528e-03
1.20261290322581e+00 3.49413637934657e-01 3.94827354119149e-03
1.21093548387097e+00 3.45548959462016e-01 3.91809147212260e-03
1.21925806451613e+00 3.41727026145050e-01 3.88804828978262e-03
1.22758064516129e+00 3.37947365202253e-01 3.85814559004724e-03
1.23590322580645e+00 3.34209509052183e-01 3.82838487863013e-03
1.24422580645161e+00 3.30512995343849e-01 3.79876758770809e-03
1.25254838709677e+00 3.26857366810412e-01 3.76929509278191e-03
1.26087096774194e+00 3.23242171242621e-01 3.73996869241409e-03
1.26919354838710e+00 3.19666961432872e-01 3.71078961769962e-03
1.27751612903226e+00 3.16131295119890e-01 3.68175903418468e-03
1.28583870967742e+00 3.12634734934019e-01 3.65287804373174e-03
1.29416129032258e+00 3.09176848343116e-01 3.62414768633774e-03
1.30248387096774e+00 3.05757207599034e-01 3.59556894188982e-03
1.31080645161290e+00 3.02375389684738e-01 3.56714273188075e-03
1.31912903225806e+00 2.99030976261962e-01 3.53886992108617e-03
1.32745161290323e+00 2.95723553619458e-01 3.51075131918345e-03
1.33577419354839e+00 2.92452712621821e-01 3.48278768233062e-03
1.34409677419355e+00 2.89218048658875e-01 3.45497971470275e-03
1.35241935483871e+00 2.86019161595625e-01 3.42732807574066e-03
1.36074193548387e+00 2.82855655700369e-01 3.39983336419407e-03
1.36906451612903e+00 2.79727139663556e-01 3.37249613121056e-03
1.37738709677419e+00 2.76633226480911e-01 3.34531689363098e-03
1.38570967741935e+00 2.73573533428611e-01 3.31829611735013e-03
1.39403225806452e+00 2.70547682015937e-01 3.29143422466822e-03
1.40235483870968e+00 2.67555297938457e-01 3.26473159556105e-03
1.41067741935484e+00 2.64596011031723e-01 3.23818856891683e-03
1.41900000000000e+00 2.61669455225481e-01 3.21180544374171e-03
1.42732258064516e+00 2.58775268498379e-01 3.18558248033017e-03
1.43564516129032e+00 2.55913092833194e-01 3.15951990140358e-03
1.44396774193548e+00 2.53082574172548e-01 3.13361789322467e-03
1.45229032258065e+00 2.50283362375105e-01 3.10787660668104e-03
1.46061290322581e+00 2.47515111172255e-01 3.08229615833760e-03
1.46893548387097e+00 2.44777478125285e-01 3.05687663146271e-03
1.47725806451613e+00 2.42070124583013e-01 3.03161807702769e-03
1.48558064516129e+00 2.39392715639901e-01 3.00652051927466e-03
1.49390322580645e+00 2.36744920077564e-01 2.98158394276389e-03
1.50222580645161e+00 2.34126410375458e-01 2.95680830261466e-03
1.51054838709677e+00 2.31536862618214e-01 2.93219353492172e-03
1.51887096774194e+00 2.28975956473120e-01 2.90773954327760e-03
1.52719354838710e+00 2.26443375150495e-01 2.88344620445282e-03
1.53551612903226e+00 2.23938805364502e-01 2.85931336922719e-03
1.54383870967742e+00 2.21461937294391e-01 2.83534086320006e-03
1.55216129032258e+00 2.19012464546178e-01 2.81152848758193e-03
1.56048387096774e+00 2.16590084114732e-01 2.78787601995866e-03
1.56880645161290e+00 2.14194496346308e-01 2.76438321504126e-03
1.57712903225806e+00 2.11825404901476e-01 2.74104980540002e-03
1.58545161290323e+00 2.09482516718457e-01 2.71787550217319e-03
1.59377419354839e+00 2.07165541976874e-01 2.69485999576027e-03
1.60209677419355e+00 2.04874194061901e-01 2.67200295649730e-03
1.61041935483871e+00 2.02608189528805e-01 2.64930403905032e-03
1.61874193548387e+00 2.00367248054562e-01 2.62676287175386e-03
1.62706451612903e+00 1.98151092443523e-01 2.60437906481023e-03
1.63538709677419e+00 1.95959448552404e-01 2.58215221863695e-03
1.64370967741935e+00 1.93792045270073e-01 2.56008191278957e-03
1.65203225806452e+00 1.91648614484017e-01 2.53816771046322e-03
1.66035483870968e+00 1.89528891047172e-01 2.51640915905560e-03
1.66867741935484e+00 1.87432612745126e-01 2.49480579071599e-03
1.67700000000000e+00 1.85359520263683e-01 2.47335712288056e-03
1.68532258064516e+00 1.83309357156779e-01 2.45206265879252e-03
1.69364516129032e+00 1.81281869814767e-01 2.43092188800815e-03
1.70196774193548e+00 1.79276807433042e-01 2.40993428689337e-03
1.71029032258065e+00 1.77293921981019e-01 2.38909931910651e-03
1.71861290322581e+00 1.75332968171446e-01 2.36841643606711e-03
1.72693548387097e+00 1.73393703430065e-01 2.34788507741372e-03
1.73525806451613e+00 1.71475887865601e-01 2.32750467144969e-03
1.74358064516129e+00 1.69579284240093e-01 2.30727463858237e-03
1.75190322580645e+00 1.67703657929240e-01 2.28719438265673e-03
1.76022580645161e+00 1.65848776924566e-01 2.26726329745821e-03
1.76854838709677e+00 1.64014411773245e-01 2.24748077333937e-03
1.77687096774194e+00 1.62200335560310e-01 2.22784618822627e-03
1.78519354838710e+00 1.60406323880579e-01 2.20835891115488e-03
1.79351612903226e+00 1.58632154810897e-01 2.18901830264283e-03
1.80183870967742e+00 1.56877608882685e-01 2.16982371505142e-03
1.81016129032258e+00 1.55142469054787e-01 2.15077449293945e-03
1.81848387096774e+00 1.53426520686622e-01 2.13186997340429e-03
1.82680645161290e+00 1.51729551511640e-01 2.11310948641649e-03
1.83512903225806e+00 1.50051351611056e-01 2.09449235514843e-03
1.84345161290323e+00 1.48391713387890e-01 2.07601789629038e-03
1.85177419354839e+00 1.46750431541277e-01 2.05768542035975e-03
1.86009677419355e+00 1.45127303041079e-01 2.03949423200214e-03
1.86841935483871e+00 1.43522127102768e-01 2.02144363274212e-03
1.87674193548387e+00 1.41934705154447e-01 2.00353291383528e-03
1.88506451612903e+00 1.40364840836923e-01 1.98576136152615e-03
1.89338709677419e+00 1.38812339954560e-01 1.96812826241017e-03
1.90170967741935e+00 1.37277010459616e-01 1.95063289602252e-03
1.91003225806452e+00 1.35758662428488e-01 1.93327453767478e-03
1.91835483870968e+00 1.34257108038217e-01 1.91605245870491e-03
1.92667741935484e+00 1.32772161543255e-01 1.89896592672041e-03
1.93500000000000e+00 1.31303639252485e-01 1.88201420583554e-03
1.94332258064516e+00 1.29851359506501e-01 1.86519655690136e-03
1.95164516129032e+00 1.28415142655136e-01 1.84851223772920e-03
1.95996774193548e+00 1.26994811035236e-01 1.83196050330990e-03
1.96829032258065e+00 1.25590188948690e-01 1.81554060602658e-03
1.97661290322581e+00 1.24201102640688e-01 1.79925179586098e-03
1.98493548387097e+00 1.22827380278229e-01 1.78309332059456e-03
1.99325806451613e+00 1.21468851928868e-01 1.76706442600404e-03
2.00158064516129e+00 1.20125349539692e-01 1.75116435803868e-03
2.00990322580645e+00 1.18796706910174e-01 1.73539235699529e-03
2.01822580645161e+00 1.17482759690857e-01 1.71974766172405e-03
2.02654838709677e+00 1.16183345343609e-01 1.70422951392006e-03
2.03487096774194e+00 1.14898303128046e-01 1.68883715208861e-03
2.04319354838710e+00 1.13627474081648e-01 1.67356981379649e-03
2.05151612903226e+00 1.12370701000094e-01 1.65842673583294e-03
2.05983870967742e+00 1.11127828417820e-01 1.64340715436571e-03
2.06816129032258e+00 1.09898702588781e-01 1.62851030509383e-03
2.07648387096774e+00 1.08683171467435e-01 1.61373542339394e-03
2.08480645161290e+00 1.07481084689937e-01 1.59908174446376e-03
2.09312903225806e+00 1.06292293555535e-01 1.58454850346285e-03
2.10145161290323e+00 1.05116651008182e-01 1.57013493564723e-03
2.10977419354839e+00 1.03954011618334e-01 1.55584027650097e-03
2.11809677419355e+00 1.02804231564971e-01 1.54166376186375e-03
2.12641935483871e+00 1.01667168617799e-01 1.52760462968684e-03
2.13474193548387e+00 1.00542682114591e-01 1.51366211521735e-03
2.14306451612903e+00 9.94306329591214e-02 1.49983545442082e-03
2.15138709677419e+00 9.83308835884891e-02 1.48612388747583e-03
2.15970967741935e+00 9.72432979613033e-02 1.47252665378812e-03
2.16803225806452e+00 9.61677415408550e-02 1.45904299381004e-03
2.17635483870968e+00 9.51040812784740e-02 1.44567214914387e-03
2.18467741935484e+00 9.40521855970715e-02 1.43241336264203e-03
2.19300000000000e+00 9.30119243748627e-02 1.41926587850471e-03
2.20132258064516e+00 9.19831689292702e-02 1.40622894237365e-03
2.20964516129032e+00 9.09657920010065e-02 1.39330180142288e-03
2.21796774193548e+00 8.99596677383326e-02 1.38048370444782e-03
2.22629032258064e+00 8.89646716814885e-02 1.36777390195110e-03
2.23461290322581e+00 8.79806807472979e-02 1.35517164622512e-03
2.24293548387097e+00 8.70075732139422e-02 1.34267619143230e-03
2.25125806451613e+00 8.60452287059033e-02 1.33028679368276e-03
2.25958064516129e+00 8.50935281790730e-02 1.31800271243448e-03
2.26790322580645e+00 8.41523539020359e-02 1.30582320655863e-03
2.27622580645161e+00 8.32215894535829e-02 1.29374753709328e-03
2.28454838709677e+00 8.23011196961267e-02 1.28177497005645e-03
2.29287096774194e+00 8.13908307655554e-02 1.26990477237499e-03
2.30119354838710e+00 8.04906100571482e-02 1.25813621333818e-03
2.30951612903226e+00 7.96003462116450e-02 1.24646856465890e-03
2.31783870967742e+00 7.87199291014717e-02 1.23490110053261e-03
2.32616129032258e+00 7.78492498171167e-02 1.22343309769478e-03
2.33448387096774e+00 7.69882006536578e-02 1.21206383547481e-03
2.34280645161290e+00 7.61366750974409e-02 1.20079259584897e-03
2.35112903225806e+00 7.52945678129030e-02 1.18961866349214e-03
2.35945161290323e+00 7.44617746295420e-02 1.17854132582656e-03
2.36777419354839e+00 7.36381925290303e-02 1.16755987306887e-03
2.37609677419355e+00 7.28237196324716e-02 1.15667359827563e-03
2.38441935483871e+00 7.20182551877980e-02 1.14588179847875e-03
2.39274193548387e+00 7.12216995541051e-02 1.13518377142548e-03
2.40106451612903e+00 7.04339541990145e-02 1.12457881782962e-03
2.40938709677419e+00 6.96549216767122e-02 1.11406624367234e-03
2.41770967741935e+00 6.88845056191809e-02 1.10364535683064e-03
2.42603225806452e+00 6.81226107242786e-02 1.09331546825833e-03
2.43435483870968e+00 6.73691427439500e-02 1.08307589202004e-03
2.44267741935484e+00 6.66240084725673e-02 1.07292594532363e-03
2.45100000000000e+00 6.58871157354011e-02 1.06286494855147e-03
2.45932258064516e+00 6.51583733772170e-02 1.05289222528981e-03
2.46764516129032e+00 6.44376912510005e-02 1.04300710235681e-03
2.47596774193548e+00 6.37249802068058e-02 1.03320890982970e-03
2.48429032258064e+00 6.30201520807274e-02 1.02349698107058e-03
2.49261290322581e+00 6.23231196839941e-02 1.01387065275062e-03
2.50093548387097e+00 6.16337967921833e-02 1.00432926487312e-03
2.50925806451613e+00 6.09520981345551e-02 9.94872160795359e-04
2.51758064516129e+00 6.02779393835040e-02 9.85498688138650e-04
2.52590322580645e+00 5.96112371415897e-02 9.76208196118571e-04
2.53422580645161e+00 5.89519089388994e-02 9.67000037364060e-04
2.54254838709677e+00 5.82998732151008e-02 9.57873569777160e-04
2.55087096774194e+00 5.76550493119570e-02 9.48828153773317e-04
2.55919354838710e+00 5.70173574633494e-02 9.39863153229563e-04
2.56751612903226e+00 5.63867187854098e-02 9.30977935498795e-04
2.57583870967742e+00 5.57630552667630e-02 9.22171871422923e-04
2.58416129032258e+00 5.51462897588758e-02 9.13444335345444e-04
2.59248387096774e+00 5.45363459665138e-02 9.04794705122316e-04
2.60080645161290e+00 5.39331484383040e-02 8.96222362132320e-04
2.60912903225806e+00 5.33366225574013e-02 8.87726691287272e-04
2.61745161290323e+00 5.27466945322579e-02 8.79307081040328e-04
2.62577419354839e+00 5.21632913874951e-02 8.70962923393879e-04
