Energy (eV)          EEDF (eV^-(3/2))     First Anisotropy
5.01470588235294e-02 3.61753766786533e-02 2.32360211604802e-05
1.50441176470588e-01 3.58098260318214e-02 3.83041863857161e-05
2.50735294117647e-01 3.54479692612512e-02 5.03937284407259e-05
3.51029411764706e-01 3.50897690374972e-02 5.94741581357745e-05
4.51323529411765e-01 3.47351884114359e-02 6.69616974058559e-05
5.51617647058824e-01 3.43841908081288e-02 7.33943893121046e-05
6.51911764705882e-01 3.40367400204742e-02 7.90519496814340e-05
7.52205882352941e-01 3.36928002080909e-02 8.41040459423379e-05
8.52500000000000e-01 3.33523358932267e-02 8.86637001311253e-05
9.52794117647059e-01 3.30153119556629e-02 9.28111417619975e-05
1.05308823529412e+00 3.26816936294835e-02 9.66060163555672e-05
1.15338235294118e+00 3.23514465047250e-02 1.00094258176437e-04
1.25367647058824e+00 3.20245365124365e-02 1.03312240214714e-04
1.35397058823529e+00 3.17009299311322e-02 1.06289420770290e-04
1.45426470588235e+00 3.13805933800362e-02 1.09050107741720e-04
1.55455882352941e+00 3.10634938178235e-02 1.11614676861144e-04
1.65485294117647e+00 3.07495985327163e-02 1.14000437839643e-04
1.75514705882353e+00 3.04388751456953e-02 1.16222266321821e-04
1.85544117647059e+00 3.01312916048863e-02 1.18293076062658e-04
1.95573529411765e+00 2.98268161823303e-02 1.20224177084219e-04
2.05602941176471e+00 2.95254174721856e-02 1.22025553230226e-04
2.15632352941176e+00 2.92270643828616e-02 1.23706079217050e-04
2.25661764705882e+00 2.89317261385094e-02 1.25273693087946e-04
2.35691176470588e+00 2.86393722742787e-02 1.26735535510526e-04
2.45720588235294e+00 2.83499726343714e-02 1.28098062988736e-04
2.55750000000000e+00 2.80634973652537e-02 1.29367140333210e-04
2.65779411764706e+00 2.77799169163016e-02 1.30548117195170e-04
2.75808823529412e+00 2.74992020354977e-02 1.31645892487152e-04
2.85838235294118e+00 2.72213237674076e-02 1.32664968545526e-04
2.95867647058824e+00 2.69462534471809e-02 1.33609496591007e-04
3.05897058823529e+00 2.66739627006402e-02 1.34483315441880e-04
3.15926470588235e+00 2.64044234403221e-02 1.35289985172392e-04
3.25955882352941e+00 2.61376078634189e-02 1.36032816108171e-04
3.35985294117647e+00 2.58734884463897e-02 1.36714893580375e-04
3.46014705882353e+00 2.56120379446683e-02 1.37339099452125e-04
3.56044117647059e+00 2.53532293889852e-02 1.37908131458980e-04
3.66073529411765e+00 2.50970360826014e-02 1.38424519718153e-04
3.76102941176471e+00 2.48434315992302e-02 1.38890641749543e-04
3.86132352941176e+00 2.45923897782333e-02 1.39308735338633e-04
3.96161764705882e+00 2.43438847240229e-02 1.39680909941788e-04
4.06191176470588e+00 2.40978908026877e-02 1.40009157228763e-04
4.16220588235294e+00 2.38543826399375e-02 1.40295360489373e-04
4.26250000000000e+00 2.36133351166903e-02 1.40541302760162e-04
4.36279411764706e+00 2.33747233682951e-02 1.40748674115808e-04
4.46308823529412e+00 2.31385227813570e-02 1.40919078588166e-04
4.56338235294118e+00 2.29047089917158e-02 1.41054040403862e-04
4.66367647058824e+00 2.26732578803653e-02 1.41155009354050e-04
4.76397058823529e+00 2.24441455725485e-02 1.41223365658078e-04
4.86426470588235e+00 2.22173484347592e-02 1.41260424706525e-04
4.96455882352941e+00 2.19928430727635e-02 1.41267441372230e-04
5.06485294117647e+00 2.17706063278062e-02 1.41245613690634e-04
5.16514705882353e+00 2.15506152756148e-02 1.41196086218907e-04
5.26544117647059e+00 2.13328472235623e-02 1.41119953473287e-04
5.36573529411765e+00 2.11172797083325e-02 1.41018262753681e-04
5.46602941176471e+00 2.09038904939929e-02 1.40892017069377e-04
5.56632352941176e+00 2.06926575685087e-02 1.40742177530744e-04
5.66661764705882e+00 2.04835591426758e-02 1.40569665549100e-04
5.76691176470588e+00 2.02765736474703e-02 1.40375365137571e-04
5.86720588235294e+00 2.00716797321734e-02 1.40160125028989e-04
5.96750000000000e+00 1.98688562611050e-02 1.39924760418785e-04
6.06779411764706e+00 1.96680823125175e-02 1.39670054575936e-04
6.16808823529412e+00 1.94693371760764e-02 1.39396760587208e-04
6.26838235294118e+00 1.92726003510399e-02 1.39105602968723e-04
6.36867647058824e+00 1.90778515431891e-02 1.38797278962622e-04
6.46897058823529e+00 1.88850706636983e-02 1.38472459740290e-04
6.56926470588235e+00 1.86942378267372e-02 1.38131791754682e-04
6.66955882352941e+00 1.85053333477059e-02 1.37775897993470e-04
6.76985294117647e+00 1.83183377403435e-02 1.37405378960833e-04
6.87014705882353e+00 1.81332317155863e-02 1.37020813591455e-04
6.97044117647059e+00 1.79499961792840e-02 1.36622760367501e-04
7.07073529411765e+00 1.77686122302332e-02 1.36211758120898e-04
7.17102941176471e+00 1.75890611584777e-02 1.35788327026499e-04
7.27132352941176e+00 1.74113244426169e-02 1.35352969309206e-04
7.37161764705882e+00 1.72353837486635e-02 1.34906169904399e-04
7.47191176470588e+00 1.70612209278946e-02 1.34448397275927e-04
7.57220588235294e+00 1.68888180152080e-02 1.33980104177014e-04
7.67250000000000e+00 1.67181572265774e-02 1.33501728202572e-04
7.77279411764706e+00 1.65492209579150e-02 1.33013692305886e-04
7.87308823529412e+00 1.63819917830217e-02 1.32516405469494e-04
7.97338235294118e+00 1.62164524519975e-02 1.32010263329751e-04
8.07367647058824e+00 1.60525858888326e-02 1.31495648612856e-04
8.17397058823529e+00 1.58903751902807e-02 1.30972931543345e-04
8.27426470588235e+00 1.57298036239016e-02 1.30442470401583e-04
8.37455882352941e+00 1.55708546265261e-02 1.29904612043078e-04
8.47485294117647e+00 1.54135118019723e-02 1.29359692245946e-04
8.57514705882353e+00 1.52577589199338e-02 1.28808036036700e-04
8.67544117647059e+00 1.51035799141104e-02 1.28249958194976e-04
8.77573529411765e+00 1.49509588805514e-02 1.27685763546287e-04
8.87602941176471e+00 1.47998800761856e-02 1.27115747421068e-04
8.97632352941176e+00 1.46503279166807e-02 1.26540195918579e-04
9.07661764705882e+00 1.45022869753564e-02 1.25959386154451e-04
9.17691176470588e+00 1.43557419814186e-02 1.25373586644435e-04
9.27720588235294e+00 1.42106778185406e-02 1.24783057661755e-04
9.37750000000000e+00 1.40670795228297e-02 1.24188051450825e-04
9.47779411764706e+00 1.39249322817618e-02 1.23588812427691e-04
9.57808823529412e+00 1.37842214324925e-02 1.22985577509991e-04
9.67838235294118e+00 1.36449324604888e-02 1.22378576424092e-04
9.77867647058824e+00 1.35070509975967e-02 1.21768031879105e-04
9.87897058823529e+00 1.33705628209975e-02 1.21154159730010e-04
9.97926470588235e+00 1.32354538515933e-02 1.20537169381838e-04
1.00795588235294e+01 1.31017101521554e-02 1.19917263640245e-04
1.01798529411765e+01 1.29693179273593e-02 1.19294639212376e-04
1.02801470588235e+01 1.28382635206017e-02 1.18669487083099e-04
1.03804411764706e+01 1.27085334132759e-02 1.18041992302274e-04
1.04807352941176e+01 1.25801142233839e-02 1.17412334591179e-04
1.05810294117647e+01 1.24529927029549e-02 1.16780687692472e-04
1.06813235294118e+01 1.23271557403100e-02 1.16147220089548e-04
1.07816176470588e+01 1.22025903550389e-02 1.15512095728039e-04
1.08819117647059e+01 1.20792836978973e-02 1.14875473321111e-04
1.09822058823529e+01 1.19572230494813e-02 1.14237506782871e-04
1.10825000000000e+01 1.18363958189183e-02 1.13598345621029e-04
1.11827941176471e+01 1.17167895415013e-02 1.12958134322278e-04
1.12830882352941e+01 1.15983918806313e-02 1.12317012991524e-04
1.13833823529412e+01 1.14811906232822e-02 1.11675117994146e-04
1.14836764705882e+01 1.13651736798387e-02 1.11032581303643e-04
1.15839705882353e+01 1.12503290828517e-02 1.10389530882330e-04
1.16842647058824e+01 1.11366449858037e-02 1.09746091025975e-04
1.17845588235294e+01 1.10241096609359e-02 1.09102381785815e-04
1.18848529411765e+01 1.09127115009179e-02 1.08458519540141e-04
1.19851470588235e+01 1.08024390147409e-02 1.07814617569419e-04
1.20854411764706e+01 1.06932808275105e-02 1.07170785446005e-04
1.21857352941176e+01 1.05852256792774e-02 1.06527129583577e-04
1.22860294117647e+01 1.04782624230067e-02 1.05883752689747e-04
1.23863235294118e+01 1.03723800260559e-02 1.05240754289199e-04
1.24866176470588e+01 1.02675675663817e-02 1.04598231250743e-04
1.25869117647059e+01 1.01638142323074e-02 1.03956277211016e-04
1.26872058823529e+01 1.00611093214074e-02 1.03314982879883e-04
1.27875000000000e+01 9.95944223940507e-03 1.02674436316453e-04
1.28877941176471e+01 9.85880249830138e-03 1.02034722417354e-04
1.29880882352941e+01 9.75917971764804e-03 1.01395923388579e-04
1.30883823529412e+01 9.66056362109795e-03 1.00758119221348e-04
1.31886764705882e+01 9.56294403614524e-03 1.00121387155130e-04
1.32889705882353e+01 9.46631089307746e-03 9.94858019508174e-05
1.33892647058824e+01 9.37065422393687e-03 9.88514361375049e-05
1.34895588235294e+01 9.27596416079356e-03 9.82183595349760e-05
1.35898529411765e+01 9.18223093684241e-03 9.75866396808343e-05
1.36901470588235e+01 9.08944488325967e-03 9.69563422616516e-05
1.37904411764706e+01 8.99759642892353e-03 9.63275306132281e-05
1.38907352941176e+01 8.90667609942942e-03 9.57002661335813e-05
1.39910294117647e+01 8.81667451547087e-03 9.50746078327692e-05
1.40913235294118e+01 8.72758239381214e-03 9.44506127272020e-05
1.41916176470588e+01 8.63939054437140e-03 9.38283362379928e-05
1.42919117647059e+01 8.55208986993192e-03 9.32078317204829e-05
1.43922058823529e+01 8.46567136520375e-03 9.25891506891688e-05
1.44925000000000e+01 8.38012611589587e-03 9.19723430206378e-05
1.45927941176471e+01 8.29544529721859e-03 9.13574565343569e-05
1.46930882352941e+01 8.21162017472186e-03 9.07445373514951e-05
1.47933823529412e+01 8.12864210162866e-03 9.01336302576399e-05
1.48936764705882e+01 8.04650251853670e-03 8.95247782655189e-05
1.49939705882353e+01 7.96519295253657e-03 8.89180228184407e-05
1.50942647058824e+01 7.88470501633767e-03 8.83134039737723e-05
1.51945588235294e+01 7.80503040688140e-03 8.77109600128347e-05
1.52948529411765e+01 7.72616090606347e-03 8.71107277681594e-05
1.53951470588235e+01 7.64808837829221e-03 8.65127429545015e-05
1.54954411764706e+01 7.57080477018499e-03 8.59170397625378e-05
1.55957352941176e+01 7.49430210973924e-03 8.53236511764785e-05
1.56960294117647e+01 7.41857250502904e-03 8.47326086068350e-05
1.57963235294118e+01 7.34360814484516e-03 8.41439421941700e-05
1.58966176470588e+01 7.26940129642137e-03 8.35576811165092e-05
1.59969117647059e+01 7.19594430513050e-03 8.29738532071765e-05
1.60972058823529e+01 7.12322959369493e-03 8.23924851250676e-05
1.61975000000000e+01 7.05124966140571e-03 8.18136025080623e-05
1.62977941176471e+01 6.97999708291345e-03 8.12372296315051e-05
1.63980882352941e+01 6.90946450877907e-03 8.06633896861839e-05
1.64983823529412e+01 6.83964466338661e-03 8.00921050597975e-05
1.65986764705882e+01 6.77053034463954e-03 7.95233969819563e-05
1.66989705882353e+01 6.70211442321849e-03 7.89572856793028e-05
1.67992647058824e+01 6.63438984184588e-03 7.83937905152336e-05
1.68995588235294e+01 6.56734961416334e-03 7.78329296723250e-05
1.69998529411765e+01 6.50098682520497e-03 7.72747204071377e-05
1.71001470588235e+01 6.43529462947900e-03 7.67191793083133e-05
1.72004411764706e+01 6.37026625066655e-03 7.61663219668003e-05
1.73007352941176e+01 6.30589498092379e-03 7.56161632237649e-05
1.74010294117647e+01 6.24217417982511e-03 7.50687168717414e-05
1.75013235294118e+01 6.17909727478116e-03 7.45239958919893e-05
1.76016176470588e+01 6.11665775924759e-03 7.39820126950292e-05
1.77019117647059e+01 6.05484919242831e-03 7.34427788104660e-05
1.78022058823529e+01 5.99366519861107e-03 7.29063050182409e-05
1.79025000000000e+01 5.93309946651036e-03 7.23726014667730e-05
1.80027941176471e+01 5.87314574828479e-03 7.18416773950672e-05
1.81030882352941e+01 5.81379785989518e-03 7.13135413507978e-05
1.82033823529412e+01 5.75504967945494e-03 7.07882014113967e-05
1.83036764705882e+01 5.69689514693860e-03 7.02656648958599e-05
1.84039705882353e+01 5.63932826355725e-03 6.97459384849139e-05
1.85042647058824e+01 5.58234309113963e-03 6.92290283291531e-05
1.86045588235294e+01 5.52593375121821e-03 6.87149397906268e-05
1.87048529411765e+01 5.47009442533487e-03 6.82036776434425e-05
1.88051470588235e+01 5.41481935352033e-03 6.76952462771854e-05
1.89054411764706e+01 5.36010283400917e-03 6.71896494291175e-05
1.90057352941176e+01 5.30593922265254e-03 6.66868903797041e-05
1.91060294117647e+01 5.25232293205636e-03 6.61869717094119e-05
1.92063235294118e+01 5.19924843184992e-03 6.56898954860571e-05
1.93066176470588e+01 5.14671024726283e-03 6.51956634548541e-05
1.94069117647059e+01 5.09470295884692e-03 6.47042767864437e-05
1.95072058823529e+01 5.04322120191725e-03 6.42157361793587e-05
1.96075000000000e+01 4.99225966599910e-03 6.37300419521756e-05
1.97077941176471e+01 4.94181309402537e-03 6.32471938172941e-05
1.98080882352941e+01 4.89187628256464e-03 6.27671910535752e-05
1.99083823529412e+01 4.84244408050720e-03 6.22900326815032e-05
2.00086764705882e+01 4.79351138879492e-03 6.18157172289711e-05
2.01089705882353e+01 4.74507315989558e-03 6.13442428254196e-05
2.02092647058824e+01 4.69712439728220e-03 6.08756072864785e-05
2.03095588235294e+01 4.64966015468528e-03 6.04098079035369e-05
2.04098529411765e+01 4.60267553628547e-03 5.99468416029522e-05
2.05101470588235e+01 4.55616569549938e-03 5.94867051076230e-05
2.06104411764706e+01 4.51012583471790e-03 5.90293947192299e-05
2.07107352941176e+01 4.46455120481189e-03 5.85749064736261e-05
2.08110294117647e+01 4.41943710442638e-03 5.81232359427090e-05
2.09113235294118e+01 4.37477888014809e-03 5.76743783834022e-05
2.10116176470588e+01 4.33057192536718e-03 5.72283288888977e-05
2.11119117647059e+01 4.28681168002335e-03 5.67850821836677e-05
2.12122058823529e+01 4.24349363013545e-03 5.63446327041855e-05
2.13125000000000e+01 4.20061330733613e-03 5.59069746714697e-05
2.14127941176471e+01 4.15816628821368e-03 5.54721019067225e-05
2.15130882352941e+01 4.11614819445204e-03 5.50400079689097e-05
2.16133823529412e+01 4.07455469177763e-03 5.46106862944454e-05
2.17136764705882e+01 4.03338148971439e-03 5.41841300065335e-05
2.18139705882353e+01 3.99262434114144e-03 5.37603319895322e-05
2.19142647058824e+01 3.95227904185498e-03 5.33392849557700e-05
2.20145588235294e+01 3.91234142995428e-03 5.29209812739542e-05
2.21148529411765e+01 3.87280738595782e-03 5.25054130963034e-05
2.22151470588235e+01 3.83367283182815e-03 5.20925724876527e-05
2.23154411764706e+01 3.79493373073600e-03 5.16824512480823e-05
2.24157352941176e+01 3.75658608664434e-03 5.12750410371324e-05
2.25160294117647e+01 3.71862594372832e-03 5.08703332121738e-05
2.26163235294118e+01 3.68104938647443e-03 5.04683189475476e-05
2.27166176470588e+01 3.64385253876500e-03 5.00689893555985e-05
2.28169117647059e+01 3.60703156365029e-03 4.96723353196201e-05
2.29172058823529e+01 3.57058266295276e-03 4.92783475578885e-05
2.30175000000000e+01 3.53450207687541e-03 4.88870166811817e-05
2.31177941176471e+01 3.49878608346033e-03 4.84983330422950e-05
2.32180882352941e+01 3.46343099866932e-03 4.81122868462573e-05
2.33183823529412e+01 3.42843317553529e-03 4.77288682623039e-05
2.34186764705882e+01 3.39378900394348e-03 4.73480672683965e-05
2.35189705882353e+01 3.35949491025929e-03 4.69698737103373e-05
2.36192647058824e+01 3.32554735695959e-03 4.65942773548564e-05
2.37195588235294e+01 3.29194284212707e-03 4.62212677494821e-05
2.38198529411765e+01 3.25867789951481e-03 4.58508343245401e-05
2.39201470588235e+01 3.22574909775924e-03 4.54829664968037e-05
2.40204411764706e+01 3.19315304017042e-03 4.51176535247683e-05
2.41207352941176e+01 3.16088636438202e-03 4.47548846084027e-05
2.42210294117647e+01 3.12894574187316e-03 4.43946487570893e-05
2.43213235294118e+01 3.09732787802178e-03 4.40369348853364e-05
2.44216176470588e+01 3.06602951136467e-03 4.36817319100572e-05
2.45219117647059e+01 3.03504741339558e-03 4.33290286141900e-05
2.46222058823529e+01 3.00437838823213e-03 4.29788136977783e-05
2.47225000000000e+01 2.97401927228630e-03 4.26310758238174e-05
2.48227941176471e+01 2.94396693381768e-03 4.22858034952416e-05
2.49230882352941e+01 2.91421827297447e-03 4.19429851435819e-05
2.50233823529412e+01 2.88477022110655e-03 4.16026092190891e-05
2.51236764705882e+01 2.85561974057232e-03 4.12646640637327e-05
2.52239705882353e+01 2.82676382442549e-03 4.09291379584217e-05
2.53242647058824e+01 2.79819949610488e-03 4.05960191653947e-05
2.54245588235294e+01 2.76992380901685e-03 4.02652958136048e-05
2.55248529411765e+01 2.74193384656563e-03 3.99369559808796e-05
2.56251470588235e+01 2.71422672151534e-03 3.96109877774498e-05
2.57254411764706e+01 2.68679957580542e-03 3.92873792276601e-05
2.58257352941176e+01 2.65964958025600e-03 3.89661183503672e-05
2.59260294117647e+01 2.63277393417293e-03 3.86471930508842e-05
2.60263235294118e+01 2.60616986537060e-03 3.83305911981521e-05
2.61266176470588e+01 2.57983462957161e-03 3.80163007032004e-05
2.62269117647059e+01 2.55376551022935e-03 3.77043094076333e-05
2.63272058823529e+01 2.52795981824777e-03 3.73946051245460e-05
2.64275000000000e+01 2.50241489170410e-03 3.70871756752295e-05
2.65277941176471e+01 2.47712809547950e-03 3.67820087884593e-05
2.66280882352941e+01 2.45209682127371e-03 3.64790921720607e-05
2.67283823529412e+01 2.42731848704714e-03 3.61784135856870e-05
2.68286764705882e+01 2.40279053685151e-03 3.58799607369058e-05
2.69289705882353e+01 2.37851044056637e-03 3.55837213190800e-05
2.70292647058824e+01 2.35447569363804e-03 3.52896830453465e-05
2.71295588235294e+01 2.33068381673414e-03 3.49978335547346e-05
2.72298529411765e+01 2.30713235575140e-03 3.47081604785561e-05
2.73301470588235e+01 2.28381888129670e-03 3.44206515079265e-05
2.74304411764706e+01 2.26074098852580e-03 3.41352942969287e-05
2.75307352941176e+01 2.23789629689539e-03 3.38520765276220e-05
2.76310294117647e+01 2.21528244983610e-03 3.35709858214900e-05
2.77313235294118e+01 2.19289711475550e-03 3.32920098018481e-05
2.78316176470588e+01 2.17073798254935e-03 3.30151361573243e-05
2.79319117647059e+01 2.14880276744682e-03 3.27403525505292e-05
2.80322058823529e+01 2.12708920677464e-03 3.24676466509469e-05
2.81325000000000e+01 2.10559506072384e-03 3.21970061644240e-05
2.82327941176471e+01 2.08431811204376e-03 3.19284187506035e-05
2.83330882352941e+01 2.06325616603981e-03 3.16618720808547e-05
2.84333823529412e+01 2.04240705011871e-03 3.13973538972067e-05
2.85336764705882e+01 2.02176861364112e-03 3.11348519271985e-05
2.86339705882353e+01 2.00133872769985e-03 3.08743539143665e-05
2.87342647058824e+01 1.98111528490024e-03 3.06158476455729e-05
2.88345588235294e+01 1.96109619907384e-03 3.03593208739970e-05
2.89348529411765e+01 1.94127940527173e-03 3.01047613729273e-05
2.90351470588235e+01 1.92166285934128e-03 2.98521569904893e-05
2.91354411764706e+01 1.90224453778587e-03 2.96014955702514e-05
2.92357352941176e+01 1.88302243755628e-03 2.93527650039244e-05
2.93360294117647e+01 1.86399457577959e-03 2.91059531586956e-05
2.94363235294118e+01 1.84515898974958e-03 2.88610479278286e-05
2.95366176470588e+01 1.82651373652767e-03 2.86180372821513e-05
2.96369117647059e+01 1.80805689280860e-03 2.83769091951453e-05
2.97372058823529e+01 1.78978655472203e-03 2.81376516694665e-05
2.98375000000000e+01 1.77170083763617e-03 2.79002527607092e-05
2.99377941176471e+01 1.75379787590394e-03 2.76647005096188e-05
3.00380882352941e+01 1.73607582285026e-03 2.74309829890987e-05
3.01383823529412e+01 1.71853285040033e-03 2.71990883520488e-05
3.02386764705882e+01 1.70116714895194e-03 2.69690047614939e-05
3.03389705882353e+01 1.68397692718887e-03 2.67407204151871e-05
3.04392647058824e+01 1.66696041189609e-03 2.65142235676483e-05
3.05395588235294e+01 1.65011584772205e-03 2.62895024669147e-05
3.06398529411765e+01 1.63344149716330e-03 2.60665453982249e-05
3.07401470588235e+01 1.61693564021824e-03 2.58453407284797e-05
3.08404411764706e+01 1.60059657426577e-03 2.56258768410569e-05
3.09407352941176e+01 1.58442261388973e-03 2.54081421786279e-05
3.10410294117647e+01 1.56841209065379e-03 2.51921251834498e-05
3.11413235294118e+01 1.55256335308434e-03 2.49778143384828e-05
3.12416176470588e+01 1.53687476634385e-03 2.47651982092448e-05
3.13419117647059e+01 1.52134471211475e-03 2.45542653822800e-05
3.14422058823529e+01 1.50597158843247e-03 2.43450044865986e-05
3.15425000000000e+01 1.49075380952029e-03 2.41374042128773e-05
3.16427941176471e+01 1.47568980557839e-03 2.39314532577310e-05
