Energy (eV)          EEDF (eV^-(3/2))     First Anisotropy
4.96666666666667e-03 1.39755115311290e+00 9.41434524735248e-04
1.49000000000000e-02 1.38157033939025e+00 1.55090162716743e-03
2.48333333333333e-02 1.36577226412583e+00 2.03765493271816e-03
3.47666666666667e-02 1.35015483781760e+00 2.40158847221698e-03
4.47000000000000e-02 1.33471599473677e+00 2.70030536921564e-03
5.46333333333333e-02 1.31945369277487e+00 2.95573453600165e-03
6.45666666666667e-02 1.30436591324130e+00 3.17929838116448e-03
7.45000000000000e-02 1.28945066048963e+00 3.37793844168380e-03
8.44333333333333e-02 1.27470596167971e+00 3.55628724804005e-03
9.43666666666667e-02 1.26012986656907e+00 3.71763916486789e-03
1.04300000000000e-01 1.24572044719431e+00 3.86444768827488e-03
1.14233333333333e-01 1.23147579758662e+00 3.99860554061764e-03
1.24166666666667e-01 1.21739403371973e+00 4.12161398332883e-03
1.34100000000000e-01 1.20347329300437e+00 4.23469089269030e-03
1.44033333333333e-01 1.18971173406279e+00 4.33884277383047e-03
1.53966666666667e-01 1.17610753677237e+00 4.43491457464892e-03
1.63900000000000e-01 1.16265890171567e+00 4.52362515657583e-03
1.73833333333333e-01 1.14936404998053e+00 4.60559314240881e-03
1.83766666666667e-01 1.13622122315384e+00 4.68135626245014e-03
1.93700000000000e-01 1.12322868284558e+00 4.75138607266246e-03
2.03633333333333e-01 1.11038471048497e+00 4.81609928918276e-03
2.13566666666667e-01 1.09768760728155e+00 4.87586673448120e-03
2.23500000000000e-01 1.08513569380208e+00 4.93102045459352e-03
2.33433333333333e-01 1.07272730976737e+00 4.98185940261412e-03
2.43366666666667e-01 1.06046081399106e+00 5.02865410669366e-03
2.53300000000000e-01 1.04833458399675e+00 5.07165050572052e-03
2.63233333333333e-01 1.03634701581782e+00 5.11107308711096e-03
2.73166666666667e-01 1.02449652392060e+00 5.14712754904648e-03
2.83100000000000e-01 1.01278154085366e+00 5.18000304230802e-03
2.93033333333333e-01 1.00120051705168e+00 5.20987403264368e-03
3.02966666666667e-01 9.89751920747819e-01 5.23690192666386e-03
3.12900000000000e-01 9.78434237649299e-01 5.26123646759899e-03
3.22833333333333e-01 9.67245970746166e-01 5.28301690467350e-03
3.32766666666667e-01 9.56185640215951e-01 5.30237304167738e-03
3.42700000000000e-01 9.45251783121644e-01 5.31942615120685e-03
3.52633333333333e-01 9.34442953225548e-01 5.33428974262063e-03
3.62566666666667e-01 9.23757720888698e-01 5.34707026905154e-03
3.72500000000000e-01 9.13194672788094e-01 5.35786775178204e-03
3.82433333333333e-01 9.02752411735868e-01 5.36677630332044e-03
3.92366666666667e-01 8.92429556575205e-01 5.37388462212751e-03
4.02300000000000e-01 8.82224741914461e-01 5.37927643422753e-03
4.12233333333333e-01 8.72136617951714e-01 5.38303086037340e-03
4.22166666666667e-01 8.62163850368501e-01 5.38522277328731e-03
4.32100000000000e-01 8.52305120078968e-01 5.38592311946277e-03
4.42033333333333e-01 8.42559123059770e-01 5.38519918344054e-03
4.51966666666667e-01 8.32924570242661e-01 5.38311485283697e-03
4.61900000000000e-01 8.23400187277139e-01 5.37973085895429e-03
4.71833333333333e-01 8.13984714365657e-01 5.37510497105738e-03
4.81766666666667e-01 8.04676906155835e-01 5.36929219766333e-03
4.91700000000000e-01 7.95475531515360e-01 5.36234497052735e-03
5.01633333333333e-01 7.86379373372406e-01 5.35431329003331e-03
5.11566666666667e-01 7.77387228608097e-01 5.34524488125464e-03
5.21500000000000e-01 7.68497907842598e-01 5.33518533744559e-03
5.31433333333333e-01 7.59710235280645e-01 5.32417823050722e-03
5.41366666666667e-01 7.51023048604736e-01 5.31226523420459e-03
5.51300000000000e-01 7.42435198771513e-01 5.29948623804895e-03
5.61233333333333e-01 7.33945549862295e-01 5.28587943231460e-03
5.71166666666667e-01 7.25552978977355e-01 5.27148140691170e-03
5.81100000000000e-01 7.17256376041846e-01 5.25632724318778e-03
5.91033333333333e-01 7.09054643661180e-01 5.24045058007448e-03
6.00966666666667e-01 7.00946697016721e-01 5.22388369458132e-03
6.10900000000000e-01 6.92931463680545e-01 5.20665757683741e-03
6.20833333333333e-01 6.85007883475572e-01 5.18880198202932e-03
6.30766666666667e-01 6.77174908372869e-01 5.17034549678909e-03
6.40700000000000e-01 6.69431502314685e-01 5.15131560130882e-03
6.50633333333333e-01 6.61776641079172e-01 5.13173871043371e-03
6.60566666666667e-01 6.54209312179506e-01 5.11164022906012e-03
6.70500000000000e-01 6.46728514694649e-01 5.09104460413438e-03
6.80433333333333e-01 6.39333259138542e-01 5.06997535736753e-03
6.90366666666667e-01 6.32022567361166e-01 5.04845513195336e-03
7.00300000000000e-01 6.24795472386574e-01 5.02650573654675e-03
7.10233333333333e-01 6.17651018286410e-01 5.00414817143477e-03
7.20166666666667e-01 6.10588260083030e-01 4.98140266831369e-03
7.30100000000000e-01 6.03606263594364e-01 4.95828872782973e-03
7.40033333333333e-01 5.96704105311643e-01 4.93482514059080e-03
7.49966666666667e-01 5.89880872304641e-01 4.91103002132939e-03
7.59900000000000e-01 5.83135662072998e-01 4.88692084121856e-03
7.69833333333333e-01 5.76467582428016e-01 4.86251444478026e-03
7.79766666666667e-01 5.69875751400081e-01 4.83782707945828e-03
7.89700000000000e-01 5.63359297096093e-01 4.81287442365190e-03
7.99633333333333e-01 5.56917357585203e-01 4.78767160033514e-03
8.09566666666667e-01 5.50549080808452e-01 4.76223320284077e-03
8.19500000000000e-01 5.44253624441991e-01 4.73657331934834e-03
8.29433333333333e-01 5.38030155786626e-01 4.71070554385037e-03
8.39366666666667e-01 5.31877851679705e-01 4.68464299878138e-03
8.49300000000000e-01 5.25795898363816e-01 4.65839835654464e-03
8.59233333333333e-01 5.19783491380039e-01 4.63198384832425e-03
8.69166666666667e-01 5.13839835482068e-01 4.60541128406376e-03
8.79100000000000e-01 5.07964144510135e-01 4.57869207150098e-03
8.89033333333333e-01 5.02155641287828e-01 4.55183722322172e-03
8.98966666666667e-01 4.96413557538466e-01 4.52485737439520e-03
9.08900000000000e-01 4.90737133763980e-01 4.49776279969521e-03
9.18833333333333e-01 4.85125619145191e-01 4.47056341891132e-03
9.28766666666667e-01 4.79578271460420e-01 4.44326881277200e-03
9.38700000000000e-01 4.74094356969094e-01 4.41588823806037e-03
9.48633333333333e-01 4.68673150315377e-01 4.38843063203782e-03
9.58566666666667e-01 4.63313934448985e-01 4.36090462662579e-03
9.68500000000000e-01 4.58016000513306e-01 4.33331856196898e-03
9.78433333333333e-01 4.52778647752266e-01 4.30568048987783e-03
9.88366666666667e-01 4.47601183433338e-01 4.27799818659262e-03
9.98300000000000e-01 4.42482922739959e-01 4.25027916794973e-03
1.00823333333333e+00 4.37423188666828e-01 4.22253068019052e-03
1.01816666666667e+00 4.32421312004054e-01 4.19475972345032e-03
1.02810000000000e+00 4.27476631158844e-01 4.16697307710164e-03
1.03803333333333e+00 4.22588492058367e-01 4.13917726114482e-03
1.04796666666667e+00 4.17756248201278e-01 4.11137857001568e-03
1.05790000000000e+00 4.12979260431976e-01 4.08358310769777e-03
1.06783333333333e+00 4.08256896861008e-01 4.05579673887865e-03
1.07776666666667e+00 4.03588532911101e-01 4.02802512360267e-03
1.08770000000000e+00 3.98973551102911e-01 4.00027375029976e-03
1.09763333333333e+00 3.94411340977929e-01 3.97254788885686e-03
1.10756666666667e+00 3.89901299139535e-01 3.94485262323972e-03
1.11750000000000e+00 3.85442829049514e-01 3.91719288260805e-03
1.12743333333333e+00 3.81035340953395e-01 3.88957339624932e-03
1.13736666666667e+00 3.76678251916996e-01 3.86199872433109e-03
1.14730000000000e+00 3.72370985633030e-01 3.83447328725178e-03
1.15723333333333e+00 3.68112972348825e-01 3.80700132237976e-03
1.16716666666667e+00 3.63903648898763e-01 3.77958691307916e-03
1.17710000000000e+00 3.59742458520376e-01 3.75223401642984e-03
1.18703333333333e+00 3.55628850784372e-01 3.72494642171270e-03
1.19696666666667e+00 3.51562281623352e-01 3.69772777783586e-03
1.20690000000000e+00 3.47542213156822e-01 3.67058161954319e-03
1.21683333333333e+00 3.43568113623470e-01 3.64351132758470e-03
1.22676666666667e+00 3.39639457406491e-01 3.61652015465812e-03
1.23670000000000e+00 3.35755724867005e-01 3.58961125021238e-03
1.24663333333333e+00 3.31916402278511e-01 3.56278762224175e-03
1.25656666666667e+00 3.28120981849135e-01 3.53605216184648e-03
1.26650000000000e+00 3.24368961562964e-01 3.50940766672741e-03
1.27643333333333e+00 3.20659845116619e-01 3.48285680454300e-03
1.28636666666667e+00 3.16993141938706e-01 3.45640213618189e-03
1.29630000000000e+00 3.13368367038614e-01 3.43004613803627e-03
1.30623333333333e+00 3.09785040945148e-01 3.40379116686133e-03
1.31616666666667e+00 3.06242689723434e-01 3.37763948184441e-03
1.32610000000000e+00 3.02740844830770e-01 3.35159326573684e-03
1.33603333333333e+00 2.99279043057250e-01 3.32565459115650e-03
1.34596666666667e+00 2.95856826540362e-01 3.29982544153067e-03
1.35590000000000e+00 2.92473742627499e-01 3.27410773115890e-03
1.36583333333333e+00 2.89129343818518e-01 3.24850327290075e-03
1.37576666666667e+00 2.85823187778239e-01 3.22301379806307e-03
1.38570000000000e+00 2.82554837205253e-01 3.19764097545985e-03
1.39563333333333e+00 2.79323859776362e-01 3.17238638042919e-03
1.40556666666667e+00 2.76129828157166e-01 3.14725151372981e-03
1.41550000000000e+00 2.72972319876837e-01 3.12223781965884e-03
1.42543333333333e+00 2.69850917274375e-01 3.09734665634301e-03
1.43536666666667e+00 2.66765207507463e-01 3.07257931370405e-03
1.44530000000000e+00 2.63714782432891e-01 3.04793703069065e-03
1.45523333333333e+00 2.60699238554572e-01 3.02342096679123e-03
1.46516666666667e+00 2.57718177030825e-01 2.99903221912322e-03
1.47510000000000e+00 2.54771203560152e-01 2.97477183883046e-03
1.48503333333333e+00 2.51857928330962e-01 2.95064080376673e-03
1.49496666666667e+00 2.48977966027425e-01 2.92664003475961e-03
1.50490000000000e+00 2.46130935720328e-01 2.90277041122126e-03
1.51483333333333e+00 2.43316460818453e-01 2.87903274495390e-03
1.52476666666667e+00 2.40534169073139e-01 2.85542779563502e-03
1.53470000000000e+00 2.37783692473950e-01 2.83195628568597e-03
1.54463333333333e+00 2.35064667201663e-01 2.80861887515204e-03
1.55456666666667e+00 2.32376733631652e-01 2.78541617645264e-03
1.56450000000000e+00 2.29719536234135e-01 2.76234876854895e-03
1.57443333333333e+00 2.27092723528709e-01 2.73941717285341e-03
1.58436666666667e+00 2.24495948086679e-01 2.71662186728525e-03
1.59430000000000e+00 2.21928866435650e-01 2.69396329977560e-03
1.60423333333333e+00 2.19391139015561e-01 2.67144186516278e-03
1.61416666666667e+00 2.16882430180060e-01 2.64905791859103e-03
1.62410000000000e+00 2.14402408105223e-01 2.62681178838887e-03
1.63403333333333e+00 2.11950744747048e-01 2.60470375390836e-03
1.64396666666667e+00 2.09527115841962e-01 2.58273405830245e-03
1.65390000000000e+00 2.07131200819467e-01 2.56090292080947e-03
1.66383333333333e+00 2.04762682761049e-01 2.53921051549675e-03
1.67376666666667e+00 2.02421248399896e-01 2.51765698344942e-03
1.68370000000000e+00 2.00106588037292e-01 2.49624244449244e-03
1.69363333333333e+00 1.97818395502882e-01 2.47496697680001e-03
1.70356666666667e+00 1.95556368153694e-01 2.45383062852677e-03
1.71350000000000e+00 1.93320206794088e-01 2.43283342899607e-03
1.72343333333333e+00 1.91109615637341e-01 2.41197536913911e-03
1.73336666666667e+00 1.88924302304041e-01 2.39125641259705e-03
1.74330000000000e+00 1.86763977745424e-01 2.37067650640325e-03
1.75323333333333e+00 1.84628356206236e-01 2.35023556221683e-03
1.76316666666667e+00 1.82517155222564e-01 2.32993346692258e-03
1.77310000000000e+00 1.80430095548400e-01 2.30977009283282e-03
1.78303333333333e+00 1.78366901119739e-01 2.28974527968209e-03
1.79296666666667e+00 1.76327299051907e-01 2.26985884475013e-03
1.80290000000000e+00 1.74311019569205e-01 2.25011059260776e-03
1.81283333333333e+00 1.72317795970195e-01 2.23050029783972e-03
1.82276666666667e+00 1.70347364624589e-01 2.21102771471555e-03
1.83270000000000e+00 1.68399464905818e-01 2.19169258650189e-03
1.84263333333333e+00 1.66473839157482e-01 2.17249462888287e-03
1.85256666666667e+00 1.64570232689837e-01 2.15343353920097e-03
1.86250000000000e+00 1.62688393715162e-01 2.13450900535692e-03
1.87243333333333e+00 1.60828073315334e-01 2.11572068989906e-03
1.88236666666667e+00 1.58989025437953e-01 2.09706823885489e-03
1.89230000000000e+00 1.57171006834390e-01 2.07855129023887e-03
1.90223333333333e+00 1.55373777028437e-01 2.06016945878237e-03
1.91216666666667e+00 1.53597098312125e-01 2.04192234437589e-03
1.92210000000000e+00 1.51840735686322e-01 2.02380954020398e-03
1.93203333333333e+00 1.50104456830428e-01 2.00583061808884e-03
1.94196666666667e+00 1.48388032097924e-01 1.98798513656213e-03
1.95190000000000e+00 1.46691234459402e-01 1.97027264864468e-03
1.96183333333333e+00 1.45013839473273e-01 1.95269268777803e-03
1.97176666666667e+00 1.43355625281082e-01 1.93524477554389e-03
1.98170000000000e+00 1.41716372552862e-01 1.91792842910552e-03
1.99163333333333e+00 1.40095864458819e-01 1.90074314770247e-03
2.00156666666667e+00 1.38493886664447e-01 1.88368842003439e-03
2.01150000000000e+00 1.36910227278100e-01 1.86676373138024e-03
2.02143333333333e+00 1.35344676823629e-01 1.84996855063304e-03
2.03136666666667e+00 1.33797028235318e-01 1.83330233736363e-03
2.04130000000000e+00 1.32267076807581e-01 1.81676454863276e-03
2.05123333333333e+00 1.30754620168515e-01 1.80035462654336e-03
2.06116666666667e+00 1.29259458274689e-01 1.78407200499932e-03
2.07110000000000e+00 1.27781393362870e-01 1.76791611622503e-03
2.08103333333333e+00 1.26320229924461e-01 1.75188637881332e-03
2.09096666666667e+00 1.24875774700171e-01 1.73598220419379e-03
2.10090000000000e+00 1.23447836633679e-01 1.72020300287341e-03
2.11083333333333e+00 1.22036226846928e-01 1.70454817295935e-03
2.12076666666667e+00 1.20640758634694e-01 1.68901710635041e-03
2.13070000000000e+00 1.19261247420111e-01 1.67360919471134e-03
2.14063333333333e+00 1.17897510730789e-01 1.65832381845124e-03
2.15056666666667e+00 1.16549368193305e-01 1.64316035265086e-03
2.16050000000000e+00 1.15216641490504e-01 1.62811817278270e-03
2.17043333333333e+00 1.13899154338418e-01 1.61319664412623e-03
2.18036666666667e+00 1.12596732480694e-01 1.59839512744304e-03
2.19030000000000e+00 1.11309203647597e-01 1.58371298445438e-03
2.20023333333333e+00 1.10036397533701e-01 1.56914956767531e-03
2.21016666666667e+00 1.08778145792276e-01 1.55470422584904e-03
2.22010000000000e+00 1.07534281995916e-01 1.54037630919313e-03
2.23003333333333e+00 1.06304641614978e-01 1.52616515963518e-03
2.23996666666667e+00 1.05089062011942e-01 1.51207011601726e-03
2.24990000000000e+00 1.03887382403592e-01 1.49809051912125e-03
2.25983333333333e+00 1.02699443840188e-01 1.48422570228947e-03
2.26976666666667e+00 1.01525089199800e-01 1.47047499640987e-03
2.27970000000000e+00 1.00364163151991e-01 1.45683773473018e-03
2.28963333333333e+00 9.92165121376780e-02 1.44331324384787e-03
2.29956666666667e+00 9.80819843634742e-02 1.42990084848589e-03
2.30950000000000e+00 9.69604297667935e-02 1.41659987610500e-03
2.31943333333333e+00 9.58516999963918e-02 1.40340964824800e-03
2.32936666666667e+00 9.47556484067164e-02 1.39032948511525e-03
2.33930000000000e+00 9.36721300243796e-02 1.37735870998451e-03
2.34923333333333e+00 9.26010015293543e-02 1.36449664089474e-03
2.35916666666667e+00 9.15421212493425e-02 1.35174259503038e-03
2.36910000000000e+00 9.04953491275611e-02 1.33909589295704e-03
2.37903333333333e+00 8.94605467045684e-02 1.32655585063130e-03
2.38896666666667e+00 8.84375771126627e-02 1.31412178360212e-03
2.39890000000000e+00 8.74263050449243e-02 1.30179301107053e-03
2.40883333333333e+00 8.64265967376527e-02 1.28956884821212e-03
2.41876666666667e+00 8.54383199648035e-02 1.27744861020375e-03
2.42870000000000e+00 8.44613440082341e-02 1.26543161611491e-03
2.43863333333333e+00 8.34955396407320e-02 1.25351718153017e-03
2.44856666666667e+00 8.25407791204964e-02 1.24170462240893e-03
2.45850000000000e+00 8.15969361625387e-02 1.22999325881579e-03
2.46843333333333e+00 8.06638859222818e-02 1.21838240783087e-03
2.47836666666667e+00 7.97415049900934e-02 1.20687138724975e-03
2.48830000000000e+00 7.88296713637939e-02 1.19545951916012e-03
2.49823333333333e+00 7.79282644328070e-02 1.18414612312811e-03
2.50816666666667e+00 7.70371649727511e-02 1.17293051974564e-03
2.51810000000000e+00 7.61562551190089e-02 1.16181203405972e-03
2.52803333333333e+00 7.52854183514112e-02 1.15078998902393e-03
2.53796666666667e+00 7.44245394888919e-02 1.13986370889963e-03
2.54790000000000e+00 7.35735046640750e-02 1.12903252254431e-03
2.55783333333333e+00 7.27322013084753e-02 1.11829575711761e-03
2.56776666666667e+00 7.19005181472194e-02 1.10765274134267e-03
2.57770000000000e+00 7.10783451746116e-02 1.09710280865976e-03
2.58763333333333e+00 7.02655736398310e-02 1.08664529117635e-03
2.59756666666667e+00 6.94620960417259e-02 1.07627952279480e-03
2.60750000000000e+00 6.86678061053159e-02 1.06600484223705e-03
2.61743333333333e+00 6.78825987679711e-02 1.05582058722899e-03
2.62736666666667e+00 6.71063701742818e-02 1.04572609750019e-03
2.63730000000000e+00 6.63390176534601e-02 1.03572071768503e-03
2.64723333333333e+00 6.55804397059846e-02 1.02580379173223e-03
2.65716666666667e+00 6.48305359985485e-02 1.01597466578192e-03
2.66710000000000e+00 6.40892073423242e-02 1.00623269094869e-03
2.67703333333333e+00 6.33563556800586e-02 9.96577217947062e-04
2.68696666666667e+00 6.26318840811012e-02 9.87007599851337e-04
2.69690000000000e+00 6.19156967204986e-02 9.77523194765462e-04
2.70683333333333e+00 6.12076988665232e-02 9.68123360655897e-04
2.71676666666667e+00 6.05077968757859e-02 9.58807457999165e-04
2.72670000000000e+00 5.98158981731251e-02 9.49574852343385e-04
2.73663333333333e+00 5.91319112395563e-02 9.40424909340284e-04
2.74656666666667e+00 5.84557456074694e-02 9.31356997285203e-04
2.75650000000000e+00 5.77873118412818e-02 9.22370489574861e-04
2.76643333333333e+00 5.71265215257941e-02 9.13464759930625e-04
2.77636666666667e+00 5.64732872614739e-02 9.04639184835593e-04
2.78630000000000e+00 5.58275226458426e-02 8.95893145892905e-04
2.79623333333333e+00 5.51891422622229e-02 8.87226025232673e-04
2.80616666666667e+00 5.45580616751117e-02 8.78637207850402e-04
2.81610000000000e+00 5.39341974122696e-02 8.70126083870188e-04
2.82603333333333e+00 5.33174669538493e-02 8.61692044127907e-04
2.83596666666667e+00 5.27077887278560e-02 8.53334482415310e-04
2.84590000000000e+00 5.21050820929146e-02 8.45052797651921e-04
2.85583333333333e+00 5.15092673277635e-02 8.36846389637621e-04
2.86576666666667e+00 5.09202656268052e-02 8.28714661206294e-04
2.87570000000000e+00 5.03379990835231e-02 8.20657020310280e-04
2.88563333333333e+00 4.97623906803295e-02 8.12672875935748e-04
2.89556666666667e+00 4.91933642842063e-02 8.04761640169533e-04
2.90550000000000e+00 4.86308446307457e-02 7.96922730199919e-04
2.91543333333333e+00 4.80747573143410e-02 7.89155564388312e-04
2.92536666666667e+00 4.75250287839172e-02 7.81459564252999e-04
2.93530000000000e+00 4.69815863275712e-02 7.73834156389690e-04
2.94523333333333e+00 4.64443580630939e-02 7.66278768693258e-04
2.95516666666667e+00 4.59132729337908e-02 7.58792832261909e-04
2.96510000000000e+00 4.53882606936984e-02 7.51375783240877e-04
2.97503333333333e+00 4.48692518984262e-02 7.44027059188392e-04
2.98496666666667e+00 4.43561779010671e-02 7.36746100903506e-04
2.99490000000000e+00 4.38489708379678e-02 7.29532354196072e-04
3.00483333333333e+00 4.33475636198795e-02 7.22385266391291e-04
3.01476666666667e+00 4.28518899279584e-02 7.15304288084464e-04
3.02470000000000e+00 4.23618842000681e-02 7.08288874840282e-04
3.03463333333333e+00 4.18774816222288e-02 7.01338483830447e-04
3.04456666666667e+00 4.13986181247073e-02 6.94452575518364e-04
3.05450000000000e+00 4.09252303688309e-02 6.87630615290696e-04
3.06443333333333e+00 4.04572557387248e-02 6.80872070222960e-04
3.07436666666667e+00 3.99946323374914e-02 6.74176410696955e-04
3.08430000000000e+00 3.95372989745152e-02 6.67543111967349e-04
3.09423333333333e+00 3.90851951574798e-02 6.60971651050251e-04
3.10416666666667e+00 3.86382610886344e-02 6.54461508276228e-04
3.11410000000000e+00 3.81964376525722e-02 6.48012168794566e-04
3.12403333333333e+00 3.77596664085163e-02 6.41623119579939e-04
3.13396666666667e+00 3.73278895866735e-02 6.35293850923735e-04
