Energy (eV)          EEDF (eV^-(3/2))     First Anisotropy
5.91666666666667e-02 3.39876367783874e-02 2.32159434195966e-05
1.77500000000000e-01 3.35990096576218e-02 3.82455206213951e-05
2.95833333333333e-01 3.32148262405805e-02 5.02489725479258e-05
4.14166666666667e-01 3.28350357187210e-02 5.92236754495072e-05
5.32500000000000e-01 3.24595878613957e-02 6.65901305488097e-05
6.50833333333333e-01 3.20884330122945e-02 7.28891075304605e-05
7.69166666666667e-01 3.17215220842954e-02 7.84022841935893e-05
8.87500000000000e-01 3.13588065507316e-02 8.33008394409413e-05
1.00583333333333e+00 3.10002384395222e-02 8.76990118041013e-05
1.12416666666667e+00 3.06457703279241e-02 9.16780404403793e-05
1.24250000000000e+00 3.02953553358089e-02 9.52984287514430e-05
1.36083333333333e+00 2.99489471155527e-02 9.86068513298590e-05
1.47916666666667e+00 2.96064998550551e-02 1.01640329188248e-04
1.59750000000000e+00 2.92679682629908e-02 1.04428895163534e-04
1.71583333333333e+00 2.89333075640868e-02 1.06997369671947e-04
1.83416666666667e+00 2.86024734992290e-02 1.09366589116557e-04
1.95250000000000e+00 2.82754223131179e-02 1.11554280546381e-04
2.07083333333333e+00 2.79521107492816e-02 1.13575699180984e-04
2.18916666666667e+00 2.76324960491629e-02 1.15444105426924e-04
2.30750000000000e+00 2.73165359413555e-02 1.17171127780940e-04
2.42583333333333e+00 2.70041886365612e-02 1.18767042440928e-04
2.54416666666667e+00 2.66954128260174e-02 1.20240993865728e-04
2.66250000000000e+00 2.63901676718685e-02 1.21601170243386e-04
2.78083333333333e+00 2.60884128021640e-02 1.22854943736773e-04
2.89916666666667e+00 2.57901083088425e-02 1.24008985549550e-04
3.01750000000000e+00 2.54952147389741e-02 1.25069360474966e-04
3.13583333333333e+00 2.52036930898450e-02 1.26041604355524e-04
3.25416666666667e+00 2.49155048066400e-02 1.26930789691559e-04
3.37250000000000e+00 2.46306117743834e-02 1.27741580888965e-04
3.49083333333333e+00 2.43489763131332e-02 1.28478280259548e-04
3.60916666666667e+00 2.40705611754601e-02 1.29144868077327e-04
3.72750000000000e+00 2.37953295389653e-02 1.29745036964810e-04
3.84583333333333e+00 2.35232450015995e-02 1.30282220797875e-04
3.96416666666667e+00 2.32542715790041e-02 1.30759620528578e-04
4.08250000000000e+00 2.29883736975208e-02 1.31180226699705e-04
4.20083333333333e+00 2.27255161896409e-02 1.31546838445300e-04
4.31916666666667e+00 2.24656642912588e-02 1.31862080893448e-04
4.43750000000000e+00 2.22087836351071e-02 1.32128420534973e-04
4.55583333333333e+00 2.19548402463404e-02 1.32348178180500e-04
4.67416666666667e+00 2.17038005397357e-02 1.32523541130777e-04
4.79250000000000e+00 2.14556313135044e-02 1.32656574040350e-04
4.91083333333333e+00 2.12102997450090e-02 1.32749228025709e-04
5.02916666666667e+00 2.09677733879396e-02 1.32803349447392e-04
5.14750000000000e+00 2.07280201664613e-02 1.32820687820953e-04
5.26583333333333e+00 2.04910083710640e-02 1.32802902384118e-04
5.38416666666667e+00 2.02567066557343e-02 1.32751568606895e-04
5.50250000000000e+00 2.00250840324067e-02 1.32668184101943e-04
5.62083333333333e+00 1.97961098669443e-02 1.32554173462222e-04
5.73916666666667e+00 1.95697538763221e-02 1.32410893201028e-04
5.85750000000000e+00 1.93459861233548e-02 1.32239636267474e-04
5.97583333333333e+00 1.91247770128058e-02 1.32041635675565e-04
6.09416666666667e+00 1.89060972885944e-02 1.31818068330500e-04
6.21250000000000e+00 1.86899180287774e-02 1.31570058546860e-04
6.33083333333333e+00 1.84762106417833e-02 1.31298680813687e-04
6.44916666666667e+00 1.82649468636534e-02 1.31004962812283e-04
6.56750000000000e+00 1.80560987532570e-02 1.30689888205469e-04
6.68583333333333e+00 1.78496386886482e-02 1.30354398772599e-04
6.80416666666667e+00 1.76455393643480e-02 1.29999396828293e-04
6.92250000000000e+00 1.74437737867762e-02 1.29625747468302e-04
7.04083333333333e+00 1.72443152707279e-02 1.29234280236890e-04
7.15916666666667e+00 1.70471374367019e-02 1.28825791093543e-04
7.27750000000000e+00 1.68522142065346e-02 1.28401044246556e-04
7.39583333333333e+00 1.66595197999934e-02 1.27960773467902e-04
7.51416666666667e+00 1.64690287321542e-02 1.27505683713190e-04
7.63250000000000e+00 1.62807158092265e-02 1.27036452637417e-04
7.75083333333333e+00 1.60945561252579e-02 1.26553731640461e-04
7.86916666666667e+00 1.59105250595666e-02 1.26058147217017e-04
7.98750000000000e+00 1.57285982727434e-02 1.25550302223786e-04
8.10583333333333e+00 1.55487517034663e-02 1.25030776716555e-04
8.22416666666667e+00 1.53709615659882e-02 1.24500129087001e-04
8.34250000000000e+00 1.51952043463074e-02 1.23958897132919e-04
8.46083333333333e+00 1.50214567990872e-02 1.23407598732260e-04
8.57916666666667e+00 1.48496959452024e-02 1.22846732809624e-04
8.69750000000000e+00 1.46798990680668e-02 1.22276780248517e-04
8.81583333333333e+00 1.45120437106563e-02 1.21698204436591e-04
8.93416666666667e+00 1.43461076731138e-02 1.21111452094476e-04
9.05250000000000e+00 1.41820690092266e-02 1.20516954059915e-04
9.17083333333333e+00 1.40199060235488e-02 1.19915125730375e-04
9.28916666666667e+00 1.38595972690652e-02 1.19306367779434e-04
9.40750000000000e+00 1.37011215438116e-02 1.18691066835956e-04
9.52583333333333e+00 1.35444578880923e-02 1.18069595844250e-04
9.64416666666667e+00 1.33895855822046e-02 1.17442314687715e-04
9.76250000000000e+00 1.32364841431932e-02 1.16809570781208e-04
9.88083333333333e+00 1.30851333221611e-02 1.16171699364511e-04
9.99916666666667e+00 1.29355131020538e-02 1.15529023965535e-04
1.01175000000000e+01 1.27876036949753e-02 1.14881857337584e-04
1.02358333333333e+01 1.26413855374180e-02 1.14230500947117e-04
1.03541666666667e+01 1.24968392924542e-02 1.13575245787902e-04
1.04725000000000e+01 1.23539458427918e-02 1.12916373672213e-04
1.05908333333333e+01 1.22126862884154e-02 1.12254155938128e-04
1.07091666666667e+01 1.20730419481106e-02 1.11588854622099e-04
1.08275000000000e+01 1.19349943528995e-02 1.10920723570697e-04
1.09458333333333e+01 1.17985252437539e-02 1.10250007185927e-04
1.10641666666667e+01 1.16636165729402e-02 1.09576941513544e-04
1.11825000000000e+01 1.15302504978091e-02 1.08901755276011e-04
1.13008333333333e+01 1.13984093785775e-02 1.08224668657683e-04
1.14191666666667e+01 1.12680757795145e-02 1.07545894317818e-04
1.15375000000000e+01 1.11392324630584e-02 1.06865638352974e-04
1.16558333333333e+01 1.10118623876680e-02 1.06184099123052e-04
1.17741666666667e+01 1.08859487088639e-02 1.05501468196618e-04
1.18925000000000e+01 1.07614747736521e-02 1.04817931249740e-04
1.20108333333333e+01 1.06384241184423e-02 1.04133666933283e-04
1.21291666666667e+01 1.05167804699591e-02 1.03448847757021e-04
1.22475000000000e+01 1.03965277399519e-02 1.02763640930963e-04
1.23658333333333e+01 1.02776500231786e-02 1.02078207273765e-04
1.24841666666667e+01 1.01601315982001e-02 1.01392702041265e-04
1.26025000000000e+01 1.00439569223572e-02 1.00707275715524e-04
1.27208333333333e+01 9.92911062981867e-03 1.00022072953882e-04
1.28391666666667e+01 9.81557753226992e-03 9.93372333668062e-05
1.29575000000000e+01 9.70334261414090e-03 9.86528922591766e-05
1.30758333333333e+01 9.59239103071622e-03 9.79691796192898e-05
1.31941666666667e+01 9.48270810872869e-03 9.72862208502865e-05
1.33125000000000e+01 9.37427934182245e-03 9.66041374676577e-05
1.34308333333333e+01 9.26709038872357e-03 9.59230461272972e-05
1.35491666666667e+01 9.16112707374789e-03 9.52430593142853e-05
1.36675000000000e+01 9.05637538248500e-03 9.45642860001283e-05
1.37858333333333e+01 8.95282146002771e-03 9.38868307088210e-05
1.39041666666667e+01 8.85045161140248e-03 9.32107941663177e-05
1.40225000000000e+01 8.74925229746130e-03 9.25362739206292e-05
1.41408333333333e+01 8.64921013316817e-03 9.18633634447723e-05
1.42591666666667e+01 8.55031188795984e-03 9.11921527498958e-05
1.43775000000000e+01 8.45254448183336e-03 9.05227289710183e-05
1.44958333333333e+01 8.35589498368797e-03 8.98551755056856e-05
1.46141666666667e+01 8.26035061162297e-03 8.91895725934161e-05
1.47325000000000e+01 8.16589872920972e-03 8.85259978695474e-05
1.48508333333333e+01 8.07252684388732e-03 8.78645255384144e-05
1.49691666666667e+01 7.98022260720380e-03 8.72052269214987e-05
1.50875000000000e+01 7.88897381126212e-03 8.65481709816167e-05
1.52058333333333e+01 7.79876838716805e-03 8.58934235293914e-05
1.53241666666667e+01 7.70959440522036e-03 8.52410477422723e-05
1.54425000000000e+01 7.62144007152103e-03 8.45911046610955e-05
1.55608333333333e+01 7.53429372647386e-03 8.39436524286193e-05
1.56791666666667e+01 7.44814384492863e-03 8.32987467813627e-05
1.57975000000000e+01 7.36297903294665e-03 8.26564415203750e-05
1.59158333333333e+01 7.27878802634845e-03 8.20167877806322e-05
1.60341666666667e+01 7.19555969081656e-03 8.13798344974678e-05
1.61525000000000e+01 7.11328301880802e-03 8.07456288532175e-05
1.62708333333333e+01 7.03194712814964e-03 8.01142155762905e-05
1.63891666666667e+01 6.95154126210360e-03 7.94856373838210e-05
1.65075000000000e+01 6.87205478641902e-03 7.88599354057032e-05
1.66258333333333e+01 6.79347718797341e-03 7.82371485121736e-05
1.67441666666667e+01 6.71579807480482e-03 7.76173137341608e-05
1.68625000000000e+01 6.63900717329526e-03 7.70004666661285e-05
1.69808333333333e+01 6.56309432685672e-03 7.63866408210217e-05
1.70991666666667e+01 6.48804949593353e-03 7.57758680296794e-05
1.72175000000000e+01 6.41386275531061e-03 7.51681788237621e-05
1.73358333333333e+01 6.34052429284284e-03 7.45636018169596e-05
1.74541666666667e+01 6.26802440943059e-03 7.39621640847306e-05
1.75725000000000e+01 6.19635351644649e-03 7.33638915284878e-05
1.76908333333333e+01 6.12550213450681e-03 7.27688082820106e-05
1.78091666666667e+01 6.05546089342292e-03 7.21769370726525e-05
1.79275000000000e+01 5.98622052974070e-03 7.15882995678846e-05
1.80458333333333e+01 5.91777188555243e-03 7.10029158058808e-05
1.81641666666667e+01 5.85010590842697e-03 7.04208045392649e-05
1.82825000000000e+01 5.78321364905603e-03 6.98419835650211e-05
1.84008333333333e+01 5.71708626010534e-03 6.92664691782465e-05
1.85191666666667e+01 5.65171499612590e-03 6.86942764994401e-05
1.86375000000000e+01 5.58709121130179e-03 6.81254197887088e-05
1.87558333333333e+01 5.52320635833940e-03 6.75599119217401e-05
1.88741666666667e+01 5.46005198836191e-03 6.69977647015466e-05
1.89925000000000e+01 5.39761974875360e-03 6.64389891578341e-05
1.91108333333333e+01 5.33590138208599e-03 6.58835950442771e-05
1.92291666666667e+01 5.27488872599740e-03 6.53315911355678e-05
1.93475000000000e+01 5.21457371112921e-03 6.47829855127675e-05
1.94658333333333e+01 5.15494836008762e-03 6.42377850809847e-05
1.95841666666667e+01 5.09600478731014e-03 6.36959958525386e-05
1.97025000000000e+01 5.03773519708929e-03 6.31576232190424e-05
1.98208333333333e+01 4.98013188256894e-03 6.26226714886336e-05
1.99391666666667e+01 4.92318722559925e-03 6.20911441559983e-05
2.00575000000000e+01 4.86689369484374e-03 6.15630441618873e-05
2.01758333333333e+01 4.81124384480898e-03 6.10383734490873e-05
2.02941666666667e+01 4.75623031568958e-03 6.05171332199971e-05
2.04125000000000e+01 4.70184583155458e-03 5.99993241842354e-05
2.05308333333333e+01 4.64808319940951e-03 5.94849461325743e-05
2.06491666666667e+01 4.59493530903267e-03 5.89739981827124e-05
2.07675000000000e+01 4.54239513123724e-03 5.84664790155960e-05
2.08858333333333e+01 4.49045571696454e-03 5.79623864665634e-05
2.10041666666667e+01 4.43911019711292e-03 5.74617177599227e-05
2.11225000000000e+01 4.38835178087198e-03 5.69644697345706e-05
2.12408333333333e+01 4.33817375484613e-03 5.64706384516221e-05
2.13591666666667e+01 4.28856948287709e-03 5.59802194183692e-05
2.14775000000000e+01 4.23953240444700e-03 5.54932078037375e-05
2.15958333333333e+01 4.19105603383115e-03 5.50095980617130e-05
2.17141666666667e+01 4.14313395991528e-03 5.45293841452188e-05
2.18325000000000e+01 4.09575984466426e-03 5.40525597119219e-05
2.19508333333333e+01 4.04892742230320e-03 5.35791177627988e-05
2.20691666666667e+01 4.00263049913030e-03 5.31090508464341e-05
2.21875000000000e+01 3.95686295204826e-03 5.26423512556553e-05
2.23058333333333e+01 3.91161872777274e-03 5.21790106806042e-05
2.24241666666667e+01 3.86689184264167e-03 5.17190204039377e-05
2.25425000000000e+01 3.82267638120653e-03 5.12623714887416e-05
2.26608333333333e+01 3.77896649546726e-03 5.08090544455083e-05
2.27791666666667e+01 3.73575640467879e-03 5.03590594186792e-05
2.28975000000000e+01 3.69304039399952e-03 4.99123763662671e-05
2.30158333333333e+01 3.65081281375178e-03 4.94689947401540e-05
2.31341666666667e+01 3.60906807922631e-03 4.90289036644073e-05
2.32525000000000e+01 3.56780066938536e-03 4.85920921070104e-05
2.33708333333333e+01 3.52700512614790e-03 4.81585485729321e-05
2.34891666666667e+01 3.48667605419263e-03 4.77282612746075e-05
2.36075000000000e+01 3.44680811971329e-03 4.73012182961564e-05
2.37258333333333e+01 3.40739604972783e-03 4.68774072986937e-05
2.38441666666667e+01 3.36843463188049e-03 4.64568156833557e-05
2.39625000000000e+01 3.32991871324703e-03 4.60394307483643e-05
2.40808333333333e+01 3.29184319966707e-03 4.56252394060699e-05
2.41991666666667e+01 3.25420305554575e-03 4.52142283388766e-05
2.43175000000000e+01 3.21699330270673e-03 4.48063841494928e-05
2.44358333333333e+01 3.18020901974688e-03 4.44016930892255e-05
2.45541666666667e+01 3.14384534183801e-03 4.40001412071333e-05
2.46725000000000e+01 3.10789745962555e-03 4.36017144937888e-05
2.47908333333333e+01 3.07236061860489e-03 4.32063986203550e-05
2.49091666666667e+01 3.03723011892354e-03 4.28141790812952e-05
2.50275000000000e+01 3.00250131432355e-03 4.24250413319396e-05
2.51458333333333e+01 2.96816961153878e-03 4.20389705379010e-05
2.52641666666667e+01 2.93423047009786e-03 4.16559517116459e-05
2.53825000000000e+01 2.90067940130845e-03 4.12759698441539e-05
2.55008333333333e+01 2.86751196767480e-03 4.08990096642480e-05
2.56191666666667e+01 2.83472378270177e-03 4.05250557693047e-05
2.57375000000000e+01 2.80231050991924e-03 4.01540927512848e-05
2.58558333333333e+01 2.77026786231915e-03 3.97861049655698e-05
2.59741666666667e+01 2.73859160216105e-03 3.94210766560822e-05
2.60925000000000e+01 2.70727754003478e-03 3.90589920759500e-05
2.62108333333333e+01 2.67632153431650e-03 3.86998352654530e-05
2.63291666666667e+01 2.64571949097590e-03 3.83435901718119e-05
2.64475000000000e+01 2.61546736267567e-03 3.79902407647281e-05
2.65658333333333e+01 2.58556114824575e-03 3.76397708230755e-05
2.66841666666667e+01 2.55599689249254e-03 3.72921640495975e-05
2.68025000000000e+01 2.52677068533351e-03 3.69474041815544e-05
2.69208333333333e+01 2.49787866128919e-03 3.66054747858019e-05
2.70391666666667e+01 2.46931699929447e-03 3.62663593686299e-05
2.71575000000000e+01 2.44108192186702e-03 3.59300414817404e-05
2.72758333333333e+01 2.41316969461626e-03 3.55965045253672e-05
2.73941666666667e+01 2.38557662605706e-03 3.52657318534771e-05
2.75125000000000e+01 2.35829906681045e-03 3.49377068752854e-05
2.76308333333333e+01 2.33133340912917e-03 3.46124128660952e-05
2.77491666666667e+01 2.30467608671377e-03 3.42898330680673e-05
2.78675000000000e+01 2.27832357394438e-03 3.39699507874734e-05
2.79858333333333e+01 2.25227238542217e-03 3.36527492129377e-05
2.81041666666667e+01 2.22651907578812e-03 3.33382115119788e-05
2.82225000000000e+01 2.20106023898450e-03 3.30263209241900e-05
2.83408333333333e+01 2.17589250781170e-03 3.27170605865809e-05
2.84591666666667e+01 2.15101255374985e-03 3.24104136260787e-05
2.85775000000000e+01 2.12641708624868e-03 3.21063632488202e-05
2.86958333333333e+01 2.10210285229938e-03 3.18048925723055e-05
2.88141666666667e+01 2.07806663625896e-03 3.15059847140343e-05
2.89325000000000e+01 2.05430525916751e-03 3.12096228770813e-05
2.90508333333333e+01 2.03081557833444e-03 3.09157901887915e-05
2.91691666666667e+01 2.00759448716580e-03 3.06244697857219e-05
2.92875000000000e+01 1.98463891450775e-03 3.03356448956615e-05
2.94058333333333e+01 1.96194582424670e-03 3.00492986826034e-05
2.95241666666667e+01 1.93951221513970e-03 2.97654143281562e-05
2.96425000000000e+01 1.91733512018300e-03 2.94839751101643e-05
2.97608333333333e+01 1.89541160622571e-03 2.92049642537042e-05
2.98791666666667e+01 1.87373877380320e-03 2.89283650091202e-05
2.99975000000000e+01 1.85231375652985e-03 2.86541607273939e-05
3.01158333333333e+01 1.83113372072570e-03 2.83823347169210e-05
3.02341666666667e+01 1.81019586525297e-03 2.81128703183205e-05
3.03525000000000e+01 1.78949742093196e-03 2.78457509766960e-05
3.04708333333333e+01 1.76903565018029e-03 2.75809601039584e-05
3.05891666666667e+01 1.74880784685258e-03 2.73184811505508e-05
3.07075000000000e+01 1.72881133567857e-03 2.70582976747318e-05
3.08258333333333e+01 1.70904347191452e-03 2.68003932102312e-05
3.09441666666667e+01 1.68950164118608e-03 2.65447513350176e-05
3.10625000000000e+01 1.67018325894775e-03 2.62913557377341e-05
3.11808333333333e+01 1.65108577014599e-03 2.60401900904683e-05
3.12991666666667e+01 1.63220664906536e-03 2.57912381146991e-05
3.14175000000000e+01 1.61354339880842e-03 2.55444836450086e-05
3.15358333333333e+01 1.59509355097020e-03 2.52999105067584e-05
3.16541666666667e+01 1.57685466548757e-03 2.50575025793304e-05
3.17725000000000e+01 1.55882433013878e-03 2.48172438572350e-05
3.18908333333333e+01 1.54100016022896e-03 2.45791183325064e-05
3.20091666666667e+01 1.52337979844264e-03 2.43431100553507e-05
3.21275000000000e+01 1.50596091436221e-03 2.41092031927591e-05
3.22458333333333e+01 1.48874120416405e-03 2.38773819154310e-05
3.23641666666667e+01 1.47171839047422e-03 2.36476304559453e-05
3.24825000000000e+01 1.45489022190509e-03 2.34199331649836e-05
3.26008333333333e+01 1.43825447276172e-03 2.31942744026032e-05
3.27191666666667e+01 1.42180894290071e-03 2.29706385940373e-05
3.28375000000000e+01 1.40555145728434e-03 2.27490102836293e-05
3.29558333333333e+01 1.38947986569675e-03 2.25293740302803e-05
3.30741666666667e+01 1.37359204260609e-03 2.23117144609790e-05
3.31925000000000e+01 1.35788588673531e-03 2.20960163225484e-05
3.33108333333333e+01 1.34235932078796e-03 2.18822643811006e-05
3.34291666666667e+01 1.32701029131348e-03 2.16704434733946e-05
3.35475000000000e+01 1.31183676829410e-03 2.14605385564858e-05
3.36658333333333e+01 1.29683674487988e-03 2.12525346110312e-05
3.37841666666667e+01 1.28200823725715e-03 2.10464166905638e-05
3.39025000000000e+01 1.26734928425084e-03 2.08421699691335e-05
3.40208333333333e+01 1.25285794706849e-03 2.06397796483143e-05
3.41391666666667e+01 1.23853230917177e-03 2.04392310044846e-05
3.42575000000000e+01 1.22437047589372e-03 2.02405094345417e-05
3.43758333333333e+01 1.21037057419132e-03 2.00436003664628e-05
3.44941666666667e+01 1.19653075252018e-03 1.98484893046753e-05
3.46125000000000e+01 1.18284918046595e-03 1.96551618739284e-05
3.47308333333333e+01 1.16932404850535e-03 1.94636037332687e-05
3.48491666666667e+01 1.15595356788383e-03 1.92738006195797e-05
3.49675000000000e+01 1.14273597026071e-03 1.90857383896870e-05
3.50858333333333e+01 1.12966950747832e-03 1.88994029376132e-05
3.52041666666667e+01 1.11675245144259e-03 1.87147802363659e-05
3.53225000000000e+01 1.10398309378148e-03 1.85318563783477e-05
3.54408333333333e+01 1.09135974562184e-03 1.83506174957663e-05
3.55591666666667e+01 1.07888073747298e-03 1.81710498007392e-05
3.56775000000000e+01 1.06654441889781e-03 1.79931396240809e-05
3.57958333333333e+01 1.05434915829719e-03 1.78168733387444e-05
3.59141666666667e+01 1.04229334279647e-03 1.76422373983141e-05
3.60325000000000e+01 1.03037537792878e-03 1.74692183742393e-05
3.61508333333333e+01 1.01859368742668e-03 1.72978028821831e-05
3.62691666666667e+01 1.00694671311160e-03 1.71279776189743e-05
3.63875000000000e+01 9.95432914588804e-04 1.69597293983499e-05
3.65058333333333e+01 9.84050769046124e-04 1.67930450801011e-05
3.66241666666667e+01 9.72798771146184e-04 1.66279116055447e-05
3.67425000000000e+01 9.61675432732688e-04 1.64643160318381e-05
3.68608333333333e+01 9.50679282635915e-04 1.63022454638119e-05
3.69791666666667e+01 9.39808866567744e-04 1.61416870880237e-05
3.70975000000000e+01 9.29062746838780e-04 1.59826282057047e-05
3.72158333333333e+01 9.18439502170419e-04 1.58250561671735e-05
3.73341666666667e+01 9.07937727592609e-04 1.56689584045314e-05
