Energy (eV)          EEDF (eV^-(3/2))     First Anisotropy
1.78333333333333e-02 7.29022150552767e-02 3.52952432919952e-05
5.35000000000000e-02 7.24839484956134e-02 5.83113159335899e-05
8.91666666666667e-02 7.20680816838639e-02 7.70539775746923e-05
1.24833333333333e-01 7.16546008512207e-02 9.13395450392159e-05
1.60500000000000e-01 7.12434923074810e-02 1.03292541777064e-04
1.96166666666667e-01 7.08347424450040e-02 1.13714891493864e-04
2.31833333333333e-01 7.04283377286839e-02 1.23020938427813e-04
2.67500000000000e-01 7.00242647036284e-02 1.31460508665709e-04
3.03166666666667e-01 6.96225099937069e-02 1.39199040219199e-04
3.38833333333333e-01 6.92230602964490e-02 1.46353284809808e-04
3.74500000000000e-01 6.88259023871866e-02 1.53009537694875e-04
4.10166666666667e-01 6.84310231182076e-02 1.59233875218418e-04
4.45833333333333e-01 6.80384094151007e-02 1.65078322729005e-04
4.81500000000000e-01 6.76480482795058e-02 1.70584779477944e-04
5.17166666666667e-01 6.72599267884591e-02 1.75787628445592e-04
5.52833333333333e-01 6.68740320915200e-02 1.80715533689343e-04
5.88500000000000e-01 6.64903514127706e-02 1.85392716075096e-04
6.24166666666667e-01 6.61088720502489e-02 1.89839882771186e-04
6.59833333333333e-01 6.57295813735695e-02 1.94074918279709e-04
6.95500000000000e-01 6.53524668254524e-02 1.98113408430391e-04
7.31166666666667e-01 6.49775159212070e-02 2.01969045059955e-04
7.66833333333333e-01 6.46047162466930e-02 2.05653942133059e-04
8.02500000000000e-01 6.42340554595279e-02 2.09178886362319e-04
8.38166666666667e-01 6.38655212886039e-02 2.12553538871953e-04
8.73833333333333e-01 6.34991015322992e-02 2.15786598214398e-04
9.09500000000000e-01 6.31347840594515e-02 2.18885933825370e-04
9.45166666666667e-01 6.27725568088997e-02 2.21858696808608e-04
9.80833333333333e-01 6.24124077878863e-02 2.24711411709943e-04
1.01650000000000e+00 6.20543250728553e-02 2.27450053335198e-04
1.05216666666667e+00 6.16982968100113e-02 2.30080112916929e-04
1.08783333333333e+00 6.13443112098707e-02 2.32606652730634e-04
1.12350000000000e+00 6.09923565529643e-02 2.35034352532064e-04
1.15916666666667e+00 6.06424211901825e-02 2.37367552845270e-04
1.19483333333333e+00 6.02944935330362e-02 2.39610288799576e-04
1.23050000000000e+00 5.99485620626132e-02 2.41766319178332e-04
1.26616666666667e+00 5.96046153288872e-02 2.43839156135776e-04
1.30183333333333e+00 5.92626419419495e-02 2.45832087112261e-04
1.33750000000000e+00 5.89226305800133e-02 2.47748193950923e-04
1.37316666666667e+00 5.85845699887773e-02 2.49590373903411e-04
1.40883333333333e+00 5.82484489734697e-02 2.51361354334744e-04
1.44450000000000e+00 5.79142564060563e-02 2.53063705658204e-04
1.48016666666667e+00 5.75819812246483e-02 2.54699856778028e-04
1.51583333333333e+00 5.72516124262364e-02 2.56272105189834e-04
1.55150000000000e+00 5.69231390732241e-02 2.57782625921821e-04
1.58716666666667e+00 5.65965502928711e-02 2.59233483285593e-04
1.62283333333333e+00 5.62718352706217e-02 2.60626637937186e-04
1.65850000000000e+00 5.59489832560583e-02 2.61963953155988e-04
1.69416666666667e+00 5.56279835623754e-02 2.63247204062253e-04
1.72983333333333e+00 5.53088255602235e-02 2.64478082614713e-04
1.76550000000000e+00 5.49914986831612e-02 2.65658202067141e-04
1.80116666666667e+00 5.46759924271546e-02 2.66789104395506e-04
1.83683333333333e+00 5.43622963448732e-02 2.67872263860802e-04
1.87250000000000e+00 5.40504000507034e-02 2.68909090189570e-04
1.90816666666667e+00 5.37402932202701e-02 2.69900934702040e-04
1.94383333333333e+00 5.34319655851327e-02 2.70849092856809e-04
1.97950000000000e+00 5.31254069374106e-02 2.71754806520249e-04
2.01516666666667e+00 5.28206071293262e-02 2.72619269129469e-04
2.05083333333333e+00 5.25175560682543e-02 2.73443627501624e-04
2.08650000000000e+00 5.22162437210066e-02 2.74228983441964e-04
2.12216666666667e+00 5.19166601133908e-02 2.74976398173985e-04
2.15783333333333e+00 5.16187953255788e-02 2.75686893609596e-04
2.19350000000000e+00 5.13226394960847e-02 2.76361453470138e-04
2.22916666666667e+00 5.10281828213399e-02 2.77001027149028e-04
2.26483333333333e+00 5.07354155513476e-02 2.77606530581582e-04
2.30050000000000e+00 5.04443279933859e-02 2.78178847002947e-04
2.33616666666667e+00 5.01549105115978e-02 2.78718830363234e-04
2.37183333333333e+00 4.98671535229039e-02 2.79227305896746e-04
2.40750000000000e+00 4.95810475004582e-02 2.79705070606521e-04
2.44316666666667e+00 4.92965829732517e-02 2.80152896320571e-04
2.47883333333333e+00 4.90137505222596e-02 2.80571530033339e-04
2.51450000000000e+00 4.87325407836733e-02 2.80961694182663e-04
2.55016666666667e+00 4.84529444485161e-02 2.81324089413630e-04
2.58583333333333e+00 4.81749522590048e-02 2.81659394746234e-04
2.62150000000000e+00 4.78985550115781e-02 2.81968267693661e-04
2.65716666666667e+00 4.76237435565236e-02 2.82251346784421e-04
2.69283333333333e+00 4.73505087945356e-02 2.82509251596691e-04
2.72850000000000e+00 4.70788416795578e-02 2.82742582754716e-04
2.76416666666667e+00 4.68087332184209e-02 2.82951924248403e-04
2.79983333333333e+00 4.65401744675802e-02 2.83137843364989e-04
2.83550000000000e+00 4.62731565357891e-02 2.83300890591494e-04
2.87116666666667e+00 4.60076705837459e-02 2.83441601762560e-04
2.90683333333333e+00 4.57437078209981e-02 2.83560497912847e-04
2.94250000000000e+00 4.54812595084591e-02 2.83658085106919e-04
2.97816666666667e+00 4.52203169580652e-02 2.83734856439824e-04
3.01383333333333e+00 4.49608715298326e-02 2.83791291828285e-04
3.04950000000000e+00 4.47029146342310e-02 2.83827857784572e-04
3.08516666666667e+00 4.44464377318494e-02 2.83845009289456e-04
3.12083333333333e+00 4.41914323305946e-02 2.83843189536212e-04
3.15650000000000e+00 4.39378899879336e-02 2.83822829661489e-04
3.19216666666667e+00 4.36858023105663e-02 2.83784350506423e-04
3.22783333333333e+00 4.34351609517570e-02 2.83728162324520e-04
3.26350000000000e+00 4.31859576134540e-02 2.83654664479727e-04
3.29916666666667e+00 4.29381840459701e-02 2.83564247108683e-04
3.33483333333333e+00 4.26918320454374e-02 2.83457290801228e-04
3.37050000000000e+00 4.24468934558127e-02 2.83334166273630e-04
3.40616666666667e+00 4.22033601685664e-02 2.83195235942824e-04
3.44183333333333e+00 4.19612241202510e-02 2.83040853586388e-04
3.47750000000000e+00 4.17204772944019e-02 2.82871363997279e-04
3.51316666666667e+00 4.14811117212330e-02 2.82687104479145e-04
3.54883333333333e+00 4.12431194753125e-02 2.82488404491241e-04
3.58450000000000e+00 4.10064926773656e-02 2.82275585289691e-04
3.62016666666667e+00 4.07712234939769e-02 2.82048961351567e-04
3.65583333333333e+00 4.05373041353670e-02 2.81808840009035e-04
3.69150000000000e+00 4.03047268571028e-02 2.81555521081270e-04
3.72716666666667e+00 4.00734839598078e-02 2.81289298233724e-04
3.76283333333333e+00 3.98435677870314e-02 2.81010458605088e-04
3.79850000000000e+00 3.96149707268753e-02 2.80719282433116e-04
3.83416666666667e+00 3.93876852117086e-02 2.80416044354526e-04
3.86983333333333e+00 3.91617037161272e-02 2.80101013027667e-04
3.90550000000000e+00 3.89370187584987e-02 2.79774450754875e-04
3.94116666666667e+00 3.87136229006853e-02 2.79436614727818e-04
3.97683333333333e+00 3.84915087460847e-02 2.79087756648135e-04
4.01250000000000e+00 3.82706689411017e-02 2.78728122348404e-04
4.04816666666667e+00 3.80510961748761e-02 2.78357952987146e-04
4.08383333333333e+00 3.78327831774025e-02 2.77977484669170e-04
4.11950000000000e+00 3.76157227209317e-02 2.77586948066920e-04
4.15516666666667e+00 3.73999076197038e-02 2.77186569568844e-04
4.19083333333333e+00 3.71853307281428e-02 2.76776570900902e-04
4.22650000000000e+00 3.69719849421916e-02 2.76357168749571e-04
4.26216666666667e+00 3.67598631990511e-02 2.75928575866789e-04
4.29783333333333e+00 3.65489584754441e-02 2.75491000693942e-04
4.33350000000000e+00 3.63392637888889e-02 2.75044646987558e-04
4.36916666666667e+00 3.61307721974436e-02 2.74589714883670e-04
4.40483333333333e+00 3.59234767980362e-02 2.74126400525184e-04
4.44050000000000e+00 3.57173707276798e-02 2.73654895691253e-04
4.47616666666667e+00 3.55124471632221e-02 2.73175388823575e-04
4.51183333333333e+00 3.53086993197383e-02 2.72688064657821e-04
4.54750000000000e+00 3.51061204516913e-02 2.72193103857415e-04
4.58316666666667e+00 3.49047038526864e-02 2.71690684004099e-04
4.61883333333333e+00 3.47044428539234e-02 2.71180979234037e-04
4.65450000000000e+00 3.45053308253050e-02 2.70664159876510e-04
4.69016666666667e+00 3.43073611751965e-02 2.70140393410749e-04
4.72583333333333e+00 3.41105273489344e-02 2.69609844107275e-04
4.76150000000000e+00 3.39148228298858e-02 2.69072672671960e-04
4.79716666666667e+00 3.37202411392125e-02 2.68529037170932e-04
4.83283333333333e+00 3.35267758344338e-02 2.67979092677526e-04
4.86850000000000e+00 3.33344205104393e-02 2.67422990921997e-04
4.90416666666667e+00 3.31431687992577e-02 2.66860881186288e-04
4.93983333333333e+00 3.29530143686708e-02 2.66292909956804e-04
4.97550000000000e+00 3.27639509231820e-02 2.65719220580089e-04
5.01116666666667e+00 3.25759722037903e-02 2.65139954128935e-04
5.04683333333333e+00 3.23890719866522e-02 2.64555249061222e-04
5.08250000000000e+00 3.22032440840092e-02 2.63965240881733e-04
5.11816666666667e+00 3.20184823439661e-02 2.63370062981044e-04
5.15383333333333e+00 3.18347806491991e-02 2.62769846300557e-04
5.18950000000000e+00 3.16521329178440e-02 2.62164719000565e-04
5.22516666666667e+00 3.14705331032788e-02 2.61554807273188e-04
5.26083333333333e+00 3.12899751928760e-02 2.60940235013803e-04
5.29650000000000e+00 3.11104532088536e-02 2.60321123495424e-04
5.33216666666667e+00 3.09319612080617e-02 2.59697592156875e-04
5.36783333333333e+00 3.07544932807768e-02 2.59069758280607e-04
5.40350000000000e+00 3.05780435515180e-02 2.58437736673439e-04
5.43916666666667e+00 3.04026061788369e-02 2.57801640431183e-04
5.47483333333333e+00 3.02281753541529e-02 2.57161580622783e-04
5.51050000000000e+00 3.00547453025351e-02 2.56517665977535e-04
5.54616666666667e+00 2.98823102824967e-02 2.55870003627038e-04
5.58183333333333e+00 2.97108645848687e-02 2.55218698795771e-04
5.61750000000000e+00 2.95404025335495e-02 2.54563854494739e-04
5.65316666666667e+00 2.93709184853036e-02 2.53905572241750e-04
5.68883333333333e+00 2.92024068286718e-02 2.53243951758375e-04
5.72450000000000e+00 2.90348619846907e-02 2.52579090669944e-04
5.76016666666667e+00 2.88682784066947e-02 2.51911085205119e-04
5.79583333333333e+00 2.87026505792621e-02 2.51240029899155e-04
5.83150000000000e+00 2.85379730189052e-02 2.50566017300208e-04
5.86716666666667e+00 2.83742402738763e-02 2.49889138649005e-04
5.90283333333333e+00 2.82114469231469e-02 2.49209483588399e-04
5.93850000000000e+00 2.80495875770714e-02 2.48527139875892e-04
5.97416666666667e+00 2.78886568771955e-02 2.47842194044206e-04
6.00983333333333e+00 2.77286494952689e-02 2.47154731117053e-04
6.04550000000000e+00 2.75695601338815e-02 2.46464834327803e-04
6.08116666666667e+00 2.74113835262766e-02 2.45772585761676e-04
6.11683333333333e+00 2.72541144353935e-02 2.45078066077682e-04
6.15250000000000e+00 2.70977476544796e-02 2.44381354233328e-04
6.18816666666667e+00 2.69422780069065e-02 2.43682528109119e-04
6.22383333333333e+00 2.67877003452426e-02 2.42981664236506e-04
6.25950000000000e+00 2.66340095518411e-02 2.42278837528665e-04
6.29516666666667e+00 2.64812005386596e-02 2.41574121887917e-04
6.33083333333333e+00 2.63292682463616e-02 2.40867589939600e-04
6.36650000000000e+00 2.61782076448812e-02 2.40159312768781e-04
6.40216666666667e+00 2.60280137332465e-02 2.39449360511236e-04
6.43783333333333e+00 2.58786815387078e-02 2.38737802093181e-04
6.47350000000000e+00 2.57302061172816e-02 2.38024704973754e-04
6.50916666666667e+00 2.55825825535762e-02 2.37310135720156e-04
6.54483333333333e+00 2.54358059599474e-02 2.36594159753117e-04
6.58050000000000e+00 2.52898714770202e-02 2.35876841095095e-04
6.61616666666667e+00 2.51447742735194e-02 2.35158242930135e-04
6.65183333333333e+00 2.50005095454488e-02 2.34438427354959e-04
6.68750000000000e+00 2.48570725165949e-02 2.33717455132719e-04
6.72316666666667e+00 2.47144584383588e-02 2.32995386238091e-04
6.75883333333333e+00 2.45726625889613e-02 2.32272279613929e-04
6.79450000000000e+00 2.44316802739267e-02 2.31548192930502e-04
6.83016666666667e+00 2.42915068259180e-02 2.30823183116266e-04
6.86583333333333e+00 2.41521376039658e-02 2.30097306119948e-04
6.90150000000000e+00 2.40135679939331e-02 2.29370616675184e-04
6.93716666666667e+00 2.38757934083546e-02 2.28643168817498e-04
6.97283333333333e+00 2.37388092856873e-02 2.27915015651665e-04
7.00850000000000e+00 2.36026110907585e-02 2.27186209121596e-04
7.04416666666667e+00 2.34671943146074e-02 2.26456800513985e-04
7.07983333333333e+00 2.33325544737582e-02 2.25726840230882e-04
7.11550000000000e+00 2.31986871106509e-02 2.24996377564703e-04
7.15116666666667e+00 2.30655877934862e-02 2.24265461188993e-04
7.18683333333333e+00 2.29332521155191e-02 2.23534138936051e-04
7.22250000000000e+00 2.28016756954742e-02 2.22802457576987e-04
7.25816666666667e+00 2.26708541773933e-02 2.22070463300029e-04
7.29383333333333e+00 2.25407832299490e-02 2.21338201493071e-04
7.32950000000000e+00 2.24114585468450e-02 2.20605716528657e-04
7.36516666666667e+00 2.22828758466662e-02 2.19873052230197e-04
7.40083333333333e+00 2.21550308722121e-02 2.19140251659371e-04
7.43650000000000e+00 2.20279193908825e-02 2.18407356905947e-04
7.47216666666667e+00 2.19015371945297e-02 2.17674409542259e-04
7.50783333333333e+00 2.17758800988116e-02 2.16941450415371e-04
7.54350000000000e+00 2.16509439435625e-02 2.16208519441604e-04
7.57916666666667e+00 2.15267245926488e-02 2.15475656049644e-04
7.61483333333333e+00 2.14032179333394e-02 2.14742898977379e-04
7.65050000000000e+00 2.12804198766639e-02 2.14010286070995e-04
7.68616666666667e+00 2.11583263572701e-02 2.13277854717069e-04
7.72183333333333e+00 2.10369333328127e-02 2.12545641643970e-04
7.75750000000000e+00 2.09162367842977e-02 2.11813682725430e-04
7.79316666666667e+00 2.07962327159437e-02 2.11082013401989e-04
7.82883333333333e+00 2.06769171545859e-02 2.10350668486811e-04
7.86450000000000e+00 2.05582861500097e-02 2.09619681973632e-04
7.90016666666667e+00 2.04403357748134e-02 2.08889087447869e-04
7.93583333333333e+00 2.03230621238294e-02 2.08158917896747e-04
7.97150000000000e+00 2.02064613144449e-02 2.07429205521562e-04
8.00716666666667e+00 2.00905294864681e-02 2.06699982138729e-04
8.04283333333333e+00 1.99752628015644e-02 2.05971278994154e-04
8.07850000000000e+00 1.98606574435665e-02 2.05243126579667e-04
8.11416666666667e+00 1.97467096183418e-02 2.04515555024320e-04
8.14983333333333e+00 1.96334155532454e-02 2.03788593912876e-04
8.18550000000000e+00 1.95207714974178e-02 2.03062272106375e-04
8.22116666666667e+00 1.94087737216559e-02 2.02336618123924e-04
8.25683333333333e+00 1.92974185178795e-02 2.01611659965239e-04
8.29250000000000e+00 1.91867021994198e-02 2.00887424935197e-04
8.32816666666667e+00 1.90766211008917e-02 2.00163940016437e-04
8.36383333333333e+00 1.89671715776750e-02 1.99441231695863e-04
8.39950000000000e+00 1.88583500061930e-02 1.98719325793068e-04
8.43516666666667e+00 1.87501527837863e-02 1.97998247823990e-04
8.47083333333333e+00 1.86425763282091e-02 1.97278022831290e-04
8.50650000000000e+00 1.85356170778964e-02 1.96558675216605e-04
8.54216666666667e+00 1.84292714918418e-02 1.95840229095488e-04
8.57783333333333e+00 1.83235360491057e-02 1.95122708131551e-04
8.61350000000000e+00 1.82184072490742e-02 1.94406135372414e-04
8.64916666666667e+00 1.81138816113384e-02 1.93690533596258e-04
8.68483333333333e+00 1.80099556752160e-02 1.92975925149614e-04
8.72050000000000e+00 1.79066260000009e-02 1.92262331786967e-04
8.75616666666667e+00 1.78038891648447e-02 1.91549775009085e-04
8.79183333333333e+00 1.77017417682912e-02 1.90838275904360e-04
8.82750000000000e+00 1.76001804285169e-02 1.90127854992007e-04
8.86316666666667e+00 1.74992017832149e-02 1.89418532552397e-04
8.89883333333333e+00 1.73988024891410e-02 1.88710328471928e-04
8.93450000000000e+00 1.72989792223469e-02 1.88003262089643e-04
8.97016666666667e+00 1.71997286780650e-02 1.87297352519809e-04
9.00583333333333e+00 1.71010475702675e-02 1.86592618500243e-04
9.04150000000000e+00 1.70029326318903e-02 1.85889078242319e-04
9.07716666666667e+00 1.69053806147210e-02 1.85186749745957e-04
9.11283333333333e+00 1.68083882889684e-02 1.84485650651281e-04
9.14850000000000e+00 1.67119524434795e-02 1.83785798091952e-04
9.18416666666667e+00 1.66160698856290e-02 1.83087209002821e-04
9.21983333333333e+00 1.65207374409001e-02 1.82389899974839e-04
9.25550000000000e+00 1.64259519530938e-02 1.81693887111625e-04
9.29116666666667e+00 1.63317102842208e-02 1.80999186329966e-04
9.32683333333333e+00 1.62380093140927e-02 1.80305813217883e-04
9.36250000000000e+00 1.61448459405243e-02 1.79613782894389e-04
9.39816666666667e+00 1.60522170792271e-02 1.78923110303006e-04
9.43383333333333e+00 1.59601196634112e-02 1.78233810072965e-04
9.46950000000000e+00 1.58685506439808e-02 1.77545896382016e-04
9.50516666666667e+00 1.57775069894294e-02 1.76859383243170e-04
9.54083333333333e+00 1.56869856854518e-02 1.76174284368950e-04
9.57650000000000e+00 1.55969837351329e-02 1.75490613037215e-04
9.61216666666667e+00 1.55074981588449e-02 1.74808382371296e-04
9.64783333333333e+00 1.54185259938692e-02 1.74127605207199e-04
9.68350000000000e+00 1.53300642945784e-02 1.73448293962368e-04
9.71916666666667e+00 1.52421101323357e-02 1.72770460909408e-04
9.75483333333333e+00 1.51546605951259e-02 1.72094118046191e-04
9.79050000000000e+00 1.50677127877318e-02 1.71419276967464e-04
9.82616666666667e+00 1.49812638316349e-02 1.70745949132320e-04
9.86183333333333e+00 1.48953108646560e-02 1.70074145737156e-04
9.89750000000000e+00 1.48098510411251e-02 1.69403877590058e-04
9.93316666666667e+00 1.47248815317844e-02 1.68735155372174e-04
9.96883333333333e+00 1.46403995234376e-02 1.68067989513460e-04
1.00045000000000e+01 1.45564022191142e-02 1.67402389947190e-04
1.00401666666667e+01 1.44728868382216e-02 1.66738366856413e-04
1.00758333333333e+01 1.43898506152116e-02 1.66075930060200e-04
1.01115000000000e+01 1.43072908009844e-02 1.65415088283038e-04
1.01471666666667e+01 1.42252046630199e-02 1.64755851115066e-04
1.01828333333333e+01 1.41435894828581e-02 1.64098227917985e-04
1.02185000000000e+01 1.40624425584463e-02 1.63442226618551e-04
1.02541666666667e+01 1.39817612040189e-02 1.62787856118416e-04
1.02898333333333e+01 1.39015427476468e-02 1.62135125100790e-04
1.03255000000000e+01 1.38217845335188e-02 1.61484040850754e-04
1.03611666666667e+01 1.37424839218241e-02 1.60834611611385e-04
1.03968333333333e+01 1.36636382863680e-02 1.60186845416919e-04
1.04325000000000e+01 1.35852450167893e-02 1.59540748939158e-04
1.04681666666667e+01 1.35073015184461e-02 1.58896329791242e-04
1.05038333333333e+01 1.34298052100947e-02 1.58253595386647e-04
1.05395000000000e+01 1.33527535260465e-02 1.57612551811062e-04
1.05751666666667e+01 1.32761439160555e-02 1.56973206075151e-04
1.06108333333333e+01 1.31999738430597e-02 1.56335564998661e-04
1.06465000000000e+01 1.31242407852785e-02 1.55699634107181e-04
1.06821666666667e+01 1.30489422361022e-02 1.55065419835130e-04
1.07178333333333e+01 1.29740757018942e-02 1.54432928434389e-04
1.07535000000000e+01 1.28996387040303e-02 1.53802164895374e-04
1.07891666666667e+01 1.28256287787910e-02 1.53173135101377e-04
1.08248333333333e+01 1.27520434752213e-02 1.52545844761195e-04
1.08605000000000e+01 1.26788803571151e-02 1.51920298353927e-04
1.08961666666667e+01 1.26061370029091e-02 1.51296501235839e-04
1.09318333333333e+01 1.25338110035995e-02 1.50674458596390e-04
1.09675000000000e+01 1.24618999646722e-02 1.50054174426178e-04
1.10031666666667e+01 1.23904015059989e-02 1.49435653577510e-04
1.10388333333333e+01 1.23193132598088e-02 1.48818900743268e-04
1.10745000000000e+01 1.22486328725664e-02 1.48203919447425e-04
1.11101666666667e+01 1.21783580048695e-02 1.47590714060450e-04
1.11458333333333e+01 1.21084863294745e-02 1.46979288800459e-04
1.11815000000000e+01 1.20390155331230e-02 1.46369646745745e-04
1.12171666666667e+01 1.19699433164424e-02 1.45761791806130e-04
1.12528333333333e+01 1.19012673920224e-02 1.45155727745866e-04
