Energy (eV)          EEDF (eV^-(3/2))     First Anisotropy
2.88888888888889e-04 2.13698425839830e+02 7.08262565067748e-02
8.66666666666667e-04 2.09639005677414e+02 1.16234203867122e-01
1.44444444444444e-03 2.05656698349561e+02 1.51546466256868e-01
2.02222222222222e-03 2.01750039026768e+02 1.77247143618534e-01
2.60000000000000e-03 1.97917590692771e+02 1.97769362997167e-01
3.17777777777778e-03 1.94157943634112e+02 2.14821151783722e-01
3.75555555555556e-03 1.90469714916234e+02 2.29302285747307e-01
4.33333333333333e-03 1.86851547876120e+02 2.41765488345574e-01
4.91111111111111e-03 1.83302111619182e+02 2.52583448118871e-01
5.48888888888889e-03 1.79820100533963e+02 2.62023817696372e-01
6.06666666666667e-03 1.76404233810388e+02 2.70287802758877e-01
6.64444444444444e-03 1.73053254968703e+02 2.77531995670565e-01
7.22222222222222e-03 1.69765931397942e+02 2.83881630326249e-01
7.80000000000000e-03 1.66541053900422e+02 2.89439081033253e-01
8.37777777777778e-03 1.63377436249131e+02 2.94289555141918e-01
8.95555555555556e-03 1.60273914750653e+02 2.98505044692476e-01
9.53333333333333e-03 1.57229347817585e+02 3.02147153184039e-01
1.01111111111111e-02 1.54242615547182e+02 3.05269169935752e-01
1.06888888888889e-02 1.51312619310890e+02 3.07917625853446e-01
1.12666666666667e-02 1.48438281348953e+02 3.10133482768824e-01
1.18444444444444e-02 1.45618544375643e+02 3.11953058538350e-01
1.24222222222222e-02 1.42852371192685e+02 3.13408754961925e-01
1.30000000000000e-02 1.40138744297774e+02 3.14529642108811e-01
1.35777777777778e-02 1.37476665520489e+02 3.15341931357972e-01
1.41555555555556e-02 1.34865155651672e+02 3.15869360426230e-01
1.47333333333333e-02 1.32303254085762e+02 3.16133511599446e-01
1.53111111111111e-02 1.29790018459752e+02 3.16154078289239e-01
1.58888888888889e-02 1.27324524314399e+02 3.15949089211673e-01
1.64666666666667e-02 1.24905864751480e+02 3.15535096265000e-01
1.70444444444444e-02 1.22533150100250e+02 3.14927336467793e-01
1.76222222222222e-02 1.20205507592073e+02 3.14139869285748e-01
1.82000000000000e-02 1.17922081033550e+02 3.13185696670935e-01
1.87777777777778e-02 1.15682030497528e+02 3.12076867368690e-01
1.93555555555556e-02 1.13484532012124e+02 3.10824566599923e-01
1.99333333333333e-02 1.11328777259198e+02 3.09439194799376e-01
2.05111111111111e-02 1.09213973272285e+02 3.07930437976689e-01
2.10888888888889e-02 1.07139342149730e+02 3.06307330024632e-01
2.16666666666667e-02 1.05104120766906e+02 3.04578306661752e-01
2.22444444444444e-02 1.03107560495526e+02 3.02751254810924e-01
2.28222222222222e-02 1.01148926929492e+02 3.00833555553334e-01
2.34000000000000e-02 9.92274996109951e+01 2.98832123820439e-01
2.39777777777778e-02 9.73425717693278e+01 2.96753444174755e-01
2.45555555555556e-02 9.54934500596146e+01 2.94603602148054e-01
2.51333333333333e-02 9.36794543088064e+01 2.92388312692086e-01
2.57111111111111e-02 9.18999172623432e+01 2.90112946795575e-01
2.62888888888889e-02 9.01541843419111e+01 2.87782555743386e-01
2.68666666666667e-02 8.84416134035729e+01 2.85401892215166e-01
2.74444444444444e-02 8.67615745015781e+01 2.82975430564127e-01
2.80222222222222e-02 8.51134496574788e+01 2.80507384475061e-01
2.86000000000000e-02 8.34966326302516e+01 2.78001724064368e-01
2.91777777777778e-02 8.19105286959058e+01 2.75462191632839e-01
2.97555555555556e-02 8.03545544278406e+01 2.72892315455559e-01
3.03333333333333e-02 7.88281374829576e+01 2.70295422568581e-01
3.09111111111111e-02 7.73307163889465e+01 2.67674651211621e-01
3.14888888888889e-02 7.58617403399756e+01 2.65032962368416e-01
3.20666666666667e-02 7.44206689933289e+01 2.62373149684690e-01
3.26444444444444e-02 7.30069722706562e+01 2.59697849444988e-01
3.32222222222222e-02 7.16201301635818e+01 2.57009549138989e-01
3.38000000000000e-02 7.02596325406130e+01 2.54310596135682e-01
3.43777777777778e-02 6.89249789613375e+01 2.51603205782265e-01
3.49555555555556e-02 6.76156784917203e+01 2.48889468407569e-01
3.55333333333333e-02 6.63312495240345e+01 2.46171355909847e-01
3.61111111111111e-02 6.50712195981427e+01 2.43450728409485e-01
3.66888888888889e-02 6.38351252292993e+01 2.40729340487115e-01
3.72666666666667e-02 6.26225117371228e+01 2.38008846423001e-01
3.78444444444444e-02 6.14329330783525e+01 2.35290805711612e-01
3.84222222222222e-02 6.02659516832070e+01 2.32576687682555e-01
3.90000000000000e-02 5.91211382931142e+01 2.29867876394074e-01
3.95777777777778e-02 5.79980718041506e+01 2.27165675240771e-01
4.01555555555556e-02 5.68963391116923e+01 2.24471310858078e-01
4.07333333333333e-02 5.58155349588372e+01 2.21785936832915e-01
4.13111111111111e-02 5.47552617861892e+01 2.19110637590777e-01
4.18888888888889e-02 5.37151295867862e+01 2.16446432065611e-01
4.24666666666667e-02 5.26947557622455e+01 2.13794276687410e-01
4.30444444444444e-02 5.16937649820334e+01 2.11155068676380e-01
4.36222222222222e-02 5.07117890457228e+01 2.08529648715610e-01
4.42000000000000e-02 4.97484667465819e+01 2.05918803915648e-01
4.47777777777778e-02 4.88034437396983e+01 2.03323270620520e-01
4.53555555555556e-02 4.78763724113033e+01 2.00743736723454e-01
4.59333333333333e-02 4.69669117511880e+01 1.98180843884548e-01
4.65111111111111e-02 4.60747272264127e+01 1.95635189942443e-01
4.70888888888889e-02 4.51994906591211e+01 1.93107331200710e-01
4.76666666666667e-02 4.43408801055294e+01 1.90597784219171e-01
4.82444444444444e-02 4.34985797375066e+01 1.88107027888308e-01
4.88222222222222e-02 4.26722797266397e+01 1.85635505047387e-01
4.94000000000000e-02 4.18616761295365e+01 1.83183624369890e-01
4.99777777777778e-02 4.10664707767667e+01 1.80751762153481e-01
5.05555555555556e-02 4.02863711629329e+01 1.78340263750674e-01
5.11333333333333e-02 3.95210903392892e+01 1.75949444947108e-01
5.17111111111111e-02 3.87703468075452e+01 1.73579593520569e-01
5.22888888888889e-02 3.80338644169757e+01 1.71230970722376e-01
5.28666666666667e-02 3.73113722626204e+01 1.68903812386275e-01
5.34444444444444e-02 3.66026045856362e+01 1.66598330282766e-01
5.40222222222222e-02 3.59073006757232e+01 1.64314713127314e-01
5.46000000000000e-02 3.52252047746710e+01 1.62053127819993e-01
5.51777777777778e-02 3.45560659828446e+01 1.59813720624079e-01
5.57555555555556e-02 3.38996381667041e+01 1.57596618072984e-01
5.63333333333333e-02 3.32556798684297e+01 1.55401927848246e-01
5.69111111111111e-02 3.26239542166126e+01 1.53229739815991e-01
5.74888888888889e-02 3.20042288396241e+01 1.51080127012630e-01
5.80666666666667e-02 3.13962757799720e+01 1.48953146343801e-01
5.86444444444444e-02 3.07998714104499e+01 1.46848839490459e-01
5.92222222222222e-02 3.02147963520190e+01 1.44767233546915e-01
5.98000000000000e-02 2.96408353926862e+01 1.42708341854368e-01
6.03777777777778e-02 2.90777774087735e+01 1.40672164793583e-01
6.09555555555556e-02 2.85254152871130e+01 1.38658690367967e-01
6.15333333333333e-02 2.79835458489881e+01 1.36667894770374e-01
6.21111111111111e-02 2.74519697750174e+01 1.34699743085099e-01
6.26888888888889e-02 2.69304915322225e+01 1.32754189955314e-01
6.32666666666667e-02 2.64189193019737e+01 1.30831180026344e-01
6.38444444444444e-02 2.59170649094327e+01 1.28930648561587e-01
6.44222222222222e-02 2.54247437544426e+01 1.27052521847919e-01
6.50000000000000e-02 2.49417747432962e+01 1.25196717764286e-01
6.55777777777778e-02 2.44679802224575e+01 1.23363146322003e-01
6.61555555555556e-02 2.40031859131008e+01 1.21551710041050e-01
6.67333333333333e-02 2.35472208471017e+01 1.19762304317275e-01
6.73111111111111e-02 2.30999173038544e+01 1.17994817903282e-01
6.78888888888889e-02 2.26611107488769e+01 1.16249133365113e-01
6.84666666666667e-02 2.22306397731875e+01 1.14525127361806e-01
6.90444444444444e-02 2.18083460339332e+01 1.12822671067915e-01
6.96222222222222e-02 2.13940741962298e+01 1.11141630429110e-01
7.02000000000000e-02 2.09876718757676e+01 1.09481866553157e-01
7.07777777777778e-02 2.05889895830187e+01 1.07843236080796e-01
7.13555555555555e-02 2.01978806681620e+01 1.06225591427002e-01
7.19333333333333e-02 1.98142012672147e+01 1.04628781017330e-01
7.25111111111111e-02 1.94378102488853e+01 1.03052649619146e-01
7.30888888888889e-02 1.90685691628925e+01 1.01497038655517e-01
7.36666666666667e-02 1.87063421889595e+01 9.99617863780351e-02
7.42444444444444e-02 1.83509960868549e+01 9.84467281576979e-02
7.48222222222222e-02 1.80024001474473e+01 9.69516966424435e-02
7.54000000000000e-02 1.76604261444258e+01 9.54765220266759e-02
7.59777777777778e-02 1.73249482873367e+01 9.40210323062193e-02
7.65555555555556e-02 1.69958431752448e+01 9.25850534300669e-02
7.71333333333333e-02 1.66729897514007e+01 9.11684094496766e-02
7.77111111111111e-02 1.63562692585324e+01 8.97709227471689e-02
7.82888888888889e-02 1.60455651953442e+01 8.83924142508503e-02
7.88666666666667e-02 1.57407632736012e+01 8.70327035377448e-02
7.94444444444444e-02 1.54417513760911e+01 8.56916090334595e-02
8.00222222222222e-02 1.51484195154339e+01 8.43689481049734e-02
8.06000000000000e-02 1.48606597934680e+01 8.30645372459029e-02
8.11777777777778e-02 1.45783663617204e+01 8.17781922510570e-02
8.17555555555556e-02 1.43014353824182e+01 8.05097283083600e-02
8.23333333333333e-02 1.40297649903398e+01 7.92589600897699e-02
8.29111111111111e-02 1.37632552552034e+01 7.80257019076518e-02
8.34888888888889e-02 1.35018081450527e+01 7.68097678617806e-02
8.40666666666667e-02 1.32453274901488e+01 7.56109718954145e-02
8.46444444444444e-02 1.29937189475951e+01 7.44291279315825e-02
8.52222222222222e-02 1.27468899666759e+01 7.32640499230069e-02
8.58000000000000e-02 1.25047497546883e+01 7.21155519783638e-02
8.63777777777778e-02 1.22672092436712e+01 7.09834484805783e-02
8.69555555555555e-02 1.20341810576006e+01 6.98675541386468e-02
8.75333333333333e-02 1.18055794802866e+01 6.87676840393277e-02
8.81111111111111e-02 1.15813204237310e+01 6.76836537530577e-02
8.86888888888889e-02 1.13613213973112e+01 6.66152794328821e-02
8.92666666666667e-02 1.11455014773978e+01 6.55623778399275e-02
8.98444444444444e-02 1.09337812775892e+01 6.45247664349779e-02
9.04222222222222e-02 1.07260829195415e+01 6.35022634001745e-02
9.10000000000000e-02 1.05223300042243e+01 6.24946877237081e-02
9.15777777777778e-02 1.03224475839180e+01 6.15018592785388e-02
9.21555555555555e-02 1.01263621346116e+01 6.05235988474566e-02
9.27333333333333e-02 9.93400152898714e+00 5.95597281485062e-02
9.33111111111111e-02 9.74529500979961e+00 5.86100699053184e-02
9.38888888888889e-02 9.56017316394019e+00 5.76744479121829e-02
9.44666666666667e-02 9.37856789687299e+00 5.67526870396037e-02
9.50444444444444e-02 9.20041240758754e+00 5.58446132943638e-02
9.56222222222222e-02 9.02564116405264e+00 5.49500538228687e-02
9.62000000000000e-02 8.85418987903285e+00 5.40688369664959e-02
9.67777777777778e-02 8.68599548652091e+00 5.32007923124405e-02
9.73555555555556e-02 8.52099611851283e+00 5.23457507011108e-02
9.79333333333333e-02 8.35913108227398e+00 5.15035442341566e-02
9.85111111111111e-02 8.20034083794313e+00 5.06740063196811e-02
9.90888888888889e-02 8.04456697670344e+00 4.98569717134832e-02
9.96666666666667e-02 7.89175219927326e+00 4.90522765119439e-02
1.00244444444444e-01 7.74184029482940e+00 4.82597582156969e-02
1.00822222222222e-01 7.59477612041278e+00 4.74792556261775e-02
1.01400000000000e-01 7.45050558035526e+00 4.67106089692447e-02
1.01977777777778e-01 7.30897560671701e+00 4.59536599734337e-02
1.02555555555556e-01 7.17013413963789e+00 4.52082518279287e-02
1.03133333333333e-01 7.03393010837441e+00 4.44742290058532e-02
1.03711111111111e-01 6.90031341194732e+00 4.37514374417305e-02
1.04288888888889e-01 6.76923490128718e+00 4.30397246899412e-02
1.04866666666667e-01 6.64064636096101e+00 4.23389397002540e-02
1.05444444444444e-01 6.51450049143752e+00 4.16489329747360e-02
1.06022222222222e-01 6.39075089185309e+00 4.09695563583304e-02
1.06600000000000e-01 6.26935204244270e+00 4.03006631936550e-02
1.07177777777778e-01 6.15025928830414e+00 3.96421084587242e-02
1.07755555555556e-01 6.03342882280070e+00 3.89937486262260e-02
1.08333333333333e-01 5.91881767159675e+00 3.83554415390563e-02
1.08911111111111e-01 5.80638367639643e+00 3.77270465486702e-02
1.09488888888889e-01 5.69608547989630e+00 3.71084246378237e-02
1.10066666666667e-01 5.58788251041694e+00 3.64994382293023e-02
1.10644444444444e-01 5.48173496697966e+00 3.58999513079125e-02
1.11222222222222e-01 5.37760380479810e+00 3.53098292417417e-02
1.11800000000000e-01 5.27545072051435e+00 3.47289389028986e-02
1.12377777777778e-01 5.17523813851692e+00 3.41571487742272e-02
1.12955555555556e-01 5.07692919698145e+00 3.35943288276279e-02
1.13533333333333e-01 4.98048773443143e+00 3.30403504156817e-02
1.14111111111111e-01 4.88587827607239e+00 3.24950863795913e-02
1.14688888888889e-01 4.79306602111228e+00 3.19584111442925e-02
1.15266666666667e-01 4.70201682983544e+00 3.14302005557349e-02
1.15844444444444e-01 4.61269721104522e+00 3.09103319757688e-02
1.16422222222222e-01 4.52507430985059e+00 3.03986841298657e-02
1.17000000000000e-01 4.43911589525804e+00 2.98951372013399e-02
1.17577777777778e-01 4.35479034864323e+00 2.93995729140397e-02
1.18155555555556e-01 4.27206665200986e+00 2.89118744274711e-02
1.18733333333333e-01 4.19091437667661e+00 2.84319262428233e-02
1.19311111111111e-01 4.11130367179120e+00 2.79596142872088e-02
1.19888888888889e-01 4.03320525364734e+00 2.74948259873498e-02
1.20466666666667e-01 3.95659039481247e+00 2.70374501313223e-02
1.21044444444444e-01 3.88143091356115e+00 2.65873769423537e-02
1.21622222222222e-01 3.80769916359408e+00 2.61444979492720e-02
1.22200000000000e-01 3.73536802360877e+00 2.57087060600358e-02
1.22777777777778e-01 3.66441088758694e+00 2.52798956257754e-02
1.23355555555556e-01 3.59480165491882e+00 2.48579623506279e-02
1.23933333333333e-01 3.52651472088009e+00 2.44428032105216e-02
1.24511111111111e-01 3.45952496697734e+00 2.40343165189068e-02
1.25088888888889e-01 3.39380775194797e+00 2.36324019838000e-02
1.25666666666667e-01 3.32933890261525e+00 2.32369605904316e-02
1.26244444444444e-01 3.26609470499674e+00 2.28478946586116e-02
1.26822222222222e-01 3.20405189565032e+00 2.24651077326314e-02
1.27400000000000e-01 3.14318765290722e+00 2.20885046386263e-02
1.27977777777778e-01 3.08347958869007e+00 2.17179915341238e-02
1.28555555555556e-01 3.02490574020591e+00 2.13534758306817e-02
1.29133333333333e-01 2.96744456193023e+00 2.09948661238838e-02
1.29711111111111e-01 2.91107491749099e+00 2.06420722446020e-02
1.30288888888889e-01 2.85577607208722e+00 2.02950053030992e-02
1.30866666666667e-01 2.80152768479660e+00 1.99535775894973e-02
1.31444444444444e-01 2.74830980109353e+00 1.96177026183239e-02
1.32022222222222e-01 2.69610284556472e+00 1.92872950350293e-02
1.32600000000000e-01 2.64488761453916e+00 1.89622706607006e-02
1.33177777777778e-01 2.59464526919614e+00 1.86425465303358e-02
1.33755555555556e-01 2.54535732857759e+00 1.83280408265785e-02
1.34333333333333e-01 2.49700566284090e+00 1.80186728195086e-02
1.34911111111111e-01 2.44957248643579e+00 1.77143629065791e-02
1.35488888888889e-01 2.40304035171852e+00 1.74150326466536e-02
1.36066666666667e-01 2.35739214248113e+00 1.71206046756383e-02
1.36644444444444e-01 2.31261106765554e+00 1.68310027410246e-02
1.37222222222222e-01 2.26868065518236e+00 1.65461516225697e-02
1.37800000000000e-01 2.22558474581449e+00 1.62659771671086e-02
1.38377777777778e-01 2.18330748731239e+00 1.59904063180565e-02
1.38955555555556e-01 2.14183332856599e+00 1.57193670587268e-02
1.39533333333333e-01 2.10114701391554e+00 1.54527883606382e-02
1.40111111111111e-01 2.06123357741512e+00 1.51906002145845e-02
1.40688888888889e-01 2.02207833745422e+00 1.49327336568418e-02
1.41266666666667e-01 1.98366689131444e+00 1.46791206976893e-02
1.41844444444444e-01 1.94598510987184e+00 1.44296943481414e-02
1.42422222222222e-01 1.90901913243619e+00 1.41843885526838e-02
1.43000000000000e-01 1.87275536154124e+00 1.39431382163326e-02
1.43577777777778e-01 1.83718045805592e+00 1.37058792273131e-02
1.44155555555556e-01 1.80228133623957e+00 1.34725484086298e-02
1.44733333333333e-01 1.76804515896188e+00 1.32430834737526e-02
1.45311111111111e-01 1.73445933287960e+00 1.30174230507446e-02
1.45888888888889e-01 1.70151150390696e+00 1.27955067023773e-02
1.46466666666667e-01 1.66918955263662e+00 1.25772748655955e-02
1.47044444444444e-01 1.63748158988182e+00 1.23626688721540e-02
1.47622222222222e-01 1.60637595233274e+00 1.21516308916038e-02
1.48200000000000e-01 1.57586119817602e+00 1.19441039522795e-02
1.48777777777778e-01 1.54592610297756e+00 1.17400319586739e-02
1.49355555555556e-01 1.51655965552288e+00 1.15393596500981e-02
1.49933333333333e-01 1.48775105379382e+00 1.13420325627423e-02
1.50511111111111e-01 1.45948970091290e+00 1.11479970483692e-02
1.51088888888889e-01 1.43176520132883e+00 1.09572002896939e-02
1.51666666666667e-01 1.40456735696439e+00 1.07695902491356e-02
1.52244444444444e-01 1.37788616346528e+00 1.05851156846979e-02
1.52822222222222e-01 1.35171180654430e+00 1.04037261016618e-02
1.53400000000000e-01 1.32603465829785e+00 1.02253717688225e-02
1.53977777777778e-01 1.30084527373885e+00 1.00500037317424e-02
1.54555555555556e-01 1.27613438729742e+00 9.87757377749322e-03
1.55133333333333e-01 1.25189290943465e+00 9.70803440221080e-03
1.55711111111111e-01 1.22811192323225e+00 9.54133882553597e-03
1.56288888888889e-01 1.20478268118035e+00 9.37744100231909e-03
1.56866666666667e-01 1.18189660193699e+00 9.21629557924457e-03
1.57444444444444e-01 1.15944526717157e+00 9.05785790700510e-03
1.58022222222222e-01 1.13742041848794e+00 8.90208399938532e-03
1.58600000000000e-01 1.11581395432690e+00 8.74893054578275e-03
1.59177777777778e-01 1.09461792704672e+00 8.59835492126472e-03
1.59755555555556e-01 1.07382453997925e+00 8.45031515651964e-03
1.60333333333333e-01 1.05342614457995e+00 8.30476991013547e-03
1.60911111111111e-01 1.03341523755997e+00 8.16167847971628e-03
1.61488888888889e-01 1.01378445818141e+00 8.02100081073985e-03
1.62066666666667e-01 9.94526585531089e-01 7.88269745985354e-03
1.62644444444444e-01 9.75634535864487e-01 7.74672960416359e-03
1.63222222222222e-01 9.57101360016034e-01 7.61305900658836e-03
1.63800000000000e-01 9.38920240794327e-01 7.48164802547656e-03
1.64377777777778e-01 9.21084490523817e-01 7.35245962219050e-03
1.64955555555556e-01 9.03587548568191e-01 7.22545733551228e-03
1.65533333333333e-01 8.86422978931738e-01 7.10060525797793e-03
1.66111111111111e-01 8.69584467847545e-01 6.97786804439952e-03
1.66688888888889e-01 8.53065821500076e-01 6.85721091852024e-03
1.67266666666667e-01 8.36860963731634e-01 6.73859964196169e-03
1.67844444444444e-01 8.20963933807365e-01 6.62200052127216e-03
1.68422222222222e-01 8.05368884235713e-01 6.50738037859565e-03
1.69000000000000e-01 7.90070078577826e-01 6.39470655902562e-03
1.69577777777778e-01 7.75061889377695e-01 6.28394693627773e-03
1.70155555555556e-01 7.60338796078591e-01 6.17506989090311e-03
1.70733333333333e-01 7.45895383004322e-01 6.06804429009912e-03
1.71311111111111e-01 7.31726337330919e-01 5.96283949420922e-03
1.71888888888889e-01 7.17826447169107e-01 5.85942536168026e-03
1.72466666666667e-01 7.04190599634763e-01 5.75777222279466e-03
1.73044444444444e-01 6.90813778968235e-01 5.65785088498106e-03
1.73622222222222e-01 6.77691064700000e-01 5.55963260798917e-03
1.74200000000000e-01 6.64817629808361e-01 5.46308910948051e-03
1.74777777777778e-01 6.52188738976702e-01 5.36819256923001e-03
1.75355555555556e-01 6.39799746840590e-01 5.27491561058904e-03
1.75933333333333e-01 6.27646096288769e-01 5.18323128327332e-03
1.76511111111111e-01 6.15723316757307e-01 5.09311306829029e-03
1.77088888888889e-01 6.04027022615140e-01 5.00453488159046e-03
1.77666666666667e-01 5.92552911540741e-01 4.91747105185063e-03
1.78244444444444e-01 5.81296762939586e-01 4.83189632444197e-03
1.78822222222222e-01 5.70254436400357e-01 4.74778584042084e-03
1.79400000000000e-01 5.59421870145500e-01 4.66511514075114e-03
1.79977777777778e-01 5.48795079563957e-01 4.58386016937745e-03
1.80555555555556e-01 5.38370155736432e-01 4.50399725745930e-03
1.81133333333333e-01 5.28143264005500e-01 4.42550310870620e-03
1.81711111111111e-01 5.18110642540904e-01 4.34835480308438e-03
1.82288888888889e-01 5.08268600980321e-01 4.27252979946895e-03
