Energy (eV)          EEDF (eV^-(3/2))     First Anisotropy
9.33695652173913e-03 2.86411906262112e-01 1.57734018501186e-04
2.80108695652174e-02 2.84270391406860e-01 2.60365245042123e-04
4.66847826086957e-02 2.82144888751622e-01 3.43450910529632e-04
6.53586956521739e-02 2.80035278578611e-01 4.06413283364912e-04
8.40326086956522e-02 2.77941442055080e-01 4.58793710286118e-04
1.02706521739130e-01 2.75863261243757e-01 5.04202822924110e-04
1.21380434782609e-01 2.73800619088825e-01 5.44510686096913e-04
1.40054347826087e-01 2.71753399403195e-01 5.80847495132634e-04
1.58728260869565e-01 2.69721486872344e-01 6.13963416396503e-04
1.77402173913043e-01 2.67704767043971e-01 6.44389073893825e-04
1.96076086956522e-01 2.65703126321538e-01 6.72517573558150e-04
2.14750000000000e-01 2.63716451957879e-01 6.98650606075779e-04
2.33423913043478e-01 2.61744632040154e-01 7.23026248621470e-04
2.52097826086957e-01 2.59787555510452e-01 7.45836675804719e-04
2.70771739130435e-01 2.57845112131671e-01 7.67239943945279e-04
2.89445652173913e-01 2.55917192490980e-01 7.87368113465010e-04
3.08119565217391e-01 2.54003687993653e-01 8.06333022106129e-04
3.26793478260870e-01 2.52104490856945e-01 8.24230491305895e-04
3.45467391304348e-01 2.50219494104018e-01 8.41143459001585e-04
3.64141304347826e-01 2.48348591557914e-01 8.57144357562794e-04
3.82815217391304e-01 2.46491677835571e-01 8.72296949078454e-04
4.01489130434783e-01 2.44648648341886e-01 8.86657762894555e-04
4.20163043478261e-01 2.42819399263825e-01 9.00277236531961e-04
4.38836956521739e-01 2.41003827564569e-01 9.13200631962349e-04
4.57510869565217e-01 2.39201830977704e-01 9.25468779370098e-04
4.76184782608696e-01 2.37413308001481e-01 9.37118686768976e-04
4.94858695652174e-01 2.35638157893087e-01 9.48184044106972e-04
5.13532608695652e-01 2.33876280662969e-01 9.58695643505279e-04
5.32206521739131e-01 2.32127577069201e-01 9.68681732206914e-04
5.50880434782609e-01 2.30391948611893e-01 9.78168311052317e-04
5.69554347826087e-01 2.28669297527648e-01 9.87179388499883e-04
5.88228260869565e-01 2.26959526784048e-01 9.95737198092787e-04
6.06902173913044e-01 2.25262540074194e-01 1.00386238565838e-03
6.25576086956522e-01 2.23578241811275e-01 1.01157417128158e-03
6.44250000000000e-01 2.21906537123192e-01 1.01889049050461e-03
6.62923913043478e-01 2.20247331844704e-01 1.02582811616318e-03
6.81597826086957e-01 2.18600532519747e-01 1.03240276702221e-03
7.00271739130435e-01 2.16966046388430e-01 1.03862920352379e-03
7.18945652173913e-01 2.15343781384437e-01 1.04452131055286e-03
7.37619565217391e-01 2.13733646129833e-01 1.05009217228905e-03
7.56293478260870e-01 2.12135549929922e-01 1.05535413846941e-03
7.74967391304348e-01 2.10549402768137e-01 1.06031888354776e-03
7.93641304347826e-01 2.08975115300970e-01 1.06499745967197e-03
8.12315217391304e-01 2.07412598852938e-01 1.06940034426163e-03
8.30989130434783e-01 2.05861765411590e-01 1.07353748285283e-03
8.49663043478261e-01 2.04322527622548e-01 1.07741832778174e-03
8.68336956521739e-01 2.02794798784586e-01 1.08105187319849e-03
8.87010869565217e-01 2.01278492844747e-01 1.08444668683290e-03
9.05684782608696e-01 1.99773524393499e-01 1.08761093888037e-03
9.24358695652174e-01 1.98279808659917e-01 1.09055242832661e-03
9.43032608695652e-01 1.96797261506918e-01 1.09327860698603e-03
9.61706521739131e-01 1.95325799426512e-01 1.09579660149759e-03
9.80380434782609e-01 1.93865339535104e-01 1.09811323348975e-03
9.99054347826087e-01 1.92415799568824e-01 1.10023503705815e-03
1.01772826086957e+00 1.90977097884440e-01 1.10216828077371e-03
1.03640217391304e+00 1.89549153428369e-01 1.10391897500627e-03
1.05507608695652e+00 1.88131885782182e-01 1.10549288957681e-03
1.07375000000000e+00 1.86725215114587e-01 1.10689557650809e-03
1.09242391304348e+00 1.85329062178641e-01 1.10813236666079e-03
1.11109782608696e+00 1.83943348345670e-01 1.10920838905383e-03
1.12977173913043e+00 1.82567995561758e-01 1.11012858890388e-03
1.14844565217391e+00 1.81202926344885e-01 1.11089772275228e-03
1.16711956521739e+00 1.79848063816350e-01 1.11152037517145e-03
1.18579347826087e+00 1.78503331660063e-01 1.11200097218898e-03
1.20446739130435e+00 1.77168654130576e-01 1.11234378420765e-03
1.22314130434783e+00 1.75843956038149e-01 1.11255292934921e-03
1.24181521739130e+00 1.74529162776917e-01 1.11263238501270e-03
1.26048913043478e+00 1.73224200287813e-01 1.11258600106452e-03
1.27916304347826e+00 1.71928995055555e-01 1.11241749279412e-03
1.29783695652174e+00 1.70643474134861e-01 1.11213045337579e-03
1.31651086956522e+00 1.69367565115493e-01 1.11172836563232e-03
1.33518478260870e+00 1.68101196119309e-01 1.11121459448302e-03
1.35385869565217e+00 1.66844295824658e-01 1.11059239815882e-03
1.37253260869565e+00 1.65596793433464e-01 1.10986493881337e-03
1.39120652173913e+00 1.64358618668214e-01 1.10903527464876e-03
1.40988043478261e+00 1.63129701794783e-01 1.10810637007824e-03
1.42855434782609e+00 1.61909973591358e-01 1.10708110352800e-03
1.44722826086957e+00 1.60699365353701e-01 1.10596226684869e-03
1.46590217391304e+00 1.59497808883217e-01 1.10475256525334e-03
1.48457608695652e+00 1.58305236507632e-01 1.10345462431244e-03
1.50325000000000e+00 1.57121581052323e-01 1.10207099850920e-03
1.52192391304348e+00 1.55946775837343e-01 1.10060416317680e-03
1.54059782608696e+00 1.54780754696780e-01 1.09905652279089e-03
1.55927173913043e+00 1.53623451951585e-01 1.09743041886753e-03
1.57794565217391e+00 1.52474802406615e-01 1.09572812190406e-03
1.59661956521739e+00 1.51334741368805e-01 1.09395183906471e-03
1.61529347826087e+00 1.50203204621389e-01 1.09210371989632e-03
1.63396739130435e+00 1.49080128427765e-01 1.09018585484065e-03
1.65264130434783e+00 1.47965449521255e-01 1.08820027424064e-03
1.67131521739130e+00 1.46859105121691e-01 1.08614895356289e-03
1.68998913043478e+00 1.45761032911488e-01 1.08403382006291e-03
1.70866304347826e+00 1.44671171032735e-01 1.08185674498353e-03
1.72733695652174e+00 1.43589458102790e-01 1.07961955007902e-03
1.74601086956522e+00 1.42515833191492e-01 1.07732401385776e-03
1.76468478260870e+00 1.41450235818317e-01 1.07497186390414e-03
1.78335869565217e+00 1.40392605967043e-01 1.07256478301500e-03
1.80203260869565e+00 1.39342884064062e-01 1.07010441507667e-03
1.82070652173913e+00 1.38301010975544e-01 1.06759235752932e-03
1.83938043478261e+00 1.37266928021283e-01 1.06503016714601e-03
1.85805434782609e+00 1.36240576954019e-01 1.06241936421399e-03
1.87672826086957e+00 1.35221899962006e-01 1.05976143067012e-03
1.89540217391304e+00 1.34210839660514e-01 1.05705780866430e-03
1.91407608695652e+00 1.33207339104524e-01 1.05430990443825e-03
1.93275000000000e+00 1.32211341769400e-01 1.05151909345980e-03
1.95142391304348e+00 1.31222791548159e-01 1.04868671331758e-03
1.97009782608696e+00 1.30241632763453e-01 1.04581406879186e-03
1.98877173913043e+00 1.29267810149108e-01 1.04290243672685e-03
2.00744565217391e+00 1.28301268847424e-01 1.03995305909454e-03
2.02611956521739e+00 1.27341954420514e-01 1.03696714781306e-03
2.04479347826087e+00 1.26389812832646e-01 1.03394588816969e-03
2.06346739130435e+00 1.25444790452121e-01 1.03089043693335e-03
2.08214130434783e+00 1.24506834043813e-01 1.02780192084383e-03
2.10081521739130e+00 1.23575890779613e-01 1.02468143981017e-03
2.11948913043478e+00 1.22651908221867e-01 1.02153007124337e-03
2.13816304347826e+00 1.21734834320777e-01 1.01834886356765e-03
2.15683695652174e+00 1.20824617424284e-01 1.01513884051100e-03
2.17551086956522e+00 1.19921206262194e-01 1.01190100523798e-03
2.19418478260870e+00 1.19024549943641e-01 1.00863633403199e-03
2.21285869565217e+00 1.18134597966435e-01 1.00534578039794e-03
2.23153260869565e+00 1.17251300201860e-01 1.00203027901598e-03
2.25020652173913e+00 1.16374606892168e-01 9.98690739593811e-04
2.26888043478261e+00 1.15504468659443e-01 9.95328050788350e-04
2.28755434782609e+00 1.14640836491035e-01 9.91943082953417e-04
2.30622826086957e+00 1.13783661740759e-01 9.88536686344149e-04
2.32490217391304e+00 1.12932896122562e-01 9.85109689640481e-04
2.34357608695652e+00 1.12088491718716e-01 9.81662902530153e-04
2.36225000000000e+00 1.11250400966087e-01 9.78197119273179e-04
2.38092391304348e+00 1.10418576653734e-01 9.74713112975462e-04
2.39959782608696e+00 1.09592971930683e-01 9.71211639130821e-04
2.41827173913043e+00 1.08773540292739e-01 9.67693439041163e-04
2.43694565217391e+00 1.07960235580130e-01 9.64159234250005e-04
2.45561956521739e+00 1.07153011984890e-01 9.60609729942782e-04
2.47429347826087e+00 1.06351824038190e-01 9.57045617304720e-04
2.49296739130435e+00 1.05556626611177e-01 9.53467571842018e-04
2.51164130434783e+00 1.04767374909336e-01 9.49876251983754e-04
2.53031521739130e+00 1.03984024479333e-01 9.46272301305171e-04
2.54898913043478e+00 1.03206531197056e-01 9.42656351636715e-04
2.56766304347826e+00 1.02434851265351e-01 9.39029017884907e-04
2.58633695652174e+00 1.01668941220525e-01 9.35390901123219e-04
2.60501086956522e+00 1.00908757920836e-01 9.31742591581316e-04
2.62368478260870e+00 1.00154258544282e-01 9.28084663612818e-04
2.64235869565217e+00 9.94054005947783e-02 9.24417678672340e-04
2.66103260869565e+00 9.86621418910872e-02 9.20742188195305e-04
2.67970652173913e+00 9.79244405646431e-02 9.17058728709131e-04
2.69838043478261e+00 9.71922550654305e-02 9.13367824698152e-04
2.71705434782609e+00 9.64655441513307e-02 9.09669990576533e-04
2.73572826086957e+00 9.57442668885938e-02 9.05965729170167e-04
2.75440217391304e+00 9.50283826469741e-02 9.02255530437097e-04
2.77307608695652e+00 9.43178511051934e-02 8.98539873333076e-04
2.79175000000000e+00 9.36126322408427e-02 8.94819228446075e-04
2.81042391304348e+00 9.29126863283101e-02 8.91094053449000e-04
2.82909782608696e+00 9.22179739439757e-02 8.87364795723224e-04
2.84777173913043e+00 9.15284559564840e-02 8.83631894899844e-04
2.86644565217391e+00 9.08440935247119e-02 8.79895778442306e-04
2.88511956521739e+00 9.01648481027148e-02 8.76156864177463e-04
2.90379347826087e+00 8.94906814303538e-02 8.72415562027508e-04
2.92246739130435e+00 8.88215555335645e-02 8.68672272617772e-04
2.94114130434783e+00 8.81574327199923e-02 8.64927386095559e-04
2.95981521739130e+00 8.74982755836006e-02 8.61181283770168e-04
2.97848913043478e+00 8.68440469957721e-02 8.57434340448515e-04
2.99716304347826e+00 8.61947101033681e-02 8.53686920325163e-04
3.01583695652174e+00 8.55502283331158e-02 8.49939379307392e-04
3.03451086956522e+00 8.49105653830222e-02 8.46192067270026e-04
3.05318478260870e+00 8.42756852204782e-02 8.42445324062743e-04
3.07185869565217e+00 8.36455520864347e-02 8.38699481757843e-04
3.09053260869565e+00 8.30201304871228e-02 8.34954866830510e-04
3.10920652173913e+00 8.23993851921910e-02 8.31211796279985e-04
3.12788043478261e+00 8.17832812386884e-02 8.27470579800664e-04
3.14655434782609e+00 8.11717839230755e-02 8.23731521262389e-04
3.16522826086957e+00 8.05648588012925e-02 8.19994917469140e-04
3.18390217391304e+00 7.99624716849559e-02 8.16261057098689e-04
3.20257608695652e+00 7.93645886450735e-02 8.12530222106304e-04
3.22125000000000e+00 7.87711760044415e-02 8.08802689735307e-04
3.23992391304348e+00 7.81822003358715e-02 8.05078728905881e-04
3.25859782608696e+00 7.75976284657308e-02 8.01358602218456e-04
3.27727173913044e+00 7.70174274665998e-02 7.97642567898613e-04
3.29594565217391e+00 7.64415646555358e-02 7.93930876288421e-04
3.31461956521739e+00 7.58700075974491e-02 7.90223771784646e-04
3.33329347826087e+00 7.53027240980127e-02 7.86521494154611e-04
3.35196739130435e+00 7.47396822036187e-02 7.82824277404162e-04
3.37064130434783e+00 7.41808501979450e-02 7.79132348806637e-04
3.38931521739130e+00 7.36261966051086e-02 7.75445930151665e-04
3.40798913043478e+00 7.30756901829109e-02 7.71765239544043e-04
3.42666304347826e+00 7.25292999211821e-02 7.68090488135224e-04
3.44533695652174e+00 7.19869950447887e-02 7.64421881914918e-04
3.46401086956522e+00 7.14487450071026e-02 7.60759623451819e-04
3.48268478260870e+00 7.09145194883832e-02 7.57103908717267e-04
3.50135869565217e+00 7.03842883986455e-02 7.53454928821144e-04
3.52003260869565e+00 6.98580218713479e-02 7.49812871698773e-04
3.53870652173913e+00 6.93356902618051e-02 7.46177919024059e-04
3.55738043478261e+00 6.88172641499278e-02 7.42550247889695e-04
3.57605434782609e+00 6.83027143341193e-02 7.38930031945840e-04
3.59472826086957e+00 6.77920118311248e-02 7.35317440394949e-04
3.61340217391304e+00 6.72851278730164e-02 7.31712637125677e-04
3.63207608695652e+00 6.67820339097541e-02 7.28115781794274e-04
3.65075000000000e+00 6.62827016033605e-02 7.24527031387987e-04
3.66942391304348e+00 6.57871028264124e-02 7.20946537347052e-04
3.68809782608696e+00 6.52952096644833e-02 7.17374447122457e-04
3.70677173913044e+00 6.48069944105084e-02 7.13810905691136e-04
3.72544565217391e+00 6.43224295633072e-02 7.10256052758559e-04
3.74411956521739e+00 6.38414878299165e-02 7.06710024268576e-04
3.76279347826087e+00 6.33641421201379e-02 7.03172953423253e-04
3.78146739130435e+00 6.28903655463287e-02 6.99644969767516e-04
3.80014130434783e+00 6.24201314206670e-02 6.96126198398050e-04
3.81881521739130e+00 6.19534132573352e-02 6.92616760932396e-04
3.83748913043478e+00 6.14901847673119e-02 6.89116776916041e-04
3.85616304347826e+00 6.10304198569654e-02 6.85626361212650e-04
3.87483695652174e+00 6.05740926301379e-02 6.82145625405340e-04
3.89351086956522e+00 6.01211773831019e-02 6.78674679160437e-04
3.91218478260870e+00 5.96716486031861e-02 6.75213627690288e-04
3.93085869565217e+00 5.92254809707642e-02 6.71762573112903e-04
3.94953260869565e+00 5.87826493543735e-02 6.68321615775355e-04
3.96820652173913e+00 5.83431288093668e-02 6.64890851786812e-04
3.98688043478261e+00 5.79068945798148e-02 6.61470374336763e-04
4.00555434782609e+00 5.74739220937782e-02 6.58060274584534e-04
4.02422826086957e+00 5.70441869630431e-02 6.54660640846900e-04
4.04290217391304e+00 5.66176649807080e-02 6.51271557893986e-04
4.06157608695652e+00 5.61943321229639e-02 6.47893107794901e-04
4.08025000000000e+00 5.57741645445714e-02 6.44525371148197e-04
4.09892391304348e+00 5.53571385775813e-02 6.41168424778760e-04
4.11759782608696e+00 5.49432307330332e-02 6.37822342963865e-04
4.13627173913043e+00 5.45324176965747e-02 6.34487198627067e-04
4.15494565217391e+00 5.41246763272081e-02 6.31163061098649e-04
4.17361956521739e+00 5.37199836589146e-02 6.27849997305287e-04
4.19229347826087e+00 5.33183168964094e-02 6.24548072570950e-04
4.21096739130435e+00 5.29196534148496e-02 6.21257349876933e-04
4.22964130434783e+00 5.25239707576374e-02 6.17977889218991e-04
4.24831521739130e+00 5.21312466379419e-02 6.14709748369017e-04
4.26698913043478e+00 5.17414589346355e-02 6.11452983987096e-04
4.28566304347826e+00 5.13545856911020e-02 6.08207649529097e-04
4.30433695652174e+00 5.09706051166897e-02 6.04973796354051e-04
4.32301086956522e+00 5.05894955827719e-02 6.01751474803169e-04
4.34168478260870e+00 5.02112356215817e-02 5.98540732164725e-04
4.36035869565217e+00 4.98358039276001e-02 5.95341613749682e-04
4.37903260869565e+00 4.94631793537370e-02 5.92154163939709e-04
4.39770652173913e+00 4.90933409101904e-02 5.88978424207726e-04
4.41638043478261e+00 4.87262677657733e-02 5.85814434161684e-04
4.43505434782609e+00 4.83619392442117e-02 5.82662232246915e-04
4.45372826086957e+00 4.80003348238289e-02 5.79521855089200e-04
4.47240217391304e+00 4.76414341355991e-02 5.76393336922553e-04
4.49107608695652e+00 4.72852169643907e-02 5.73276710257403e-04
4.50975000000000e+00 4.69316632454177e-02 5.70172006857616e-04
4.52842391304348e+00 4.65807530631565e-02 5.67079255889804e-04
4.54709782608696e+00 4.62324666525324e-02 5.63998484896542e-04
4.56577173913043e+00 4.58867843954789e-02 5.60929720745217e-04
4.58444565217391e+00 4.55436868198769e-02 5.57872987827646e-04
4.60311956521739e+00 4.52031546006891e-02 5.54828309005328e-04
4.62179347826087e+00 4.48651685566230e-02 5.51795706244165e-04
4.64046739130435e+00 4.45297096498058e-02 5.48775200015543e-04
4.65914130434783e+00 4.41967589840075e-02 5.45766808773884e-04
4.67781521739130e+00 4.38662978057047e-02 5.42770549560607e-04
4.69648913043478e+00 4.35383075008803e-02 5.39786438889623e-04
4.71516304347826e+00 4.32127695940150e-02 5.36814491063310e-04
4.73383695652174e+00 4.28896657491030e-02 5.33854719054299e-04
4.75251086956522e+00 4.25689777665465e-02 5.30907135365376e-04
4.77118478260870e+00 4.22506875821696e-02 5.27971750390904e-04
4.78985869565217e+00 4.19347772681887e-02 5.25048573273890e-04
4.80853260869565e+00 4.16212290301993e-02 5.22137612741823e-04
4.82720652173913e+00 4.13100252062102e-02 5.19238875512372e-04
4.84588043478261e+00 4.10011482675719e-02 5.16352367125678e-04
4.86455434782609e+00 4.06945808160519e-02 5.13478092503150e-04
4.88322826086957e+00 4.03903055835050e-02 5.10616055415293e-04
4.90190217391304e+00 4.00883054302937e-02 5.07766258016421e-04
4.92057608695652e+00 3.97885633461576e-02 5.04928701376562e-04
4.93925000000000e+00 3.94910624474063e-02 5.02103386262085e-04
4.95792391304348e+00 3.91957859760031e-02 4.99290311643405e-04
4.97659782608696e+00 3.89027173003948e-02 4.96489475472435e-04
4.99527173913044e+00 3.86118399127868e-02 4.93700875441224e-04
5.01394565217391e+00 3.83231374282464e-02 4.90924507529690e-04
5.03261956521739e+00 3.80365935854966e-02 4.88160366761269e-04
5.05129347826087e+00 3.77521922442699e-02 4.85408447709326e-04
5.06996739130435e+00 3.74699173849808e-02 4.82668744011477e-04
5.08864130434783e+00 3.71897531072803e-02 4.79941247944482e-04
5.10731521739130e+00 3.69116836308000e-02 4.77225950906346e-04
5.12598913043478e+00 3.66356932926114e-02 4.74522844125580e-04
5.14466304347826e+00 3.63617665463741e-02 4.71831917301212e-04
5.16333695652174e+00 3.60898879630455e-02 4.69153159308804e-04
5.18201086956522e+00 3.58200422284141e-02 4.66486558889678e-04
5.20068478260870e+00 3.55522141422657e-02 4.63832103327191e-04
5.21935869565217e+00 3.52863886190624e-02 4.61189779133369e-04
5.23803260869565e+00 3.50225506855457e-02 4.58559572719270e-04
5.25670652173913e+00 3.47606854799217e-02 4.55941469106448e-04
5.27538043478261e+00 3.45007782525089e-02 4.53335452594295e-04
5.29405434782609e+00 3.42428143634117e-02 4.50741507207268e-04
5.31272826086957e+00 3.39867792821972e-02 4.48159616262786e-04
5.33140217391304e+00 3.37326585866079e-02 4.45589761992424e-04
5.35007608695652e+00 3.34804379631681e-02 4.43031925967729e-04
5.36875000000000e+00 3.32301032049481e-02 4.40486089727207e-04
5.38742391304348e+00 3.29816402107898e-02 4.37952233568923e-04
5.40609782608696e+00 3.27350349858858e-02 4.35430337174826e-04
5.42477173913044e+00 3.24902736396072e-02 4.32920380220414e-04
5.44344565217391e+00 3.22473423847460e-02 4.30422341199342e-04
5.46211956521739e+00 3.20062275380687e-02 4.27936198030557e-04
5.48079347826087e+00 3.17669155182051e-02 4.25461928464477e-04
5.49946739130435e+00 3.15293928453341e-02 4.22999509688274e-04
5.51814130434783e+00 3.12936461400026e-02 4.20548917979536e-04
5.53681521739130e+00 3.10596621236441e-02 4.18110129093012e-04
5.55548913043478e+00 3.08274276165497e-02 4.15683118831263e-04
5.57416304347826e+00 3.05969295371483e-02 4.13267861943065e-04
5.59283695652174e+00 3.03681549025015e-02 4.10864332691365e-04
5.61151086956522e+00 3.01410908263310e-02 4.08472505408121e-04
5.63018478260870e+00 2.99157245183155e-02 4.06092353421645e-04
5.64885869565217e+00 2.96920432845627e-02 4.03723849609264e-04
5.66753260869565e+00 2.94700345256926e-02 4.01366966937247e-04
5.68620652173913e+00 2.92496857361490e-02 3.99021677416364e-04
5.70488043478261e+00 2.90309845046507e-02 3.96687952639205e-04
5.72355434782609e+00 2.88139185123283e-02 3.94365764139854e-04
5.74222826086957e+00 2.85984755324213e-02 3.92055083042300e-04
5.76090217391304e+00 2.83846434292236e-02 3.89755879751485e-04
5.77957608695652e+00 2.81724101585049e-02 3.87468124295801e-04
5.79825000000000e+00 2.79617637657189e-02 3.85191786832583e-04
5.81692391304348e+00 2.77526923853504e-02 3.82926836668688e-04
5.83559782608696e+00 2.75451842413163e-02 3.80673242763753e-04
5.85427173913044e+00 2.73392276452248e-02 3.78430974222010e-04
5.87294565217391e+00 2.71348109957354e-02 3.76199999338515e-04
5.89161956521739e+00 2.69319227789427e-02 3.73980286088764e-04
