Energy (eV)          EEDF (eV^-(3/2))     First Anisotropy
3.94897959183674e-03 9.48328551246089e-01 5.03058456858523e-04
1.18469387755102e-02 9.41665928648852e-01 8.30566623358999e-04
1.97448979591837e-02 9.35050115267740e-01 1.09610865434596e-03
2.76428571428571e-02 9.28480782266678e-01 1.29764022544252e-03
3.55408163265306e-02 9.21957603110540e-01 1.46555233609771e-03
4.34387755102041e-02 9.15480253511672e-01 1.61133789659599e-03
5.13367346938776e-02 9.09048411488779e-01 1.74094570640606e-03
5.92346938775510e-02 9.02661757321941e-01 1.85796878073090e-03
6.71326530612245e-02 8.96319973537732e-01 1.96479053329044e-03
7.50306122448980e-02 8.90022744893031e-01 2.06309583447022e-03
8.29285714285714e-02 8.83769758367285e-01 2.15413215147036e-03
9.08265306122449e-02 8.77560703122580e-01 2.23885628484777e-03
9.87244897959184e-02 8.71395270513418e-01 2.31802284153706e-03
1.06622448979592e-01 8.65273154084651e-01 2.39224058745408e-03
1.14520408163265e-01 8.59194049445465e-01 2.46200990525920e-03
1.22418367346939e-01 8.53157654467153e-01 2.52774863718674e-03
1.30316326530612e-01 8.47163669085042e-01 2.58981045114063e-03
1.38214285714286e-01 8.41211795342442e-01 2.64849819261973e-03
1.46112244897959e-01 8.35301737376602e-01 2.70407384522044e-03
1.54010204081633e-01 8.29433201403806e-01 2.75676608926878e-03
1.61908163265306e-01 8.23605895668972e-01 2.80677611835112e-03
1.69806122448980e-01 8.17819530540243e-01 2.85428221259458e-03
1.77704081632653e-01 8.12073818382480e-01 2.89944336896502e-03
1.85602040816327e-01 8.06368473581292e-01 2.94240219632685e-03
1.93500000000000e-01 8.00703212529334e-01 2.98328728341164e-03
2.01397959183673e-01 7.95077753584234e-01 3.02221512183182e-03
2.09295918367347e-01 7.89491817139139e-01 3.05929171218169e-03
2.17193877551020e-01 7.83945125522383e-01 3.09461390375114e-03
2.25091836734694e-01 7.78437403012994e-01 3.12827050205323e-03
2.32989795918367e-01 7.72968375827330e-01 3.16034322162386e-03
2.40887755102041e-01 7.67537772083031e-01 3.19090748122448e-03
2.48785714285714e-01 7.62145321853616e-01 3.22003309914797e-03
2.56683673469388e-01 7.56790757085576e-01 3.24778489241794e-03
2.64581632653061e-01 7.51473811608629e-01 3.27422317964255e-03
2.72479591836735e-01 7.46194221122500e-01 3.29940422997805e-03
2.80377551020408e-01 7.40951723183935e-01 3.32338065500052e-03
2.88275510204082e-01 7.35746057175786e-01 3.34620174151621e-03
2.96173469387755e-01 7.30576964348149e-01 3.36791375753000e-03
3.04071428571429e-01 7.25444187750502e-01 3.38856022323515e-03
3.11969387755102e-01 7.20347472237481e-01 3.40818213769134e-03
3.19867346938776e-01 7.15286564456403e-01 3.42681819356409e-03
3.27765306122449e-01 7.10261212819482e-01 3.44450495641804e-03
3.35663265306123e-01 7.05271167537263e-01 3.46127703711209e-03
3.43561224489796e-01 7.00316180559546e-01 3.47716724708544e-03
3.51459183673469e-01 6.95396005578821e-01 3.49220672577041e-03
3.59357142857143e-01 6.90510398018055e-01 3.50642506522961e-03
3.67255102040816e-01 6.85659115018586e-01 3.51985042282071e-03
3.75153061224490e-01 6.80841915415419e-01 3.53250961458739e-03
3.83051020408163e-01 6.76058559763493e-01 3.54442821086238e-03
3.90948979591837e-01 6.71308810286987e-01 3.55563062377246e-03
3.98846938775510e-01 6.66592430880552e-01 3.56614017599637e-03
4.06744897959184e-01 6.61909187097711e-01 3.57597917441204e-03
4.14642857142857e-01 6.57258846128125e-01 3.58516896737040e-03
4.22540816326531e-01 6.52641176819459e-01 3.59373000716229e-03
4.30438775510204e-01 6.48055949632016e-01 3.60168190781921e-03
4.38336734693878e-01 6.43502936638741e-01 3.60904348811821e-03
4.46234693877551e-01 6.38981911513930e-01 3.61583281929419e-03
4.54132653061225e-01 6.34492649521991e-01 3.62206726903603e-03
4.62030612244898e-01 6.30034927496815e-01 3.62776353485204e-03
4.69928571428571e-01 6.25608523859324e-01 3.63293768401380e-03
4.77826530612245e-01 6.21213218577462e-01 3.63760519091823e-03
4.85724489795918e-01 6.16848793165011e-01 3.64178096250652e-03
4.93622448979592e-01 6.12515030670807e-01 3.64547937097354e-03
5.01520408163265e-01 6.08211715659503e-01 3.64871427562282e-03
5.09418367346939e-01 6.03938634226366e-01 3.65149905163831e-03
5.17316326530612e-01 5.99695573960846e-01 3.65384661721406e-03
5.25214285714286e-01 5.95482323944698e-01 3.65576945027355e-03
5.33112244897959e-01 5.91298674741528e-01 3.65727961093424e-03
5.41010204081633e-01 5.87144418386383e-01 3.65838876247303e-03
5.48908163265306e-01 5.83019348368061e-01 3.65910818473642e-03
5.56806122448980e-01 5.78923259641105e-01 3.65944879443678e-03
5.64704081632653e-01 5.74855948593097e-01 3.65942116443964e-03
5.72602040816327e-01 5.70817213042120e-01 3.65903553399048e-03
5.80500000000000e-01 5.66806852226737e-01 3.65830182607697e-03
5.88397959183674e-01 5.62824666789374e-01 3.65722965641066e-03
5.96295918367347e-01 5.58870458786475e-01 3.65582834909936e-03
6.04193877551020e-01 5.54944031658382e-01 3.65410695163573e-03
6.12091836734694e-01 5.51045190226382e-01 3.65207424165245e-03
6.19989795918367e-01 5.47173740683034e-01 3.64973874054315e-03
6.27887755102041e-01 5.43329490576530e-01 3.64710871944287e-03
6.35785714285714e-01 5.39512248819293e-01 3.64419221164472e-03
6.43683673469388e-01 5.35721825660125e-01 3.64099702453311e-03
6.51581632653061e-01 5.31958032680946e-01 3.63753074397030e-03
6.59479591836735e-01 5.28220682787434e-01 3.63380074394109e-03
6.67377551020408e-01 5.24509590199738e-01 3.62981419563785e-03
6.75275510204082e-01 5.20824570437900e-01 3.62557807104503e-03
6.83173469387755e-01 5.17165440328837e-01 3.62109915259094e-03
6.91071428571429e-01 5.13532017980925e-01 3.61638404248189e-03
6.98969387755102e-01 5.09924122780433e-01 3.61143916517704e-03
7.06867346938776e-01 5.06341575382574e-01 3.60627077602055e-03
7.14765306122449e-01 5.02784197697705e-01 3.60088496346958e-03
7.22663265306122e-01 4.99251812897224e-01 3.59528765709079e-03
7.30561224489796e-01 4.95744245389890e-01 3.58948463532462e-03
7.38459183673469e-01 4.92261320818099e-01 3.58348152687486e-03
7.46357142857143e-01 4.88802866049222e-01 3.57728381680789e-03
7.54255102040816e-01 4.85368709167008e-01 3.57089685231576e-03
7.62153061224490e-01 4.81958679458661e-01 3.56432584382372e-03
7.70051020408163e-01 4.78572607419580e-01 3.55757587150284e-03
7.77948979591837e-01 4.75210324731587e-01 3.55065189162311e-03
7.85846938775510e-01 4.71871664259034e-01 3.54355873704344e-03
7.93744897959184e-01 4.68556460040525e-01 3.53630112316281e-03
8.01642857142857e-01 4.65264547276637e-01 3.52888364837838e-03
8.09540816326531e-01 4.61995762333877e-01 3.52131079966296e-03
8.17438775510204e-01 4.58749942724288e-01 3.51358695802478e-03
8.25336734693878e-01 4.55526927101493e-01 3.50571639847721e-03
8.33234693877551e-01 4.52326555252681e-01 3.49770329419046e-03
8.41132653061225e-01 4.49148668090643e-01 3.48955172041999e-03
8.49030612244898e-01 4.45993107642235e-01 3.48126565441566e-03
8.56928571428571e-01 4.42859717051502e-01 3.47284898012616e-03
8.64826530612245e-01 4.39748340560802e-01 3.46430549281878e-03
8.72724489795918e-01 4.36658823506791e-01 3.45563889861484e-03
8.80622448979592e-01 4.33591012312738e-01 3.44685281885888e-03
8.88520408163265e-01 4.30544754477545e-01 3.43795078970891e-03
8.96418367346939e-01 4.27519898578288e-01 3.42893626626756e-03
9.04316326530612e-01 4.24516294252481e-01 3.41981262665014e-03
9.12214285714286e-01 4.21533792194024e-01 3.41058317126795e-03
9.20112244897959e-01 4.18572244145793e-01 3.40125112581977e-03
9.28010204081633e-01 4.15631502892271e-01 3.39181964412286e-03
9.35908163265306e-01 4.12711422249181e-01 3.38229180743491e-03
9.43806122448980e-01 4.09811857065427e-01 3.37267062802959e-03
9.51704081632653e-01 4.06932663206594e-01 3.36295905272482e-03
9.59602040816327e-01 4.04073697550902e-01 3.35315996196157e-03
9.67500000000000e-01 4.01234817982099e-01 3.34327617316572e-03
9.75397959183674e-01 3.98415883379572e-01 3.33331043991524e-03
9.83295918367347e-01 3.95616753619864e-01 3.32326545513941e-03
9.91193877551021e-01 3.92837289561103e-01 3.31314385428370e-03
9.99091836734694e-01 3.90077353038978e-01 3.30294821738814e-03
1.00698979591837e+00 3.87336806849181e-01 3.29268106270148e-03
1.01488775510204e+00 3.84615514770269e-01 3.28234484520713e-03
1.02278571428571e+00 3.81913341555525e-01 3.27194198723674e-03
1.03068367346939e+00 3.79230152856415e-01 3.26147485640598e-03
1.03858163265306e+00 3.76565815294477e-01 3.25094575376893e-03
1.04647959183673e+00 3.73920196428319e-01 3.24035693839861e-03
1.05437755102041e+00 3.71293164747033e-01 3.22971062072891e-03
1.06227551020408e+00 3.68684589663660e-01 3.21900896369684e-03
1.07017346938776e+00 3.66094341508689e-01 3.20825408385219e-03
1.07807142857143e+00 3.63522291523613e-01 3.19744805242348e-03
1.08596938775510e+00 3.60968311854549e-01 3.18659289636562e-03
1.09386734693878e+00 3.58432275545872e-01 3.17569059938268e-03
1.10176530612245e+00 3.55914056533899e-01 3.16474310290881e-03
1.10966326530612e+00 3.53413529640624e-01 3.15375230039619e-03
1.11756122448980e+00 3.50930570589208e-01 3.14272005836792e-03
1.12545918367347e+00 3.48465055932230e-01 3.13164820385420e-03
1.13335714285714e+00 3.46016863111566e-01 3.12053851164143e-03
1.14125510204082e+00 3.43585870430141e-01 3.10939272565868e-03
1.14915306122449e+00 3.41171957045879e-01 3.09821255292806e-03
1.15705102040816e+00 3.38775002965698e-01 3.08699966437464e-03
1.16494897959184e+00 3.36394889039541e-01 3.07575569562049e-03
1.17284693877551e+00 3.34031496954444e-01 3.06448224774192e-03
1.18074489795918e+00 3.31684709228681e-01 3.05318088801639e-03
1.18864285714286e+00 3.29354409205910e-01 3.04185315066116e-03
1.19654081632653e+00 3.27040481049378e-01 3.03050053753659e-03
1.20443877551020e+00 3.24742809736154e-01 3.01912451883601e-03
1.21233673469388e+00 3.22461281051420e-01 3.00772652793234e-03
1.22023469387755e+00 3.20195781600935e-01 2.99630797960955e-03
1.22813265306122e+00 3.17946198750604e-01 2.98487025893780e-03
1.23603061224490e+00 3.15712420676037e-01 2.97341470998889e-03
1.24392857142857e+00 3.13494336338483e-01 2.96194265437482e-03
1.25182653061224e+00 3.11291835479307e-01 2.95045538582917e-03
1.25972448979592e+00 3.09104808614514e-01 2.93895417078691e-03
1.26762244897959e+00 3.06933147029292e-01 2.92744024894192e-03
1.27552040816327e+00 3.04776742772630e-01 2.91591483379502e-03
1.28341836734694e+00 3.02635488651941e-01 2.90437911319600e-03
1.29131632653061e+00 3.00509278227739e-01 2.89283424986538e-03
1.29921428571429e+00 2.98398005808341e-01 2.88128138190355e-03
1.30711224489796e+00 2.96301566444615e-01 2.86972161813405e-03
1.31501020408163e+00 2.94219855940231e-01 2.85815605414055e-03
1.32290816326531e+00 2.92152770799785e-01 2.84658576233562e-03
1.33080612244898e+00 2.90100208270651e-01 2.83501178188822e-03
1.33870408163265e+00 2.88062066322106e-01 2.82343513504138e-03
1.34660204081633e+00 2.86038243640260e-01 2.81185682223692e-03
1.35450000000000e+00 2.84028639623014e-01 2.80027782254937e-03
1.36239795918367e+00 2.82033154375063e-01 2.78869909410674e-03
1.37029591836735e+00 2.80051688702927e-01 2.77712157449984e-03
1.37819387755102e+00 2.78084144110032e-01 2.76554618118914e-03
1.38609183673469e+00 2.76130422791802e-01 2.75397381190103e-03
1.39398979591837e+00 2.74190427630805e-01 2.74240534501073e-03
1.40188775510204e+00 2.72264062191917e-01 2.73084163534589e-03
1.40978571428571e+00 2.70351230730786e-01 2.71928352835110e-03
1.41768367346939e+00 2.68451838149067e-01 2.70773185121671e-03
1.42558163265306e+00 2.66565790029951e-01 2.69618740388354e-03
1.43347959183673e+00 2.64692992619967e-01 2.68465097346141e-03
1.44137755102041e+00 2.62833352824325e-01 2.67312332984905e-03
1.44927551020408e+00 2.60986778202283e-01 2.66160522606471e-03
1.45717346938776e+00 2.59153176962554e-01 2.65009739856962e-03
1.46507142857143e+00 2.57332457958738e-01 2.63860056757963e-03
1.47296938775510e+00 2.55524530684806e-01 2.62711543737526e-03
1.48086734693878e+00 2.53729305270589e-01 2.61564269660834e-03
1.48876530612245e+00 2.51946692477316e-01 2.60418301859587e-03
1.49666326530612e+00 2.50176603693175e-01 2.59273705754269e-03
1.50456122448980e+00 2.48418950940311e-01 2.58130546109203e-03
1.51245918367347e+00 2.46673646836033e-01 2.56988886239669e-03
1.52035714285714e+00 2.44940604623105e-01 2.55848787207852e-03
1.52825510204082e+00 2.43219738153818e-01 2.54710309100846e-03
1.53615306122449e+00 2.41510961885704e-01 2.53573510637321e-03
1.54405102040816e+00 2.39814190877289e-01 2.52438449193130e-03
1.55194897959184e+00 2.38129340783863e-01 2.51305180826560e-03
1.55984693877551e+00 2.36456327853289e-01 2.50173760302389e-03
1.56774489795918e+00 2.34795068921848e-01 2.49044241115944e-03
1.57564285714286e+00 2.33145481410100e-01 2.47916675517103e-03
1.58354081632653e+00 2.31507483318777e-01 2.46791114533130e-03
1.59143877551020e+00 2.29880993224711e-01 2.45667607991311e-03
1.59933673469388e+00 2.28265930276783e-01 2.44546204181943e-03
1.60723469387755e+00 2.26662214201646e-01 2.43426950963274e-03
1.61513265306122e+00 2.25069765270334e-01 2.42309895058183e-03
1.62303061224490e+00 2.23488504323877e-01 2.41195081340926e-03
1.63092857142857e+00 2.21918352759452e-01 2.40082553962593e-03
1.63882653061225e+00 2.20359232526469e-01 2.38972356000882e-03
1.64672448979592e+00 2.18811066122694e-01 2.37864529479864e-03
1.65462244897959e+00 2.17273776590392e-01 2.36759115389054e-03
1.66252040816327e+00 2.15747287512510e-01 2.35656153702229e-03
1.67041836734694e+00 2.14231523008873e-01 2.34555683396292e-03
1.67831632653061e+00 2.12726407732414e-01 2.33457742469418e-03
1.68621428571429e+00 2.11231866865429e-01 2.32362367958813e-03
1.69411224489796e+00 2.09747826115854e-01 2.31269595637639e-03
1.70201020408163e+00 2.08274211722027e-01 2.30179460999145e-03
1.70990816326531e+00 2.06810950423514e-01 2.29091998626690e-03
1.71780612244898e+00 2.05357969483127e-01 2.28007241554923e-03
1.72570408163265e+00 2.03915196674705e-01 2.26925222272385e-03
1.73360204081633e+00 2.02482560279521e-01 2.25845972406875e-03
1.74150000000000e+00 2.01059989082719e-01 2.24769522741140e-03
1.74939795918367e+00 1.99647412369772e-01 2.23695903228097e-03
1.75729591836735e+00 1.98244759922966e-01 2.22625143005717e-03
1.76519387755102e+00 1.96851962017914e-01 2.21557270411974e-03
1.77309183673469e+00 1.95468949420091e-01 2.20492312999403e-03
1.78098979591837e+00 1.94095653381385e-01 2.19430297549222e-03
1.78888775510204e+00 1.92732005636686e-01 2.18371249798654e-03
1.79678571428571e+00 1.91377938407844e-01 2.17315195319163e-03
1.80468367346939e+00 1.90033384378106e-01 2.16262158951633e-03
1.81258163265306e+00 1.88698276711098e-01 2.15212164233616e-03
1.82047959183673e+00 1.87372549040013e-01 2.14165234294190e-03
1.82837755102041e+00 1.86056135464316e-01 2.13121391571154e-03
1.83627551020408e+00 1.84748970546464e-01 2.12080657823557e-03
1.84417346938776e+00 1.83450989308654e-01 2.11043054144030e-03
1.85207142857143e+00 1.82162127229593e-01 2.10008600970607e-03
1.85996938775510e+00 1.80882320241294e-01 2.08977318098669e-03
1.86786734693878e+00 1.79611504725888e-01 2.07949224692739e-03
1.87576530612245e+00 1.78349617512465e-01 2.06924339297762e-03
1.88366326530612e+00 1.77096595873928e-01 2.05902679593688e-03
1.89156122448980e+00 1.75852377530298e-01 2.04884263180555e-03
1.89945918367347e+00 1.74616900626250e-01 2.03869107071583e-03
1.90735714285714e+00 1.73390103747517e-01 2.02857227179141e-03
1.91525510204082e+00 1.72171925911309e-01 2.01848639114774e-03
1.92315306122449e+00 1.70962306563278e-01 2.00843357934879e-03
1.93105102040816e+00 1.69761185574511e-01 1.99841398150770e-03
1.93894897959184e+00 1.68568503238537e-01 1.98842773738697e-03
1.94684693877551e+00 1.67384200268359e-01 1.97847498149343e-03
1.95474489795918e+00 1.66208217793515e-01 1.96855584317411e-03
1.96264285714286e+00 1.65040497357143e-01 1.95867044671232e-03
1.97054081632653e+00 1.63880980913079e-01 1.94881891141868e-03
1.97843877551020e+00 1.62729610822972e-01 1.93900135172209e-03
1.98633673469388e+00 1.61586329853415e-01 1.92921787497705e-03
1.99423469387755e+00 1.60451081178660e-01 1.91946858843185e-03
2.00213265306122e+00 1.59323808361027e-01 1.90975359471321e-03
2.01003061224490e+00 1.58204455364961e-01 1.90007298724707e-03
2.01792857142857e+00 1.57092966548595e-01 1.89042685735971e-03
2.02582653061225e+00 1.55989286660978e-01 1.88081529200791e-03
2.03372448979592e+00 1.54893360839336e-01 1.87123837385996e-03
2.04162244897959e+00 1.53805134606339e-01 1.86169618137336e-03
2.04952040816327e+00 1.52724553867394e-01 1.85218878887196e-03
2.05741836734694e+00 1.51651564907962e-01 1.84271626662368e-03
2.06531632653061e+00 1.50586114390880e-01 1.83327868091549e-03
2.07321428571429e+00 1.49528149353714e-01 1.82387609412672e-03
2.08111224489796e+00 1.48477617206127e-01 1.81450856275338e-03
2.08901020408163e+00 1.47434465732132e-01 1.80517614365563e-03
2.09690816326531e+00 1.46398643072802e-01 1.79587888999758e-03
2.10480612244898e+00 1.45370097738471e-01 1.78661684712963e-03
2.11270408163265e+00 1.44348778601226e-01 1.77739005895557e-03
2.12060204081633e+00 1.43334634892358e-01 1.76819856588858e-03
2.12850000000000e+00 1.42327616199840e-01 1.75904240491699e-03
2.13639795918367e+00 1.41327672465822e-01 1.74992160966793e-03
2.14429591836735e+00 1.40334753984144e-01 1.74083621047011e-03
2.15219387755102e+00 1.39348811397864e-01 1.73178623441670e-03
2.16009183673469e+00 1.38369795696802e-01 1.72277170542678e-03
2.16798979591837e+00 1.37397658215111e-01 1.71379264430552e-03
2.17588775510204e+00 1.36432350628848e-01 1.70484906696267e-03
2.18378571428571e+00 1.35473824957861e-01 1.69594099002004e-03
2.19168367346939e+00 1.34522033550483e-01 1.68706842715815e-03
2.19958163265306e+00 1.33576929094156e-01 1.67823138541033e-03
2.20747959183673e+00 1.32638464608723e-01 1.66942987087835e-03
2.21537755102041e+00 1.31706593444093e-01 1.66066388689017e-03
2.22327551020408e+00 1.30781269277921e-01 1.65193343405389e-03
2.23117346938776e+00 1.29862446113308e-01 1.64323851031014e-03
2.23907142857143e+00 1.28950078276510e-01 1.63457911098284e-03
2.24696938775510e+00 1.28044120414674e-01 1.62595522883060e-03
2.25486734693878e+00 1.27144527493579e-01 1.61736685409756e-03
2.26276530612245e+00 1.26251254795397e-01 1.60881397456213e-03
2.27066326530612e+00 1.25364257916473e-01 1.60029657393019e-03
2.27856122448980e+00 1.24483492768887e-01 1.59181463687377e-03
2.28645918367347e+00 1.23608915566887e-01 1.58336814574047e-03
2.29435714285714e+00 1.22740482836151e-01 1.57495707721591e-03
2.30225510204082e+00 1.21878151407793e-01 1.56658140745999e-03
2.31015306122449e+00 1.21021878416217e-01 1.55824111044557e-03
2.31805102040816e+00 1.20171621296985e-01 1.54993615800239e-03
2.32594897959184e+00 1.19327337784701e-01 1.54166651986072e-03
2.33384693877551e+00 1.18488985910911e-01 1.53343216369248e-03
2.34174489795918e+00 1.17656524002015e-01 1.52523305515289e-03
2.34964285714286e+00 1.16829910677200e-01 1.51706915792301e-03
2.35754081632653e+00 1.16009104846378e-01 1.50894043374935e-03
2.36543877551020e+00 1.15194065708146e-01 1.50084684248344e-03
2.37333673469388e+00 1.14384752747757e-01 1.49278834064330e-03
2.38123469387755e+00 1.13581125738400e-01 1.48476488590770e-03
2.38913265306122e+00 1.12783144729264e-01 1.47677643417453e-03
2.39703061224490e+00 1.11990770053544e-01 1.46882293657720e-03
2.40492857142857e+00 1.11203962323121e-01 1.46090434406595e-03
2.41282653061225e+00 1.10422682426602e-01 1.45302060592104e-03
2.42072448979592e+00 1.09646891527377e-01 1.44517166978863e-03
2.42862244897959e+00 1.08876551061688e-01 1.43735748171495e-03
2.43652040816327e+00 1.08111622736712e-01 1.42957798617987e-03
2.44441836734694e+00 1.07352068528658e-01 1.42183312613169e-03
2.45231632653061e+00 1.06597850680877e-01 1.41412284302022e-03
2.46021428571429e+00 1.05848931701987e-01 1.40644707682907e-03
2.46811224489796e+00 1.05105274364003e-01 1.39880576477644e-03
2.47601020408163e+00 1.04366841703402e-01 1.39119884536109e-03
2.48390816326531e+00 1.03633597010507e-01 1.38362625570916e-03
2.49180612244898e+00 1.02905503836489e-01 1.37608792888315e-03
