Energy (eV)          EEDF (eV^-(3/2))     First Anisotropy
1.90677966101695e-02 6.74552687995005e-02 3.29091713312162e-05
5.72033898305085e-02 6.70623463052760e-02 5.43668960657281e-05
9.53389830508475e-02 6.66717125587207e-02 7.18353987223249e-05
1.33474576271186e-01 6.62833542262995e-02 8.51459579392523e-05
1.71610169491525e-01 6.58972580567384e-02 9.62799605777523e-05
2.09745762711864e-01 6.55134108724617e-02 1.05985396372647e-04
2.47881355932203e-01 6.51317995730294e-02 1.14648788617539e-04
2.86016949152542e-01 6.47524111330626e-02 1.22503216306562e-04
3.24152542372881e-01 6.43752326061535e-02 1.29703044794090e-04
3.62288135593220e-01 6.40002511196032e-02 1.36357224337670e-04
4.00423728813559e-01 6.36274538756984e-02 1.42546293283789e-04
4.38559322033898e-01 6.32568281513304e-02 1.48331926782820e-04
4.76694915254237e-01 6.28883612967244e-02 1.53762690266061e-04
5.14830508474576e-01 6.25220407374566e-02 1.58877701205402e-04
5.52966101694915e-01 6.21578539714600e-02 1.63709063400433e-04
5.91101694915254e-01 6.17957885694976e-02 1.68283543827805e-04
6.29237288135593e-01 6.14358321741610e-02 1.72623762980168e-04
6.67372881355932e-01 6.10779725012461e-02 1.76749061769247e-04
7.05508474576271e-01 6.07221973374647e-02 1.80676146651822e-04
7.43644067796610e-01 6.03684945406660e-02 1.84419578562412e-04
7.81779661016949e-01 6.00168520394363e-02 1.87992150245972e-04
8.19915254237288e-01 5.96672578322499e-02 1.91405181279290e-04
8.58050847457627e-01 5.93196999883791e-02 1.94668752271354e-04
8.96186440677966e-01 5.89741666461296e-02 1.97791892804835e-04
9.34322033898305e-01 5.86306460129008e-02 2.00782733632143e-04
9.72457627118644e-01 5.82891263644324e-02 2.03648631318884e-04
1.01059322033898e+00 5.79495960454898e-02 2.06396271562426e-04
1.04872881355932e+00 5.76120434673475e-02 2.09031754517866e-04
1.08686440677966e+00 5.72764571117959e-02 2.11560667284870e-04
1.12500000000000e+00 5.69428255255832e-02 2.13988145560800e-04
1.16313559322034e+00 5.66111373193770e-02 2.16318923199514e-04
1.20127118644068e+00 5.62813811760613e-02 2.18557377757807e-04
1.23940677966102e+00 5.59535458413875e-02 2.20707569893466e-04
1.27754237288136e+00 5.56276201241515e-02 2.22773273516052e-04
1.31567796610170e+00 5.53035929035869e-02 2.24758005755915e-04
1.35381355932203e+00 5.49814531209887e-02 2.26665053158941e-04
1.39194915254237e+00 5.46611897797909e-02 2.28497490947295e-04
1.43008474576271e+00 5.43427919522135e-02 2.30258203540107e-04
1.46822033898305e+00 5.40262487716927e-02 2.31949902716914e-04
1.50635593220339e+00 5.37115494328839e-02 2.33575140214049e-04
1.54449152542373e+00 5.33986831976777e-02 2.35136322318183e-04
1.58262711864407e+00 5.30876393883093e-02 2.36635722924085e-04
1.62076271186441e+00 5.27784073873064e-02 2.38075491892165e-04
1.65889830508475e+00 5.24709766429633e-02 2.39457665774353e-04
1.69703389830508e+00 5.21653366630317e-02 2.40784177156494e-04
1.73516949152542e+00 5.18614770163852e-02 2.42056861618662e-04
1.77330508474576e+00 5.15593873309766e-02 2.43277464117747e-04
1.81144067796610e+00 5.12590572986190e-02 2.44447646038206e-04
1.84957627118644e+00 5.09604766694110e-02 2.45568991967896e-04
1.88771186440678e+00 5.06636352516037e-02 2.46643012941655e-04
1.92584745762712e+00 5.03685229159954e-02 2.47671152250595e-04
1.96398305084746e+00 5.00751295907607e-02 2.48654790778987e-04
2.00211864406780e+00 4.97834452613037e-02 2.49595249095932e-04
2.04025423728814e+00 4.94934599743109e-02 2.50493792105906e-04
2.07838983050847e+00 4.92051638329393e-02 2.51351633343692e-04
2.11652542372881e+00 4.89185469966566e-02 2.52169936252150e-04
2.15466101694915e+00 4.86335996849933e-02 2.52949817981055e-04
2.19279661016949e+00 4.83503121730480e-02 2.53692352911208e-04
2.23093220338983e+00 4.80686747913191e-02 2.54398573348903e-04
2.26906779661017e+00 4.77886779291867e-02 2.55069472686037e-04
2.30720338983051e+00 4.75103120307041e-02 2.55706008342812e-04
2.34533898305085e+00 4.72335675944212e-02 2.56309102039694e-04
2.38347457627119e+00 4.69584351766236e-02 2.56879642468843e-04
2.42161016949153e+00 4.66849053873856e-02 2.57418487791491e-04
2.45974576271186e+00 4.64129688903812e-02 2.57926465601179e-04
2.49788135593220e+00 4.61426164059089e-02 2.58404375214391e-04
2.53601694915254e+00 4.58738387071789e-02 2.58852989821431e-04
2.57415254237288e+00 4.56066266201153e-02 2.59273056222649e-04
2.61228813559322e+00 4.53409710261856e-02 2.59665296818608e-04
2.65042372881356e+00 4.50768628589013e-02 2.60030411486528e-04
2.68855932203390e+00 4.48142931036131e-02 2.60369077149272e-04
2.72669491525424e+00 4.45532528001625e-02 2.60681949525047e-04
2.76483050847458e+00 4.42937330395769e-02 2.60969664783512e-04
2.80296610169492e+00 4.40357249638597e-02 2.61232838991624e-04
2.84110169491525e+00 4.37792197684791e-02 2.61472069668330e-04
2.87923728813559e+00 4.35242086992420e-02 2.61687937039218e-04
2.91737288135593e+00 4.32706830529482e-02 2.61881004282356e-04
2.95550847457627e+00 4.30186341762491e-02 2.62051817810464e-04
2.99364406779661e+00 4.27680534679160e-02 2.62200908378065e-04
3.03177966101695e+00 4.25189323759517e-02 2.62328792359657e-04
3.06991525423729e+00 4.22712623973752e-02 2.62435971035205e-04
3.10805084745763e+00 4.20250350803579e-02 2.62522931808277e-04
3.14618644067797e+00 4.17802420214787e-02 2.62590149367586e-04
3.18432203389831e+00 4.15368748655092e-02 2.62638084930437e-04
3.22245762711864e+00 4.12949253074280e-02 2.62667187356590e-04
3.26059322033898e+00 4.10543850898087e-02 2.62677894211335e-04
3.29872881355932e+00 4.08152460026062e-02 2.62670630980185e-04
3.33686440677966e+00 4.05774998850582e-02 2.62645812094107e-04
3.37500000000000e+00 4.03411386231966e-02 2.62603841908505e-04
3.41313559322034e+00 4.01061541496351e-02 2.62545113899505e-04
3.45127118644068e+00 3.98725384453662e-02 2.62470011612870e-04
3.48940677966102e+00 3.96402835373881e-02 2.62378909570833e-04
3.52754237288136e+00 3.94093814984927e-02 2.62272172457974e-04
3.56567796610170e+00 3.91798244489663e-02 2.62150156003498e-04
3.60381355932203e+00 3.89516045543249e-02 2.62013207826004e-04
3.64194915254237e+00 3.87247140251011e-02 2.61861666614940e-04
3.68008474576271e+00 3.84991451184569e-02 2.61695862954429e-04
3.71822033898305e+00 3.82748901360192e-02 2.61516120113930e-04
3.75635593220339e+00 3.80519414236672e-02 2.61322753230018e-04
3.79449152542373e+00 3.78302913730620e-02 2.61116070078776e-04
3.83262711864407e+00 3.76099324195767e-02 2.60896371818723e-04
3.87076271186441e+00 3.73908570420842e-02 2.60663952176604e-04
3.90889830508475e+00 3.71730577644096e-02 2.60419098174195e-04
3.94703389830509e+00 3.69565271533483e-02 2.60162090667675e-04
3.98516949152542e+00 3.67412578189944e-02 2.59893204186119e-04
4.02330508474576e+00 3.65272424139606e-02 2.59612706810552e-04
4.06144067796610e+00 3.63144736347239e-02 2.59320860674729e-04
4.09957627118644e+00 3.61029442197649e-02 2.59017922612303e-04
4.13771186440678e+00 3.58926469493583e-02 2.58704143368815e-04
4.17584745762712e+00 3.56835746468526e-02 2.58379768237379e-04
4.21398305084746e+00 3.54757201768843e-02 2.58045037672496e-04
4.25211864406780e+00 3.52690764451713e-02 2.57700186513011e-04
4.29025423728814e+00 3.50636363997305e-02 2.57345444586570e-04
4.32838983050847e+00 3.48593930291626e-02 2.56981037293218e-04
4.36652542372881e+00 3.46563393624484e-02 2.56607184840547e-04
4.40466101694915e+00 3.44544684701081e-02 2.56224102819764e-04
4.44279661016949e+00 3.42537734625529e-02 2.55832002761793e-04
4.48093220338983e+00 3.40542474898843e-02 2.55431091385481e-04
4.51906779661017e+00 3.38558837429984e-02 2.55021571147724e-04
4.55720338983051e+00 3.36586754520007e-02 2.54603640774326e-04
4.59533898305085e+00 3.34626158860083e-02 2.54177494522053e-04
4.63347457627119e+00 3.32676983542022e-02 2.53743322704730e-04
4.67161016949153e+00 3.30739162043034e-02 2.53301312201184e-04
4.70974576271187e+00 3.28812628223758e-02 2.52851645731572e-04
4.74788135593220e+00 3.26897316338314e-02 2.52394502360998e-04
4.78601694915254e+00 3.24993161019629e-02 2.51930057986563e-04
4.82415254237288e+00 3.23100097277490e-02 2.51458484628245e-04
4.86228813559322e+00 3.21218060508136e-02 2.50979950911677e-04
4.90042372881356e+00 3.19346986480136e-02 2.50494622535843e-04
4.93855932203390e+00 3.17486811332451e-02 2.50002661578622e-04
4.97669491525424e+00 3.15637471583607e-02 2.49504226960297e-04
5.01483050847458e+00 3.13798904118082e-02 2.48999474893227e-04
5.05296610169492e+00 3.11971046184391e-02 2.48488558202129e-04
5.09110169491525e+00 3.10153835403853e-02 2.47971626769612e-04
5.12923728813559e+00 3.08347209757466e-02 2.47448827850943e-04
5.16737288135593e+00 3.06551107587486e-02 2.46920305882119e-04
5.20550847457627e+00 3.04765467591918e-02 2.46386202317473e-04
5.24364406779661e+00 3.02990228832718e-02 2.45846655927802e-04
5.28177966101695e+00 3.01225330723335e-02 2.45301803210139e-04
5.31991525423729e+00 2.99470713026858e-02 2.44751777746055e-04
5.35805084745763e+00 2.97726315863862e-02 2.44196710608432e-04
5.39618644067797e+00 2.95992079700379e-02 2.43636730756467e-04
5.43432203389831e+00 2.94267945346075e-02 2.43071964408360e-04
5.47245762711864e+00 2.92553853961756e-02 2.42502535433975e-04
5.51059322033898e+00 2.90849747047748e-02 2.41928565735894e-04
5.54872881355932e+00 2.89155566442109e-02 2.41350174636363e-04
5.58686440677966e+00 2.87471254327806e-02 2.40767479256635e-04
5.62500000000000e+00 2.85796753221496e-02 2.40180594884944e-04
5.66313559322034e+00 2.84132005971753e-02 2.39589634377445e-04
5.70127118644068e+00 2.82476955765954e-02 2.38994708524880e-04
5.73940677966102e+00 2.80831546119425e-02 2.38395926408294e-04
5.77754237288136e+00 2.79195720873702e-02 2.37793394813739e-04
5.81567796610170e+00 2.77569424203123e-02 2.37187218586867e-04
5.85381355932203e+00 2.75952600604335e-02 2.36577500977109e-04
5.89194915254237e+00 2.74345194894581e-02 2.35964343065922e-04
5.93008474576271e+00 2.72747152218013e-02 2.35347844109752e-04
5.96822033898305e+00 2.71158418035554e-02 2.34728101873421e-04
6.00635593220339e+00 2.69578938123198e-02 2.34105212071651e-04
6.04449152542373e+00 2.68008658578068e-02 2.33479268700972e-04
6.08262711864407e+00 2.66447525808607e-02 2.32850364362781e-04
6.12076271186441e+00 2.64895486532902e-02 2.32218589717896e-04
6.15889830508475e+00 2.63352487784494e-02 2.31584033808015e-04
6.19703389830508e+00 2.61818476902885e-02 2.30946784277676e-04
6.23516949152542e+00 2.60293401534321e-02 2.30306927206971e-04
6.27330508474576e+00 2.58777209627607e-02 2.29664546966372e-04
6.31144067796610e+00 2.57269849439580e-02 2.29019726428436e-04
6.34957627118644e+00 2.55771269526038e-02 2.28372547267190e-04
6.38771186440678e+00 2.54281418740125e-02 2.27723089444424e-04
6.42584745762712e+00 2.52800246237582e-02 2.27071431507660e-04
6.46398305084746e+00 2.51327701467956e-02 2.26417650880480e-04
6.50211864406780e+00 2.49863734173018e-02 2.25761823360869e-04
6.54025423728814e+00 2.48408294391795e-02 2.25104023410446e-04
6.57838983050847e+00 2.46961332452062e-02 2.24444324436126e-04
6.61652542372881e+00 2.45522798968771e-02 2.23782798300261e-04
6.65466101694915e+00 2.44092644848896e-02 2.23119515601472e-04
6.69279661016949e+00 2.42670821283175e-02 2.22454545948129e-04
6.73093220338983e+00 2.41257279744577e-02 2.21787957479874e-04
6.76906779661017e+00 2.39851971992942e-02 2.21119817140489e-04
6.80720338983051e+00 2.38454850066982e-02 2.20450190943420e-04
6.84533898305085e+00 2.37065866282770e-02 2.19779143504578e-04
6.88347457627119e+00 2.35684973238198e-02 2.19106738307412e-04
6.92161016949153e+00 2.34312123805221e-02 2.18433037960892e-04
6.95974576271187e+00 2.32947271128367e-02 2.17758103743332e-04
6.99788135593220e+00 2.31590368629021e-02 2.17081995859849e-04
7.03601694915254e+00 2.30241369997907e-02 2.16404773693255e-04
7.07415254237288e+00 2.28900229193611e-02 2.15726495358528e-04
7.11228813559322e+00 2.27566900446709e-02 2.15047217953017e-04
7.15042372881356e+00 2.26241338252464e-02 2.14366997800465e-04
7.18855932203390e+00 2.24923497369381e-02 2.13685890015910e-04
7.22669491525424e+00 2.23613332823167e-02 2.13003948748891e-04
7.26483050847458e+00 2.22310799899650e-02 2.12321227420865e-04
7.30296610169492e+00 2.21015854143352e-02 2.11637778300261e-04
7.34110169491525e+00 2.19728451361299e-02 2.10953652738985e-04
7.37923728813559e+00 2.18448547616150e-02 2.10268901333647e-04
7.41737288135593e+00 2.17176099226494e-02 2.09583573790089e-04
7.45550847457627e+00 2.15911062763681e-02 2.08897718804109e-04
7.49364406779661e+00 2.14653395055418e-02 2.08211384215813e-04
7.53177966101695e+00 2.13403053179183e-02 2.07524617231543e-04
7.56991525423729e+00 2.12159994460844e-02 2.06837464023314e-04
7.60805084745763e+00 2.10924176478127e-02 2.06149969950009e-04
7.64618644067797e+00 2.09695557054210e-02 2.05462179773304e-04
7.68432203389831e+00 2.08474094256371e-02 2.04774137266429e-04
7.72245762711864e+00 2.07259746399325e-02 2.04085885429564e-04
7.76059322033898e+00 2.06052472038997e-02 2.03397466700018e-04
7.79872881355932e+00 2.04852229971194e-02 2.02708922570034e-04
7.83686440677966e+00 2.03658979234814e-02 2.02020293796577e-04
7.87500000000000e+00 2.02472679105800e-02 2.01331620605983e-04
7.91313559322034e+00 2.01293289095829e-02 2.00642942320609e-04
7.95127118644068e+00 2.00120768955404e-02 1.99954297563169e-04
7.98940677966102e+00 1.98955078667975e-02 1.99265724456039e-04
8.02754237288136e+00 1.97796178448653e-02 1.98577260256573e-04
8.06567796610170e+00 1.96644028747183e-02 1.97888941556109e-04
8.10381355932203e+00 1.95498590242230e-02 1.97200804474141e-04
8.14194915254237e+00 1.94359823840117e-02 1.96512884302083e-04
8.18008474576271e+00 1.93227690677684e-02 1.95825215697095e-04
8.21822033898305e+00 1.92102152116735e-02 1.95137832871344e-04
8.25635593220339e+00 1.90983169742793e-02 1.94450769243962e-04
8.29449152542373e+00 1.89870705367857e-02 1.93764057629841e-04
8.33262711864407e+00 1.88764721025002e-02 1.93077730424169e-04
8.37076271186441e+00 1.87665178967151e-02 1.92391819262401e-04
8.40889830508475e+00 1.86572041669733e-02 1.91706355204169e-04
8.44703389830508e+00 1.85485271825431e-02 1.91021368857841e-04
8.48516949152542e+00 1.84404832344241e-02 1.90336890270123e-04
8.52330508474576e+00 1.83330686350954e-02 1.89652948828103e-04
8.56144067796610e+00 1.82262797187676e-02 1.88969573378641e-04
8.59957627118644e+00 1.81201128408775e-02 1.88286792401794e-04
8.63771186440678e+00 1.80145643779701e-02 1.87604633689793e-04
8.67584745762712e+00 1.79096307279407e-02 1.86923124519801e-04
8.71398305084746e+00 1.78053083095440e-02 1.86242291822963e-04
8.75211864406780e+00 1.77015935622775e-02 1.85562161870647e-04
8.79025423728814e+00 1.75984829466153e-02 1.84882760443000e-04
8.82838983050848e+00 1.74959729435296e-02 1.84204112993782e-04
8.86652542372881e+00 1.73940600543768e-02 1.83526244343744e-04
8.90466101694915e+00 1.72927408011224e-02 1.82849178845042e-04
8.94279661016949e+00 1.71920117258755e-02 1.82172940541929e-04
8.98093220338983e+00 1.70918693907766e-02 1.81497552871155e-04
9.01906779661017e+00 1.69923103782145e-02 1.80823038822389e-04
9.05720338983051e+00 1.68933312903728e-02 1.80149421094910e-04
9.09533898305085e+00 1.67949287491201e-02 1.79476721804792e-04
9.13347457627119e+00 1.66970993962186e-02 1.78804962641393e-04
9.17161016949153e+00 1.65998398928832e-02 1.78134165020280e-04
9.20974576271187e+00 1.65031469196725e-02 1.77464349797041e-04
9.24788135593220e+00 1.64070171766908e-02 1.76795537419890e-04
9.28601694915254e+00 1.63114473831585e-02 1.76127748078914e-04
9.32415254237288e+00 1.62164342773048e-02 1.75461001426380e-04
9.36228813559322e+00 1.61219746165627e-02 1.74795316725620e-04
9.40042372881356e+00 1.60280651771499e-02 1.74130712996678e-04
9.43855932203390e+00 1.59347027539645e-02 1.73467208742919e-04
9.47669491525424e+00 1.58418841607720e-02 1.72804822096276e-04
9.51483050847458e+00 1.57496062297977e-02 1.72143570959466e-04
9.55296610169492e+00 1.56578658116236e-02 1.71483472738727e-04
9.59110169491525e+00 1.55666597753692e-02 1.70824544485556e-04
9.62923728813559e+00 1.54759850082943e-02 1.70166802992269e-04
9.66737288135593e+00 1.53858384157903e-02 1.69510264704118e-04
9.70550847457627e+00 1.52962169211828e-02 1.68854945640922e-04
9.74364406779661e+00 1.52071174659034e-02 1.68200861488819e-04
9.78177966101695e+00 1.51185370091066e-02 1.67548027734279e-04
9.81991525423729e+00 1.50304725275709e-02 1.66896459411403e-04
9.85805084745763e+00 1.49429210158640e-02 1.66246171235549e-04
9.89618644067797e+00 1.48558794859697e-02 1.65597177734153e-04
9.93432203389831e+00 1.47693449671904e-02 1.64949492999666e-04
9.97245762711865e+00 1.46833145063069e-02 1.64303130820025e-04
1.00105932203390e+01 1.45977851672145e-02 1.63658104726460e-04
1.00487288135593e+01 1.45127540309952e-02 1.63014428032457e-04
1.00868644067797e+01 1.44282181954816e-02 1.62372113719809e-04
1.01250000000000e+01 1.43441747755809e-02 1.61731174362175e-04
1.01631355932203e+01 1.42606209030056e-02 1.61091622332636e-04
1.02012711864407e+01 1.41775537261756e-02 1.60453469725846e-04
1.02394067796610e+01 1.40949704101213e-02 1.59816728362413e-04
1.02775423728814e+01 1.40128681363867e-02 1.59181409793089e-04
1.03156779661017e+01 1.39312441029330e-02 1.58547525302716e-04
1.03538135593220e+01 1.38500955240430e-02 1.57915085914270e-04
1.03919491525424e+01 1.37694196302263e-02 1.57284102022088e-04
1.04300847457627e+01 1.36892136688895e-02 1.56654584512651e-04
1.04682203389831e+01 1.36094749019358e-02 1.56026544021646e-04
1.05063559322034e+01 1.35302006079898e-02 1.55399990183192e-04
1.05444915254237e+01 1.34513880815277e-02 1.54774932768641e-04
1.05826271186441e+01 1.33730346327853e-02 1.54151381310190e-04
1.06207627118644e+01 1.32951375876663e-02 1.53529345104434e-04
1.06588983050847e+01 1.32176942876504e-02 1.52908833215939e-04
1.06970338983051e+01 1.31407020897033e-02 1.52289854480823e-04
1.07351694915254e+01 1.30641583661859e-02 1.51672417510014e-04
1.07733050847458e+01 1.29880605047650e-02 1.51056530692551e-04
1.08114406779661e+01 1.29124059083243e-02 1.50442202199130e-04
1.08495762711864e+01 1.28371919948752e-02 1.49829439985339e-04
1.08877118644068e+01 1.27624161974694e-02 1.49218251794859e-04
1.09258474576271e+01 1.26880759641105e-02 1.48608645162668e-04
1.09639830508475e+01 1.26141687576675e-02 1.48000627087498e-04
1.10021186440678e+01 1.25406920564525e-02 1.47394205031191e-04
1.10402542372881e+01 1.24676433521314e-02 1.46789386255699e-04
1.10783898305085e+01 1.23950201516512e-02 1.46186177153057e-04
1.11165254237288e+01 1.23228199764811e-02 1.45584584260758e-04
1.11546610169492e+01 1.22510403625272e-02 1.44984613925701e-04
1.11927966101695e+01 1.21796788600490e-02 1.44386272307081e-04
1.12309322033898e+01 1.21087330335755e-02 1.43789565379220e-04
1.12690677966102e+01 1.20382004618223e-02 1.43194498934442e-04
1.13072033898305e+01 1.19680787376083e-02 1.42601078585601e-04
1.13453389830508e+01 1.18983654677745e-02 1.42009309768814e-04
1.13834745762712e+01 1.18290582731018e-02 1.41419197746349e-04
1.14216101694915e+01 1.17601547882299e-02 1.40830747609115e-04
1.14597457627119e+01 1.16916526615766e-02 1.40243964279262e-04
1.14978813559322e+01 1.16235495552574e-02 1.39658852512737e-04
1.15360169491525e+01 1.15558431450059e-02 1.39075416606490e-04
1.15741525423729e+01 1.14885311206730e-02 1.38493661290770e-04
1.16122881355932e+01 1.14216111844037e-02 1.37913591136671e-04
1.16504237288136e+01 1.13550810523116e-02 1.37335209957443e-04
1.16885593220339e+01 1.12889384538137e-02 1.36758521715100e-04
1.17266949152542e+01 1.12231811315532e-02 1.36183530220016e-04
1.17648305084746e+01 1.11578068413220e-02 1.35610239133267e-04
1.18029661016949e+01 1.10928133519846e-02 1.35038651968901e-04
1.18411016949153e+01 1.10281984454013e-02 1.34468772096219e-04
1.18792372881356e+01 1.09639599163533e-02 1.33900602741850e-04
1.19173728813559e+01 1.09000955724667e-02 1.33334146991962e-04
1.19555084745763e+01 1.08366032341384e-02 1.32769407794546e-04
1.19936440677966e+01 1.07734807344611e-02 1.32206387961469e-04
1.20317796610169e+01 1.07107259191497e-02 1.31645090170555e-04
