Energy (eV)          EEDF (eV^-(3/2))     First Anisotropy
5.97058823529412e-02 7.83651975991621e-02 7.07672420590419e-05
1.79117647058824e-01 7.67892440795235e-02 1.16072024549189e-04
2.98529411764706e-01 7.52449835844654e-02 1.51163110254475e-04
4.17941176470588e-01 7.37317787455801e-02 1.76597943208654e-04
5.37352941176471e-01 7.22490050224455e-02 1.96821166887691e-04
6.56764705882353e-01 7.07960504343090e-02 2.13548349740555e-04
7.76176470588235e-01 6.93723153095892e-02 2.27684755614748e-04
8.95588235294118e-01 6.79772120316572e-02 2.39787349516838e-04
1.01500000000000e+00 6.66101648034137e-02 2.50232226396839e-04
1.13441176470588e+00 6.52706094108386e-02 2.59289848483042e-04
1.25382352941176e+00 6.39579929734692e-02 2.67163782213047e-04
1.37323529411765e+00 6.26717737499730e-02 2.74012632525130e-04
1.49264705882353e+00 6.14114208725764e-02 2.79963367343215e-04
1.61205882352941e+00 6.01764141683565e-02 2.85119866966319e-04
1.73147058823529e+00 5.89662439081498e-02 2.89568655019601e-04
1.85088235294118e+00 5.77804106292012e-02 2.93382879444027e-04
1.97029411764706e+00 5.66184248988935e-02 2.96625162819133e-04
2.08970588235294e+00 5.54798071403664e-02 2.99349694666699e-04
2.20911764705882e+00 5.43640874142947e-02 3.01603803965644e-04
2.32852941176471e+00 5.32708052277442e-02 3.03429158817751e-04
2.44794117647059e+00 5.21995093580286e-02 3.04862702951015e-04
2.56735294117647e+00 5.11497576477665e-02 3.05937393923966e-04
2.68676470588235e+00 5.01211168399106e-02 3.06682793921291e-04
2.80617647058824e+00 4.91131623824984e-02 3.07125548483532e-04
2.92558823529412e+00 4.81254782688703e-02 3.07289778172478e-04
3.04500000000000e+00 4.71576568514379e-02 3.07197402607981e-04
3.16441176470588e+00 4.62092986871393e-02 3.06868410531893e-04
3.28382352941176e+00 4.52800123596429e-02 3.06321087151806e-04
3.40323529411765e+00 4.43694143300268e-02 3.05572206571256e-04
3.52264705882353e+00 4.34771287669096e-02 3.04637196183973e-04
3.64205882352941e+00 4.26027874023001e-02 3.03530277653648e-04
3.76147058823529e+00 4.17460293692014e-02 3.02264588889490e-04
3.88088235294118e+00 4.09065010625485e-02 3.00852289823978e-04
4.00029411764706e+00 4.00838559838784e-02 2.99304654946059e-04
4.11970588235294e+00 3.92777546072507e-02 2.97632154150948e-04
4.23911764705882e+00 3.84878642324804e-02 2.95844524993450e-04
4.35852941176471e+00 3.77138588484172e-02 2.93950834854412e-04
4.47794117647059e+00 3.69554190036950e-02 2.91959537858429e-04
4.59735294117647e+00 3.62122316678139e-02 2.89878524886823e-04
4.71676470588235e+00 3.54839901087051e-02 2.87715168384623e-04
4.83617647058824e+00 3.47703937596664e-02 2.85476362720086e-04
4.95558823529412e+00 3.40711481015010e-02 2.83168560418207e-04
5.07500000000000e+00 3.33859645350326e-02 2.80797805010885e-04
5.19441176470588e+00 3.27145602676734e-02 2.78369760683451e-04
5.31382352941177e+00 3.20566581912627e-02 2.75889739311690e-04
5.43323529411765e+00 3.14119867729184e-02 2.73362724974696e-04
5.55264705882353e+00 3.07802799379585e-02 2.70793396430144e-04
5.67205882352941e+00 3.01612769648936e-02 2.68186147574044e-04
5.79147058823529e+00 2.95547223732017e-02 2.65545106291776e-04
5.91088235294118e+00 2.89603658223213e-02 2.62874151680027e-04
6.03029411764706e+00 2.83779620040655e-02 2.60176929985916e-04
6.14970588235294e+00 2.78072705454752e-02 2.57456869115350e-04
6.26911764705882e+00 2.72480559065573e-02 2.54717192607390e-04
6.38852941176471e+00 2.67000872832897e-02 2.51960931517735e-04
6.50794117647059e+00 2.61631385149268e-02 2.49190936422185e-04
6.62735294117647e+00 2.56369879872420e-02 2.46409888104051e-04
6.74676470588235e+00 2.51214185443519e-02 2.43620307516637e-04
6.86617647058824e+00 2.46162173959188e-02 2.40824565122839e-04
6.98558823529412e+00 2.41211760323833e-02 2.38024889528331e-04
7.10500000000000e+00 2.36360901359595e-02 2.35223375600580e-04
7.22441176470588e+00 2.31607594991499e-02 2.32421991986888e-04
7.34382352941176e+00 2.26949879393718e-02 2.29622588205521e-04
7.46323529411765e+00 2.22385832206345e-02 2.26826901221857e-04
7.58264705882353e+00 2.17913569716429e-02 2.24036561668314e-04
7.70205882352941e+00 2.13531246105183e-02 2.21253099620018e-04
7.82147058823529e+00 2.09237052662350e-02 2.18477950071789e-04
7.94088235294118e+00 2.05029217062696e-02 2.15712458029591e-04
8.06029411764706e+00 2.00906002612308e-02 2.12957883350484e-04
8.17970588235294e+00 1.96865707553278e-02 2.10215405185080e-04
8.29911764705882e+00 1.92906664345336e-02 2.07486126513548e-04
8.41852941176471e+00 1.89027238978603e-02 2.04771077777177e-04
8.53794117647059e+00 1.85225830312983e-02 2.02071220918737e-04
8.65735294117647e+00 1.81500869398976e-02 1.99387452914830e-04
8.77676470588235e+00 1.77850818847884e-02 1.96720609133003e-04
8.89617647058824e+00 1.74274172180113e-02 1.94071466546112e-04
9.01558823529412e+00 1.70769453220028e-02 1.91440746730439e-04
9.13500000000000e+00 1.67335215470609e-02 1.88829118741875e-04
9.25441176470588e+00 1.63970041532011e-02 1.86237201799416e-04
9.37382352941177e+00 1.60672542501495e-02 1.83665567864237e-04
9.49323529411765e+00 1.57441357414782e-02 1.81114744046426e-04
9.61264705882353e+00 1.54275152670211e-02 1.78585214922177e-04
9.73205882352941e+00 1.51172621492020e-02 1.76077424696284e-04
9.85147058823529e+00 1.48132483377735e-02 1.73591779287714e-04
9.97088235294118e+00 1.45153483582526e-02 1.71128648114196e-04
1.00902941176471e+01 1.42234392600285e-02 1.68688366622403e-04
1.02097058823529e+01 1.39374005622421e-02 1.66271237347526e-04
1.03291176470588e+01 1.36571142089844e-02 1.63877531008406e-04
1.04485294117647e+01 1.33824645211252e-02 1.61507489983496e-04
1.05679411764706e+01 1.31133381405821e-02 1.59161328758407e-04
1.06873529411765e+01 1.28496239916173e-02 1.56839234212362e-04
1.08067647058824e+01 1.25912132346584e-02 1.54541369269624e-04
1.09261764705882e+01 1.23379992141093e-02 1.52267873088285e-04
1.10455882352941e+01 1.20898774216934e-02 1.50018861233489e-04
1.11650000000000e+01 1.18467454530109e-02 1.47794428971872e-04
1.12844117647059e+01 1.16085029586514e-02 1.45594651055071e-04
1.14038235294118e+01 1.13750516115216e-02 1.43419583033651e-04
1.15232352941176e+01 1.11462950578172e-02 1.41269262698880e-04
1.16426470588235e+01 1.09221388835173e-02 1.39143709770965e-04
1.17620588235294e+01 1.07024905751569e-02 1.37042928672378e-04
1.18814705882353e+01 1.04872594760019e-02 1.34966908505774e-04
1.20008823529412e+01 1.02763567543492e-02 1.32915623028785e-04
1.21202941176471e+01 1.00696953666321e-02 1.30889033169568e-04
1.22397058823529e+01 9.86719001633529e-03 1.28887086952666e-04
1.23591176470588e+01 9.66875712401389e-03 1.26909719422594e-04
1.24785294117647e+01 9.47431479259203e-03 1.24956854929417e-04
1.25979411764706e+01 9.28378276883811e-03 1.23028407013005e-04
1.27173529411765e+01 9.09708241502364e-03 1.21124278287375e-04
1.28367647058824e+01 8.91413667627590e-03 1.19244362520366e-04
1.29561764705882e+01 8.73487004445312e-03 1.17388544484513e-04
1.30755882352941e+01 8.55920853135931e-03 1.15556699811778e-04
1.31950000000000e+01 8.38707963802946e-03 1.13748696888095e-04
1.33144117647059e+01 8.21841232084938e-03 1.11964396479052e-04
1.34338235294118e+01 8.05313696746589e-03 1.10203652364559e-04
1.35532352941176e+01 7.89118536299163e-03 1.08466312064751e-04
1.36726470588235e+01 7.73249066561026e-03 1.06752216435292e-04
1.37920588235294e+01 7.57698737883778e-03 1.05061201285123e-04
1.39114705882353e+01 7.42461132108804e-03 1.03393097178361e-04
1.40308823529412e+01 7.27529960263062e-03 1.01747729242724e-04
1.41502941176471e+01 7.12899059949899e-03 1.00124918647644e-04
1.42697058823529e+01 6.98562392493222e-03 9.85244823958095e-05
1.43891176470588e+01 6.84514040761512e-03 9.69462331205824e-05
1.45085294117647e+01 6.70748206713496e-03 9.53899804378824e-05
1.46279411764706e+01 6.57259208717987e-03 9.38555307304471e-05
1.47473529411765e+01 6.44041479499650e-03 9.23426869384043e-05
1.48667647058824e+01 6.31089563829894e-03 9.08512497967405e-05
1.49861764705882e+01 6.18398116011579e-03 8.93810176146535e-05
1.51055882352941e+01 6.05961897939963e-03 8.79317860625797e-05
1.52250000000000e+01 5.93775776930225e-03 8.65033493056786e-05
1.53444117647059e+01 5.81834723356637e-03 8.50954996491237e-05
1.54638235294118e+01 5.70133808897404e-03 8.37080278531789e-05
1.55832352941176e+01 5.58668204189670e-03 8.23407235112142e-05
1.57026470588235e+01 5.47433177067329e-03 8.09933746870899e-05
1.58220588235294e+01 5.36424090598867e-03 7.96657688911069e-05
1.59414705882353e+01 5.25636400963794e-03 7.83576928606244e-05
1.60608823529412e+01 5.15065655789854e-03 7.70689323484034e-05
1.61802941176471e+01 5.04707492307232e-03 7.57992730181438e-05
1.62997058823529e+01 4.94557635354677e-03 7.45485002277789e-05
1.64191176470588e+01 4.84611895810711e-03 7.33163988197245e-05
1.65385294117647e+01 4.74866168857276e-03 7.21027539431533e-05
1.66579411764706e+01 4.65316432107445e-03 7.09073508407536e-05
1.67773529411765e+01 4.55958744125639e-03 6.97299746423313e-05
1.68967647058824e+01 4.46789242793996e-03 6.85704111202091e-05
1.70161764705882e+01 4.37804143554264e-03 6.74284464799734e-05
1.71355882352941e+01 4.28999738012093e-03 6.63038671585510e-05
1.72550000000000e+01 4.20372392400044e-03 6.51964605184209e-05
1.73744117647059e+01 4.11918545926581e-03 6.41060145554652e-05
1.74938235294118e+01 4.03634709506637e-03 6.30323180543908e-05
1.76132352941176e+01 3.95517464127224e-03 6.19751607871819e-05
1.77326470588235e+01 3.87563459580806e-03 6.09343332210940e-05
1.78520588235294e+01 3.79769413077013e-03 5.99096271194782e-05
1.79714705882353e+01 3.72132107756213e-03 5.89008353482393e-05
1.80908823529412e+01 3.64648391495108e-03 5.79077516890216e-05
1.82102941176471e+01 3.57315175600736e-03 5.69301713919965e-05
1.83297058823529e+01 3.50129433414216e-03 5.59678909885206e-05
1.84491176470588e+01 3.43088199184578e-03 5.50207081098797e-05
1.85685294117647e+01 3.36188566840135e-03 5.40884219960977e-05
1.86879411764706e+01 3.29427688676864e-03 5.31708333148219e-05
1.88073529411765e+01 3.22802774296718e-03 5.22677439860693e-05
1.89267647058824e+01 3.16311089451673e-03 5.13789576507162e-05
1.90461764705882e+01 3.09949954811616e-03 5.05042794955426e-05
1.91655882352941e+01 3.03716744963511e-03 4.96435160842736e-05
1.92850000000000e+01 2.97608887323817e-03 4.87964757890354e-05
1.94044117647059e+01 2.91623860981003e-03 4.79629685629521e-05
1.95238235294118e+01 2.85759195781846e-03 4.71428060135445e-05
1.96432352941176e+01 2.80012471188766e-03 4.63358015055192e-05
1.97626470588235e+01 2.74381315372423e-03 4.55417699361609e-05
1.98820588235294e+01 2.68863404229323e-03 4.47605281099954e-05
2.00014705882353e+01 2.63456460339032e-03 4.39918945817488e-05
2.01208823529412e+01 2.58158252108904e-03 4.32356895046279e-05
2.02402941176471e+01 2.52966592849891e-03 4.24917349756203e-05
2.03597058823529e+01 2.47879339796713e-03 4.17598548848807e-05
2.04791176470588e+01 2.42894393301795e-03 4.10398747699528e-05
2.05985294117647e+01 2.38009695965807e-03 4.03316221341010e-05
2.07179411764706e+01 2.33223231716957e-03 3.96349263019244e-05
2.08373529411765e+01 2.28533025051386e-03 3.89496182795792e-05
2.09567647058824e+01 2.23937140215123e-03 3.82755310483168e-05
2.10761764705882e+01 2.19433680338954e-03 3.76124994260846e-05
2.11955882352941e+01 2.15020786722614e-03 3.69603599337434e-05
2.13150000000000e+01 2.10696638065131e-03 3.63189510657708e-05
2.14344117647059e+01 2.06459449651865e-03 3.56881131181843e-05
2.15538235294118e+01 2.02307472699062e-03 3.50676882196148e-05
2.16732352941176e+01 1.98238993553162e-03 3.44575203824811e-05
2.17926470588235e+01 1.94252333042258e-03 3.38574553342634e-05
2.19120588235294e+01 1.90345845780856e-03 3.32673407530823e-05
2.20314705882353e+01 1.86517919437125e-03 3.26870261453717e-05
2.21508823529412e+01 1.82766974121820e-03 3.21163627275853e-05
2.22702941176471e+01 1.79091461734212e-03 3.15552036435486e-05
2.23897058823529e+01 1.75489865273426e-03 3.10034038477222e-05
2.25091176470588e+01 1.71960698262695e-03 3.04608199921477e-05
2.26285294117647e+01 1.68502504134021e-03 2.99273106270322e-05
2.27479411764706e+01 1.65113855580919e-03 2.94027360893584e-05
2.28673529411765e+01 1.61793354016016e-03 2.88869583949903e-05
2.29867647058824e+01 1.58539628992092e-03 2.83798414238069e-05
2.31061764705882e+01 1.55351337593766e-03 2.78812508134050e-05
2.32255882352941e+01 1.52227163926509e-03 2.73910538562581e-05
2.33450000000000e+01 1.49165818571927e-03 2.69091196705941e-05
2.34644117647059e+01 1.46166038016017e-03 2.64353190722575e-05
2.35838235294118e+01 1.43226584180117e-03 2.59695245843332e-05
2.37032352941176e+01 1.40346243858884e-03 2.55116104605492e-05
2.38226470588235e+01 1.37523828257563e-03 2.50614525602553e-05
2.39420588235294e+01 1.34758172499932e-03 2.46189284973351e-05
2.40614705882353e+01 1.32048135112771e-03 2.41839175470900e-05
2.41808823529412e+01 1.29392597589966e-03 2.37563005561171e-05
2.43002941176471e+01 1.26790463929583e-03 2.33359600797961e-05
2.44197058823529e+01 1.24240660149278e-03 2.29227802936995e-05
2.45391176470588e+01 1.21742133875693e-03 2.25166469077415e-05
2.46585294117647e+01 1.19293853908939e-03 2.21174472931351e-05
2.47779411764706e+01 1.16894809767065e-03 2.17250703981052e-05
2.48973529411765e+01 1.14544011299316e-03 2.13394066661942e-05
2.50167647058824e+01 1.12240488276369e-03 2.09603481535035e-05
2.51361764705882e+01 1.09983289962132e-03 2.05877884484847e-05
2.52555882352941e+01 1.07771484749481e-03 2.02216225942723e-05
2.53750000000000e+01 1.05604159774727e-03 1.98617471969514e-05
2.54944117647059e+01 1.03480420515094e-03 1.95080603310801e-05
2.56138235294118e+01 1.01399390453667e-03 1.91604615389620e-05
2.57332352941176e+01 9.93602106843851e-04 1.88188518393875e-05
2.58526470588235e+01 9.73620395823040e-04 1.84831336357839e-05
2.59720588235294e+01 9.54040524553257e-04 1.81532108106403e-05
2.60914705882353e+01 9.34854411811518e-04 1.78289886556432e-05
2.62108823529412e+01 9.16054138967282e-04 1.75103738040050e-05
2.63302941176471e+01 8.97631946705898e-04 1.71972743176743e-05
2.64497058823529e+01 8.79580231615521e-04 1.68895996209976e-05
2.65691176470588e+01 8.61891543262322e-04 1.65872604363967e-05
2.66885294117647e+01 8.44558581107852e-04 1.62901688649240e-05
2.68079411764706e+01 8.27574191300253e-04 1.59982383232670e-05
2.69273529411765e+01 8.10931363919871e-04 1.57113834826570e-05
2.70467647058824e+01 7.94623230078919e-04 1.54295203432813e-05
2.71661764705882e+01 7.78643058904780e-04 1.51525661744482e-05
2.72855882352941e+01 7.62984254946148e-04 1.48804394566062e-05
2.74050000000000e+01 7.47640355444193e-04 1.46130599500753e-05
2.75244117647059e+01 7.32605027496419e-04 1.43503486258433e-05
2.76438235294118e+01 7.17872065666673e-04 1.40922276603521e-05
2.77632352941176e+01 7.03435389206009e-04 1.38386204368081e-05
2.78826470588235e+01 6.89289039705356e-04 1.35894514780883e-05
2.80020588235294e+01 6.75427178630414e-04 1.33446465067028e-05
2.81214705882353e+01 6.61844084763081e-04 1.31041323928773e-05
2.82408823529412e+01 6.48534151991005e-04 1.28678371042314e-05
2.83602941176471e+01 6.35491886988362e-04 1.26356897611642e-05
2.84797058823529e+01 6.22711906810228e-04 1.24076205876253e-05
2.85991176470588e+01 6.10188936811087e-04 1.21835608633564e-05
2.87185294117647e+01 5.97917808462849e-04 1.19634429750528e-05
2.88379411764706e+01 5.85893457092975e-04 1.17472003696784e-05
2.89573529411765e+01 5.74110919924516e-04 1.15347675091677e-05
2.90767647058824e+01 5.62565334023159e-04 1.13260799176874e-05
2.91961764705882e+01 5.51251934170546e-04 1.11210741373525e-05
2.93155882352941e+01 5.40166051018761e-04 1.09196876852869e-05
2.94350000000000e+01 5.29303109158779e-04 1.07218590972766e-05
2.95544117647059e+01 5.18658625120860e-04 1.05275278773094e-05
2.96738235294118e+01 5.08228205671565e-04 1.03366344909053e-05
2.97932352941176e+01 4.98007545856840e-04 1.01491203629540e-05
2.99126470588235e+01 4.87992427332302e-04 9.96492782890270e-06
3.00320588235294e+01 4.78178716618351e-04 9.78400017283241e-06
3.01514705882353e+01 4.68562363295927e-04 9.60628158914094e-06
3.02708823529412e+01 4.59139398434357e-04 9.43171714538024e-06
3.03902941176471e+01 4.49905932949708e-04 9.26025281742285e-06
3.05097058823529e+01 4.40858155908257e-04 9.09183545316484e-06
3.06291176470588e+01 4.31992333046211e-04 8.92641273729467e-06
3.07485294117647e+01 4.23304805225203e-04 8.76393322377350e-06
3.08679411764706e+01 4.14791986837001e-04 8.60434630144686e-06
3.09873529411765e+01 4.06450364409807e-04 8.44760216066259e-06
3.11067647058824e+01 3.98276495155079e-04 8.29365182326860e-06
3.12261764705882e+01 3.90267005467462e-04 8.14244711002629e-06
3.13455882352941e+01 3.82418589612611e-04 7.99394060899549e-06
3.14650000000000e+01 3.74728008359936e-04 7.84808570323452e-06
3.15844117647059e+01 3.67192087572061e-04 7.70483653412967e-06
3.17038235294118e+01 3.59807716992417e-04 7.56414799476116e-06
3.18232352941176e+01 3.52571848866357e-04 7.42597572638710e-06
3.19426470588235e+01 3.45481496754201e-04 7.29027608303411e-06
3.20620588235294e+01 3.38533734296098e-04 7.15700615564820e-06
3.21814705882353e+01 3.31725693939110e-04 7.02612374395605e-06
3.23008823529412e+01 3.25054565819706e-04 6.89758732915894e-06
3.24202941176471e+01 3.18517596601702e-04 6.77135609622958e-06
3.25397058823529e+01 3.12112088279247e-04 6.64738990727745e-06
3.26591176470588e+01 3.05835397124722e-04 6.52564927568403e-06
3.27785294117647e+01 2.99684932595434e-04 6.40609538668825e-06
3.28979411764706e+01 2.93658156207960e-04 6.28869007217171e-06
3.30173529411765e+01 2.87752580547657e-04 6.17339578617015e-06
3.31367647058824e+01 2.81965768240010e-04 6.06017562387774e-06
3.32561764705882e+01 2.76295330892086e-04 5.94899329777132e-06
3.33755882352941e+01 2.70738928160064e-04 5.83981311443404e-06
3.34950000000000e+01 2.65294266781401e-04 5.73259999209683e-06
3.36144117647059e+01 2.59959099579396e-04 5.62731943405525e-06
3.37338235294118e+01 2.54731224600644e-04 5.52393752272998e-06
3.38532352941176e+01 2.49608484142916e-04 5.42242091588981e-06
3.39726470588235e+01 2.44588763911797e-04 5.32273682102293e-06
3.40920588235294e+01 2.39669992146382e-04 5.22485301061603e-06
3.42114705882353e+01 2.34850138720839e-04 5.12873780156991e-06
3.43308823529412e+01 2.30127214350470e-04 5.03436003521398e-06
3.44502941176471e+01 2.25499269769119e-04 4.94168909140517e-06
3.45697058823529e+01 2.20964394884264e-04 4.85069486905453e-06
3.46891176470588e+01 2.16520718029598e-04 4.76134776720932e-06
3.48085294117647e+01 2.12166405191107e-04 4.67361869806219e-06
3.49279411764706e+01 2.07899659212476e-04 4.58747906852676e-06
3.50473529411765e+01 2.03718719091498e-04 4.50290076233704e-06
3.51667647058824e+01 1.99621859251907e-04 4.41985615204963e-06
3.52861764705882e+01 1.95607388796127e-04 4.33831808160849e-06
3.54055882352941e+01 1.91673650842923e-04 4.25825984941260e-06
3.55250000000000e+01 1.87819021842302e-04 4.17965521938677e-06
3.56444117647059e+01 1.84041910872763e-04 4.10247840174885e-06
3.57638235294118e+01 1.80340759028011e-04 4.02670404799022e-06
3.58832352941176e+01 1.76714038731289e-04 3.95230724735861e-06
3.60026470588235e+01 1.73160253136406e-04 3.87926350834022e-06
3.61220588235294e+01 1.69677935508833e-04 3.80754876828958e-06
3.62414705882353e+01 1.66265648591373e-04 3.73713937841693e-06
3.63608823529412e+01 1.62921984040322e-04 3.66801208920543e-06
3.64802941176471e+01 1.59645561843179e-04 3.60014405929017e-06
3.65997058823529e+01 1.56435029722066e-04 3.53351284126256e-06
3.67191176470588e+01 1.53289062602974e-04 3.46809636787355e-06
3.68385294117647e+01 1.50206362067907e-04 3.40387296021983e-06
3.69579411764706e+01 1.47185655793816e-04 3.34082131431893e-06
3.70773529411765e+01 1.44225697052987e-04 3.27892048806101e-06
3.71967647058824e+01 1.41325264197579e-04 3.21814990875456e-06
3.73161764705882e+01 1.38483160131960e-04 3.15848936042860e-06
3.74355882352941e+01 1.35698211842407e-04 3.09991897149561e-06
3.75550000000000e+01 1.32969269912133e-04 3.04241922170502e-06
3.76744117647059e+01 1.30295208025020e-04 2.98597092825054e-06
