Energy (eV)          EEDF (eV^-(3/2))     First Anisotropy
2.74117647058824e-02 2.52060566278100e-01 2.27073294726605e-04
8.22352941176471e-02 2.46989505128030e-01 3.72442803057687e-04
1.37058823529412e-01 2.42020465718754e-01 4.85036341309681e-04
1.91882352941176e-01 2.37151395565816e-01 5.66644312516250e-04
2.46705882352941e-01 2.32380283412119e-01 6.31528752504821e-04
3.01529411764706e-01 2.27705158522157e-01 6.85194673392636e-04
3.56352941176471e-01 2.23124089778225e-01 7.30546972860572e-04
4.11176470588235e-01 2.18635184906871e-01 7.69372912387019e-04
4.66000000000000e-01 2.14236589727696e-01 8.02879368105415e-04
5.20823529411765e-01 2.09926487342534e-01 8.31934250666317e-04
5.75647058823529e-01 2.05703097424877e-01 8.57190810624638e-04
6.30470588235294e-01 2.01564675448801e-01 8.79158018743136e-04
6.85294117647059e-01 1.97509512000543e-01 8.98243323329589e-04
7.40117647058824e-01 1.93535932048987e-01 9.14780086419498e-04
7.94941176470588e-01 1.89642294257554e-01 9.29045970823957e-04
8.49764705882353e-01 1.85826990321095e-01 9.41275717054079e-04
9.04588235294118e-01 1.82088444281390e-01 9.51670288782101e-04
9.59411764705882e-01 1.78425111894965e-01 9.60403588456006e-04
1.01423529411765e+00 1.74835479981313e-01 9.67627499695425e-04
1.06905882352941e+00 1.71318065796256e-01 9.73475742115591e-04
1.12388235294118e+00 1.67871416436835e-01 9.78066872883684e-04
1.17870588235294e+00 1.64494108226568e-01 9.81506657363978e-04
1.23352941176471e+00 1.61184746131062e-01 9.83889964498896e-04
1.28835294117647e+00 1.57941963181791e-01 9.85302302885323e-04
1.34317647058824e+00 1.54764419911455e-01 9.85821078098314e-04
1.39800000000000e+00 1.51650803800706e-01 9.85516630503853e-04
1.45282352941176e+00 1.48599828757039e-01 9.84453107359888e-04
1.50764705882353e+00 1.45610234518883e-01 9.82689188605688e-04
1.56247058823529e+00 1.42680786201380e-01 9.80278701261553e-04
1.61729411764706e+00 1.39810273763587e-01 9.77271152006156e-04
1.67211764705882e+00 1.36997511508665e-01 9.73712178121756e-04
1.72694117647059e+00 1.34241337594108e-01 9.69643938628049e-04
1.78176470588235e+00 1.31540613551841e-01 9.65105454051194e-04
1.83658823529412e+00 1.28894223817960e-01 9.60132903098893e-04
1.89141176470588e+00 1.26301075271939e-01 9.54759882960067e-04
1.94623529411765e+00 1.23760096785071e-01 9.49017638707888e-04
2.00105882352941e+00 1.21270238778102e-01 9.42935266341952e-04
2.05588235294118e+00 1.18830472787649e-01 9.36539893212284e-04
2.11070588235294e+00 1.16439791041385e-01 9.29856838926976e-04
2.16552941176471e+00 1.14097206041768e-01 9.22909759369179e-04
2.22035294117647e+00 1.11801750158144e-01 9.15720776019186e-04
2.27517647058824e+00 1.09552475227057e-01 9.08310592442654e-04
2.33000000000000e+00 1.07348452160601e-01 9.00698598621353e-04
2.38482352941177e+00 1.05188770571645e-01 8.92902969051055e-04
2.43964705882353e+00 1.03072538370255e-01 8.84940747468534e-04
2.49447058823529e+00 1.00998881423313e-01 8.76827923773950e-04
2.54929411764706e+00 9.89669431838782e-02 8.68579508922159e-04
2.60411764705882e+00 9.69758843373799e-02 8.60209599758798e-04
2.65894117647059e+00 9.50248824549296e-02 8.51731439363950e-04
2.71376470588235e+00 9.31131316536086e-02 8.43157472479078e-04
2.76858823529412e+00 9.12398422635890e-02 8.34499396515026e-04
2.82341176470588e+00 8.94042405019524e-02 8.25768208579837e-04
2.87823529411765e+00 8.76055681530596e-02 8.16974248907275e-04
2.93305882352941e+00 8.58430822553843e-02 8.08127241032830e-04
2.98788235294118e+00 8.41160547946126e-02 7.99236329019295e-04
3.04270588235294e+00 8.24237724029288e-02 7.90310111993905e-04
3.09752941176471e+00 8.07655360643509e-02 7.81356676241151e-04
3.15235294117647e+00 7.91406608259949e-02 7.72383625063634e-04
3.20717647058824e+00 7.75484755151473e-02 7.63398106601778e-04
3.26200000000000e+00 7.59883224620297e-02 7.54406839241188e-04
3.31682352941176e+00 7.44595572327025e-02 7.45416137499784e-04
3.37164705882353e+00 7.29615483489391e-02 7.36431933570553e-04
3.42647058823529e+00 7.14936770415840e-02 7.27459797373262e-04
3.48129411764706e+00 7.00553369901403e-02 7.18504958170909e-04
3.53611764705882e+00 6.86459340723222e-02 7.09572322607268e-04
3.59094117647059e+00 6.72648861186461e-02 7.00666492194276e-04
3.64576470588235e+00 6.59116226719597e-02 6.91791779741085e-04
3.70058823529412e+00 6.45855847518079e-02 6.82952224801825e-04
3.75541176470588e+00 6.32862246235402e-02 6.74151608212927e-04
3.81023529411765e+00 6.20130055720584e-02 6.65393465782155e-04
3.86505882352941e+00 6.07654016801295e-02 6.56681101190897e-04
3.91988235294118e+00 5.95428976111454e-02 6.48017598163600e-04
3.97470588235294e+00 5.83449883962571e-02 6.39405831950892e-04
4.02952941176471e+00 5.71711792257918e-02 6.30848480174204e-04
4.08435294117647e+00 5.60209852448668e-02 6.22348033073148e-04
4.13917647058824e+00 5.48939313531141e-02 6.13906803194237e-04
4.19400000000000e+00 5.37895520084357e-02 6.05526934217616e-04
4.24882352941176e+00 5.27073910372210e-02 5.97210410664365e-04
4.30364705882353e+00 5.16470014382428e-02 5.88959065416945e-04
4.35847058823529e+00 5.06079452058311e-02 5.80774586782310e-04
4.41329411764706e+00 4.95897931462984e-02 5.72658526962030e-04
4.46811764705882e+00 4.85921247006570e-02 5.64612308679111e-04
4.52294117647059e+00 4.76145277709025e-02 5.56637231815704e-04
4.57776470588235e+00 4.66565985497920e-02 5.48734479712750e-04
4.63258823529412e+00 4.57179413540472e-02 5.40905125151112e-04
4.68741176470588e+00 4.47981684609131e-02 5.33150136032628e-04
4.74223529411765e+00 4.38968999480026e-02 5.25470380776848e-04
4.79705882352941e+00 4.30137635363700e-02 5.17866633450732e-04
4.85188235294118e+00 4.21483944367344e-02 5.10339578646056e-04
4.90670588235294e+00 4.13004351987997e-02 5.02889816116840e-04
4.96152941176471e+00 4.04695355636059e-02 4.95517865190986e-04
5.01635294117647e+00 3.96553523188507e-02 4.88224168967908e-04
5.07117647058824e+00 3.88575491571218e-02 4.81009098313517e-04
5.12600000000000e+00 3.80757965369813e-02 4.73872955446131e-04
5.18082352941177e+00 3.73097715483037e-02 4.66815978218311e-04
5.23564705882353e+00 3.65591577744460e-02 4.59838343120569e-04
5.29047058823529e+00 3.58236451660719e-02 4.52940168104398e-04
5.34529411764706e+00 3.51029299115482e-02 4.46121516410613e-04
5.40011764705882e+00 3.43967143114529e-02 4.39382399314354e-04
5.45494117647059e+00 3.37047066556063e-02 4.32722778966509e-04
5.50976470588235e+00 3.30266211025777e-02 4.26142571101850e-04
5.56458823529412e+00 3.23621775616146e-02 4.19641647620526e-04
5.61941176470588e+00 3.17111015769491e-02 4.13219839049205e-04
5.67423529411765e+00 3.10731242144290e-02 4.06876936887088e-04
5.72905882352941e+00 3.04479819504343e-02 4.00612695843184e-04
5.78388235294118e+00 2.98354165630244e-02 3.94426835970014e-04
5.83870588235294e+00 2.92351750252768e-02 3.88319044697870e-04
5.89352941176471e+00 2.86470094007717e-02 3.82288978775045e-04
5.94835294117647e+00 2.80706767411787e-02 3.76336266118233e-04
6.00317647058824e+00 2.75059389859047e-02 3.70460507577353e-04
6.05800000000000e+00 2.69525628637603e-02 3.64661278477387e-04
6.11282352941176e+00 2.64103197974785e-02 3.58938130654094e-04
6.16764705882353e+00 2.58789858066336e-02 3.53290593695672e-04
6.22247058823529e+00 2.53583414178322e-02 3.47718176102362e-04
6.27729411764706e+00 2.48481715731394e-02 3.42220367134295e-04
6.33211764705882e+00 2.43482655412465e-02 3.36796637985592e-04
6.38694117647059e+00 2.38584168304267e-02 3.31446443050866e-04
6.44176470588235e+00 2.33784231032407e-02 3.26169221132870e-04
6.49658823529412e+00 2.29080860929595e-02 3.20964396593985e-04
6.55141176470588e+00 2.24472115216677e-02 3.15831380454047e-04
6.60623529411765e+00 2.19956090200151e-02 3.10769571436613e-04
6.66105882352941e+00 2.15530920485825e-02 3.05778356966416e-04
6.71588235294118e+00 2.11194778208300e-02 3.00857114120105e-04
6.77070588235294e+00 2.06945872275943e-02 2.96005210531922e-04
6.82552941176471e+00 2.02782447631063e-02 2.91222005256652e-04
6.88035294117647e+00 1.98702784524958e-02 2.86506849591616e-04
6.93517647058824e+00 1.94705197807559e-02 2.81859087859527e-04
6.99000000000000e+00 1.90788036231358e-02 2.77278058060687e-04
7.04482352941177e+00 1.86949681774707e-02 2.72763092866148e-04
7.09964705882353e+00 1.83188548957129e-02 2.68313520102353e-04
7.15447058823529e+00 1.79503084201024e-02 2.63928663195446e-04
7.20929411764706e+00 1.75891765184326e-02 2.59607842082343e-04
7.26411764705882e+00 1.72353100211686e-02 2.55350373690414e-04
7.31894117647059e+00 1.68885627598313e-02 2.51155572489904e-04
7.37376470588235e+00 1.65487915066209e-02 2.47022751018866e-04
7.42858823529412e+00 1.62158559152551e-02 2.42951220381823e-04
7.48341176470588e+00 1.58896184629972e-02 2.38940290723282e-04
7.53823529411765e+00 1.55699443938510e-02 2.34989271677030e-04
7.59305882352941e+00 1.52567016628985e-02 2.31097472792462e-04
7.64788235294118e+00 1.49497608817574e-02 2.27264203938966e-04
7.70270588235294e+00 1.46489952651356e-02 2.23488775689012e-04
7.75752941176471e+00 1.43542805784607e-02 2.19770499681078e-04
7.81235294117647e+00 1.40654950865645e-02 2.16108688963238e-04
7.86717647058824e+00 1.37825195033981e-02 2.12502658318221e-04
7.92200000000000e+00 1.35052369427597e-02 2.08951724508777e-04
7.97682352941176e+00 1.32335328703489e-02 2.05455206756643e-04
8.03164705882353e+00 1.29672950554356e-02 2.02012426889911e-04
8.08647058823529e+00 1.27064135255390e-02 1.98622709469808e-04
8.14129411764706e+00 1.24507805206513e-02 1.95285382233835e-04
8.19611764705882e+00 1.22002904487263e-02 1.91999776257800e-04
8.25094117647059e+00 1.19548398420629e-02 1.88765226171691e-04
8.30576470588235e+00 1.17143273145671e-02 1.85581070362523e-04
8.36058823529412e+00 1.14786535198733e-02 1.82446651164711e-04
8.41541176470588e+00 1.12477211103079e-02 1.79361315038545e-04
8.47023529411765e+00 1.10214346966790e-02 1.76324412737188e-04
8.52505882352941e+00 1.07997008088748e-02 1.73335299462802e-04
8.57988235294118e+00 1.05824278572549e-02 1.70393335012310e-04
8.63470588235294e+00 1.03695260948178e-02 1.67497883913073e-04
8.68952941176471e+00 1.01609075801303e-02 1.64648315549067e-04
8.74435294117647e+00 9.95648614100209e-03 1.61844004277950e-04
8.79917647058824e+00 9.75617733889144e-03 1.59084329539392e-04
8.85400000000000e+00 9.55989843402688e-03 1.56368675913583e-04
8.90882352941177e+00 9.36756835144305e-03 1.53696433339551e-04
8.96364705882353e+00 9.17910764684483e-03 1.51066997114741e-04
9.01847058823529e+00 8.99443847444898e-03 1.48479767883923e-04
9.07329411764706e+00 8.81348455460667e-03 1.45934151842934e-04
9.12811764705882e+00 8.63617114229528e-03 1.43429560757138e-04
9.18294117647059e+00 8.46242499624417e-03 1.40965412018712e-04
9.23776470588235e+00 8.29217434868157e-03 1.38541128697905e-04
9.29258823529412e+00 8.12534887569005e-03 1.36156139588536e-04
9.34741176470588e+00 7.96187966815856e-03 1.33809879248037e-04
9.40223529411765e+00 7.80169920331852e-03 1.31501788032183e-04
9.45705882352941e+00 7.64474131685312e-03 1.29231312124881e-04
9.51188235294118e+00 7.49094117556722e-03 1.26997903563255e-04
9.56670588235294e+00 7.34023525060735e-03 1.24801020258126e-04
9.62152941176471e+00 7.19256129122036e-03 1.22640126010216e-04
9.67635294117647e+00 7.04785829904008e-03 1.20514690522236e-04
9.73117647058824e+00 6.90606650289127e-03 1.18424189407073e-04
9.78600000000000e+00 6.76712733410049e-03 1.16368104164329e-04
9.84082352941176e+00 6.63098340243968e-03 1.14345922266289e-04
9.89564705882353e+00 6.49757847200613e-03 1.12357137098383e-04
9.95047058823529e+00 6.36685743841440e-03 1.10401247894164e-04
1.00052941176471e+01 6.23876630589233e-03 1.08477759867691e-04
1.00601176470588e+01 6.11325216473148e-03 1.06586183941390e-04
1.01149411764706e+01 5.99026317054064e-03 1.04726036991127e-04
1.01697647058824e+01 5.86974852132465e-03 1.02896842172770e-04
1.02245882352941e+01 5.75165843601331e-03 1.01098127854915e-04
1.02794117647059e+01 5.63594413735224e-03 9.93294282240369e-05
1.03342352941176e+01 5.52255782824080e-03 9.75902839858372e-05
1.03890588235294e+01 5.41145267213337e-03 9.58802408994815e-05
1.04438823529412e+01 5.30258277689257e-03 9.41988504647738e-05
1.04987058823529e+01 5.19590317257730e-03 9.25456703632424e-05
1.05535294117647e+01 5.09136979397196e-03 9.09202639140171e-05
1.06083529411765e+01 4.98893946143791e-03 8.93221996684543e-05
1.06631764705882e+01 4.88856986596326e-03 8.77510517900160e-05
1.07180000000000e+01 4.79021954875221e-03 8.62064006359887e-05
1.07728235294118e+01 4.69384788421844e-03 8.46878314947847e-05
1.08276470588235e+01 4.59941506587958e-03 8.31949351557443e-05
1.08824705882353e+01 4.50688208719292e-03 8.17273084465559e-05
1.09372941176471e+01 4.41621072555292e-03 8.02845530469769e-05
1.09921176470588e+01 4.32736352898496e-03 7.88662760154480e-05
1.10469411764706e+01 4.24030379815142e-03 7.74720901214724e-05
1.11017647058824e+01 4.15499557204769e-03 7.61016133939934e-05
1.11565882352941e+01 4.07140361241404e-03 7.47544687801475e-05
1.12114117647059e+01 3.98949339141991e-03 7.34302844304112e-05
1.12662352941176e+01 3.90923107512337e-03 7.21286941444038e-05
1.13210588235294e+01 3.83058350958775e-03 7.08493363486426e-05
1.13758823529412e+01 3.75351820926473e-03 6.95918545339767e-05
1.14307058823529e+01 3.67800334146236e-03 6.83558975273385e-05
1.14855294117647e+01 3.60400771391294e-03 6.71411190963881e-05
1.15403529411765e+01 3.53150076127264e-03 6.59471776481803e-05
1.15951764705882e+01 3.46045253437343e-03 6.47737364615559e-05
1.16500000000000e+01 3.39083368594360e-03 6.36204640574180e-05
1.17048235294118e+01 3.32261545856150e-03 6.24870333176134e-05
1.17596470588235e+01 3.25576967451942e-03 6.13731218481719e-05
1.18144705882353e+01 3.19026872241223e-03 6.02784123215526e-05
1.18692941176471e+01 3.12608554580248e-03 5.92025916487716e-05
1.19241176470588e+01 3.06319363366284e-03 5.81453513152758e-05
1.19789411764706e+01 3.00156700778011e-03 5.71063875856641e-05
1.20337647058824e+01 2.94118021258190e-03 5.60854011764525e-05
1.20885882352941e+01 2.88200830414237e-03 5.50820970038126e-05
1.21434117647059e+01 2.82402684134181e-03 5.40961843578099e-05
1.21982352941176e+01 2.76721187428324e-03 5.31273771865986e-05
1.22530588235294e+01 2.71153993445884e-03 5.21753933826144e-05
1.23078823529412e+01 2.65698802641463e-03 5.12399550618463e-05
1.23627058823529e+01 2.60353361687033e-03 5.03207887310939e-05
1.24175294117647e+01 2.55115462588015e-03 4.94176250018918e-05
1.24723529411765e+01 2.49982941730894e-03 4.85301983684053e-05
1.25271764705882e+01 2.44953679112447e-03 4.76582473492230e-05
1.25820000000000e+01 2.40025597339093e-03 4.68015147235805e-05
1.26368235294118e+01 2.35196660773708e-03 4.59597469157469e-05
1.26916470588235e+01 2.30464874809006e-03 4.51326942271114e-05
1.27464705882353e+01 2.25828284927496e-03 4.43201110545827e-05
1.28012941176471e+01 2.21284975898697e-03 4.35217553121087e-05
1.28561176470588e+01 2.16833071094220e-03 4.27373886453310e-05
1.29109411764706e+01 2.12470731604674e-03 4.19667765573625e-05
1.29657647058824e+01 2.08196155516632e-03 4.12096881724488e-05
1.30205882352941e+01 2.04007577136816e-03 4.04658960507384e-05
1.30754117647059e+01 1.99903266358880e-03 3.97351762942865e-05
1.31302352941176e+01 1.95881527851046e-03 3.90173087284879e-05
1.31850588235294e+01 1.91940700359659e-03 3.83120764030174e-05
1.32398823529412e+01 1.88079156112349e-03 3.76192657703994e-05
1.32947058823529e+01 1.84295300054808e-03 3.69386667885704e-05
1.33495294117647e+01 1.80587569222738e-03 3.62700727144618e-05
1.34043529411765e+01 1.76954432069665e-03 3.56132799412476e-05
1.34591764705882e+01 1.73394387915281e-03 3.49680880843647e-05
1.35140000000000e+01 1.69905966243294e-03 3.43343001323559e-05
1.35688235294118e+01 1.66487726097205e-03 3.37117220162268e-05
1.36236470588235e+01 1.63138255560397e-03 3.31001627578845e-05
1.36784705882353e+01 1.59856171096383e-03 3.24994346096021e-05
1.37332941176471e+01 1.56640116980287e-03 3.19093526492992e-05
1.37881176470588e+01 1.53488764808898e-03 3.13297349178398e-05
1.38429411764706e+01 1.50400812880768e-03 3.07604024959056e-05
1.38977647058824e+01 1.47374985682637e-03 3.02011793336874e-05
1.39525882352941e+01 1.44410033341745e-03 2.96518921155274e-05
1.40074117647059e+01 1.41504731173047e-03 2.91123703239194e-05
1.40622352941176e+01 1.38657879108807e-03 2.85824463553644e-05
1.41170588235294e+01 1.35868301205406e-03 2.80619551710297e-05
1.41718823529412e+01 1.33134845216665e-03 2.75507344109644e-05
1.42267058823529e+01 1.30456382057862e-03 2.70486244565953e-05
1.42815294117647e+01 1.27831805359697e-03 2.65554682820748e-05
1.43363529411765e+01 1.25260030993703e-03 2.60711113355254e-05
1.43911764705882e+01 1.22739996678010e-03 2.55954015907512e-05
1.44460000000000e+01 1.20270661484123e-03 2.51281896435367e-05
1.45008235294118e+01 1.17851005409039e-03 2.46693284100430e-05
1.45556470588235e+01 1.15480029003790e-03 2.42186732217340e-05
1.46104705882353e+01 1.13156752909927e-03 2.37760819143990e-05
1.46652941176471e+01 1.10880217456928e-03 2.33414145446686e-05
1.47201176470588e+01 1.08649482312221e-03 2.29145334778057e-05
1.47749411764706e+01 1.06463626045597e-03 2.24953034343089e-05
1.48297647058824e+01 1.04321745764574e-03 2.20835913673856e-05
1.48845882352941e+01 1.02222956727632e-03 2.16792663643840e-05
1.49394117647059e+01 1.00166392020880e-03 2.12821996849971e-05
1.49942352941176e+01 9.81512021571598e-04 2.08922648351756e-05
1.50490588235294e+01 9.61765547268030e-04 2.05093373223130e-05
1.51038823529412e+01 9.42416340930072e-04 2.01332947282489e-05
1.51587058823529e+01 9.23456410150753e-04 1.97640167469855e-05
1.52135294117647e+01 9.04877923317841e-04 1.94013850777905e-05
1.52683529411765e+01 8.86673206261989e-04 1.90452833388177e-05
1.53231764705882e+01 8.68834739442895e-04 1.86955970977818e-05
1.53780000000000e+01 8.51355154481542e-04 1.83522139333519e-05
1.54328235294118e+01 8.34227231130364e-04 1.80150232236919e-05
1.54876470588235e+01 8.17443894622428e-04 1.76839162070981e-05
1.55424705882353e+01 8.00998212412151e-04 1.73587860387349e-05
1.55972941176471e+01 7.84883391324535e-04 1.70395275918553e-05
1.56521176470588e+01 7.69092775058102e-04 1.67260375138638e-05
1.57069411764706e+01 7.53619841121585e-04 1.64182142542381e-05
1.57617647058824e+01 7.38458198245982e-04 1.61159579764812e-05
1.58165882352941e+01 7.23601583652530e-04 1.58191704865412e-05
1.58714117647059e+01 7.09043860746365e-04 1.55277552552413e-05
1.59262352941176e+01 6.94779016296623e-04 1.52416174653422e-05
1.59810588235294e+01 6.80801157963490e-04 1.49606638398001e-05
1.60358823529412e+01 6.67104512125649e-04 1.46848026883471e-05
1.60907058823529e+01 6.53683421229851e-04 1.44139439299452e-05
1.61455294117647e+01 6.40532341543965e-04 1.41479990159964e-05
1.62003529411765e+01 6.27645840789087e-04 1.38868808676701e-05
1.62551764705882e+01 6.15018596133189e-04 1.36305038937497e-05
1.63100000000000e+01 6.02645391751197e-04 1.33787840296804e-05
1.63648235294118e+01 5.90521116679636e-04 1.31316385891612e-05
1.64196470588235e+01 5.78640762926815e-04 1.28889863027958e-05
1.64744705882353e+01 5.66999423179333e-04 1.26507473541607e-05
1.65292941176471e+01 5.55592288783535e-04 1.24168432402800e-05
1.65841176470588e+01 5.44414647965559e-04 1.21871968073432e-05
1.66389411764706e+01 5.33461883675512e-04 1.19617322671579e-05
1.66937647058824e+01 5.22729471751283e-04 1.17403751339375e-05
1.67485882352941e+01 5.12212978988254e-04 1.15230521724298e-05
1.68034117647059e+01 5.01908061495656e-04 1.13096914107744e-05
1.68582352941176e+01 4.91810462711730e-04 1.11002221703781e-05
1.69130588235294e+01 4.81916011652722e-04 1.08945749453201e-05
1.69678823529412e+01 4.72220621364795e-04 1.06926814319900e-05
1.70227058823529e+01 4.62720287058277e-04 1.04944745421985e-05
1.70775294117647e+01 4.53411084513598e-04 1.02998883480648e-05
1.71323529411765e+01 4.44289168408137e-04 1.01088580366313e-05
1.71871764705882e+01 4.35350770886838e-04 9.92131991995788e-06
1.72420000000000e+01 4.26592199844392e-04 9.73721145986999e-06
1.72968235294118e+01 4.18009837406221e-04 9.55647116370722e-06
