Energy (eV)          EEDF (eV^-(3/2))     First Anisotropy
3.04464285714286e-02 3.62486621587245e-02 1.81781220552203e-05
9.13392857142857e-02 3.60258287760354e-02 3.00259242296025e-05
1.52232142857143e-01 3.58043652293372e-02 3.96606185259262e-05
2.13125000000000e-01 3.55842630976091e-02 4.69941873431343e-05
2.74017857142857e-01 3.53655140108503e-02 5.31220888374178e-05
3.34910714285714e-01 3.51481096525407e-02 5.84580601336832e-05
3.95803571428571e-01 3.49320417560694e-02 6.32159942018612e-05
4.56696428571429e-01 3.47173021056862e-02 6.75249271550704e-05
5.17589285714286e-01 3.45038825361527e-02 7.14703544384783e-05
5.78482142857143e-01 3.42917749324521e-02 7.51126437458548e-05
6.39375000000000e-01 3.40809712294564e-02 7.84964391102204e-05
7.00267857142857e-01 3.38714634113098e-02 8.16559426478121e-05
7.61160714285714e-01 3.36632435120858e-02 8.46180978698552e-05
8.22053571428571e-01 3.34563036144802e-02 8.74046158552906e-05
8.82946428571429e-01 3.32506358498618e-02 9.00333222841311e-05
9.43839285714286e-01 3.30462323979688e-02 9.25190857503167e-05
1.00473214285714e+00 3.28430854866184e-02 9.48744767958845e-05
1.06562500000000e+00 3.26411873915930e-02 9.71102479724183e-05
1.12651785714286e+00 3.24405304352299e-02 9.92356908521548e-05
1.18741071428571e+00 3.22411069878531e-02 1.01258906707453e-04
1.24830357142857e+00 3.20429094683494e-02 1.03187016315418e-04
1.30919642857143e+00 3.18459303388490e-02 1.05026323005225e-04
1.37008928571429e+00 3.16501621094923e-02 1.06782441746375e-04
1.43098214285714e+00 3.14555973378798e-02 1.08460404474102e-04
1.49187500000000e+00 3.12622286245356e-02 1.10064743940130e-04
1.55276785714286e+00 3.10700486168891e-02 1.11599562479913e-04
1.61366071428571e+00 3.08790500075676e-02 1.13068589570933e-04
1.67455357142857e+00 3.06892255352896e-02 1.14475229767957e-04
1.73544642857143e+00 3.05005679810505e-02 1.15822602311518e-04
1.79633928571429e+00 3.03130701714008e-02 1.17113574371505e-04
1.85723214285714e+00 3.01267249780225e-02 1.18350790769953e-04
1.91812500000000e+00 2.99415253143529e-02 1.19536698048677e-04
1.97901785714286e+00 2.97574641384291e-02 1.20673565266359e-04
2.03991071428571e+00 2.95745344515769e-02 1.21763502603774e-04
2.10080357142857e+00 2.93927292990325e-02 1.22808477512580e-04
2.16169642857143e+00 2.92120417669995e-02 1.23810328267356e-04
2.22258928571429e+00 2.90324649850745e-02 1.24770775657722e-04
2.28348214285714e+00 2.88539921258889e-02 1.25691434529109e-04
2.34437500000000e+00 2.86766164024455e-02 1.26573822786370e-04
2.40526785714286e+00 2.85003310702715e-02 1.27419369466221e-04
2.46616071428571e+00 2.83251294263544e-02 1.28229422458827e-04
2.52705357142857e+00 2.81510048095902e-02 1.29005255381618e-04
2.58794642857143e+00 2.79779505984091e-02 1.29748073252908e-04
2.64883928571429e+00 2.78059602126533e-02 1.30459017428007e-04
2.70973214285714e+00 2.76350271132576e-02 1.31139171142863e-04
2.77062500000000e+00 2.74651448000698e-02 1.31789563461207e-04
2.83151785714286e+00 2.72963068135415e-02 1.32411172932272e-04
2.89241071428571e+00 2.71285067338330e-02 1.33004931386574e-04
2.95330357142857e+00 2.69617381811434e-02 1.33571727370585e-04
3.01419642857143e+00 2.67959948137372e-02 1.34112408848357e-04
3.07508928571429e+00 2.66312703294403e-02 1.34627785532901e-04
3.13598214285714e+00 2.64675584653504e-02 1.35118631998870e-04
3.19687500000000e+00 2.63048529960051e-02 1.35585689589592e-04
3.25776785714286e+00 2.61431477347441e-02 1.36029668249755e-04
3.31866071428571e+00 2.59824365329388e-02 1.36451248639105e-04
3.37955357142857e+00 2.58227132802370e-02 1.36851084065462e-04
3.44044642857143e+00 2.56639719028867e-02 1.37229801884336e-04
3.50133928571429e+00 2.55062063649545e-02 1.37588004674661e-04
3.56223214285714e+00 2.53494106680580e-02 1.37926272208361e-04
3.62312500000000e+00 2.51935788497968e-02 1.38245162422896e-04
3.68401785714286e+00 2.50387049848712e-02 1.38545212400829e-04
3.74491071428571e+00 2.48847831844062e-02 1.38826939666585e-04
3.80580357142857e+00 2.47318075961342e-02 1.39090843380268e-04
3.86669642857143e+00 2.45797724029471e-02 1.39337405102256e-04
3.92758928571429e+00 2.44286718239050e-02 1.39567089402292e-04
3.98848214285714e+00 2.42785001139860e-02 1.39780345226461e-04
4.04937500000000e+00 2.41292515627232e-02 1.39977606400789e-04
4.11026785714286e+00 2.39809204951362e-02 1.40159292174468e-04
4.17116071428571e+00 2.38335012711306e-02 1.40325808079649e-04
4.23205357142857e+00 2.36869882856332e-02 1.40477546726013e-04
4.29294642857143e+00 2.35413759673249e-02 1.40614888230046e-04
4.35383928571429e+00 2.33966587794870e-02 1.40738200525276e-04
4.41473214285714e+00 2.32528312197656e-02 1.40847840380814e-04
4.47562500000000e+00 2.31098878189736e-02 1.40944153653381e-04
4.53651785714286e+00 2.29678231418750e-02 1.41027475591820e-04
4.59741071428571e+00 2.28266317866462e-02 1.41098131444359e-04
4.65830357142857e+00 2.26863083849743e-02 1.41156437020804e-04
4.71919642857143e+00 2.25468476009371e-02 1.41202698933760e-04
4.78008928571429e+00 2.24082441317198e-02 1.41237214742654e-04
4.84098214285714e+00 2.22704927073923e-02 1.41260273754695e-04
4.90187500000000e+00 2.21335880898465e-02 1.41272157135251e-04
4.96276785714286e+00 2.19975250734631e-02 1.41273138074951e-04
5.02366071428571e+00 2.18622984846234e-02 1.41263482241310e-04
5.08455357142857e+00 2.17279031817789e-02 1.41243448196997e-04
5.14544642857143e+00 2.15943340544536e-02 1.41213287530713e-04
5.20633928571429e+00 2.14615860238547e-02 1.41173244905201e-04
5.26723214285714e+00 2.13296540426631e-02 1.41123558713212e-04
5.32812500000000e+00 2.11985330940819e-02 1.41064461105463e-04
5.38901785714286e+00 2.10682181924081e-02 1.40996178075498e-04
5.44991071428571e+00 2.09387043825872e-02 1.40918929810018e-04
5.51080357142857e+00 2.08099867402601e-02 1.40832931013238e-04
5.57169642857143e+00 2.06820603708679e-02 1.40738390970761e-04
5.63258928571429e+00 2.05549204101764e-02 1.40635513540786e-04
5.69348214285714e+00 2.04285620240766e-02 1.40524497707994e-04
5.75437500000000e+00 2.03029804077297e-02 1.40405537562535e-04
5.81526785714286e+00 2.01781707860580e-02 1.40278822334284e-04
5.87616071428571e+00 2.00541284133381e-02 1.40144536674167e-04
5.93705357142857e+00 1.99308485732286e-02 1.40002860914334e-04
5.99794642857143e+00 1.98083265779625e-02 1.39853971090318e-04
6.05883928571429e+00 1.96865577687996e-02 1.39698038898357e-04
6.11973214285714e+00 1.95655375158375e-02 1.39535232173897e-04
6.18062500000000e+00 1.94452612172375e-02 1.39365714841371e-04
6.24151785714286e+00 1.93257242996495e-02 1.39189646916789e-04
6.30241071428571e+00 1.92069222178376e-02 1.39007184740001e-04
6.36330357142857e+00 1.90888504546933e-02 1.38818481189258e-04
6.42419642857143e+00 1.89715045205023e-02 1.38623685677030e-04
6.48508928571429e+00 1.88548799533373e-02 1.38422944087223e-04
6.54598214285714e+00 1.87389723188782e-02 1.38216399195841e-04
6.60687500000000e+00 1.86237772097077e-02 1.38004190603517e-04
6.66776785714286e+00 1.85092902456813e-02 1.37786454718071e-04
6.72866071428571e+00 1.83955070735810e-02 1.37563324950729e-04
6.78955357142857e+00 1.82824233671163e-02 1.37334931897082e-04
6.85044642857143e+00 1.81700348262566e-02 1.37101403316158e-04
6.91133928571429e+00 1.80583371775733e-02 1.36862864056118e-04
6.97223214285714e+00 1.79473261740675e-02 1.36619436428972e-04
7.03312500000000e+00 1.78369975945282e-02 1.36371240133386e-04
7.09401785714286e+00 1.77273472438543e-02 1.36118392224623e-04
7.15491071428571e+00 1.76183709527335e-02 1.35861007283331e-04
7.21580357142857e+00 1.75100645776342e-02 1.35599197571030e-04
7.27669642857143e+00 1.74024240001942e-02 1.35333072998656e-04
7.33758928571429e+00 1.72954451275199e-02 1.35062741046086e-04
7.39848214285714e+00 1.71891238920222e-02 1.34788307099372e-04
7.45937500000000e+00 1.70834562508282e-02 1.34509874368587e-04
7.52026785714286e+00 1.69784381860628e-02 1.34227543849947e-04
7.58116071428571e+00 1.68740657045501e-02 1.33941414473214e-04
7.64205357142857e+00 1.67703348377979e-02 1.33651583237292e-04
7.70294642857143e+00 1.66672416414365e-02 1.33358145172276e-04
7.76383928571429e+00 1.65647821954804e-02 1.33061193256298e-04
7.82473214285714e+00 1.64629526041722e-02 1.32760818721479e-04
7.88562500000000e+00 1.63617489954416e-02 1.32457110969855e-04
7.94651785714286e+00 1.62611675211525e-02 1.32150157530868e-04
8.00741071428572e+00 1.61612043568246e-02 1.31840044191645e-04
8.06830357142857e+00 1.60618557016114e-02 1.31526855116734e-04
8.12919642857143e+00 1.59631177777840e-02 1.31210672806363e-04
8.19008928571429e+00 1.58649868309604e-02 1.30891578012807e-04
8.25098214285714e+00 1.57674591299567e-02 1.30569650019747e-04
8.31187500000000e+00 1.56705309662885e-02 1.30244966558270e-04
8.37276785714286e+00 1.55741986543879e-02 1.29917603761839e-04
8.43366071428571e+00 1.54784585313435e-02 1.29587636282618e-04
8.49455357142857e+00 1.53833069568731e-02 1.29255137398253e-04
8.55544642857143e+00 1.52887403128477e-02 1.28920178968109e-04
8.61633928571429e+00 1.51947550034928e-02 1.28582831350689e-04
8.67723214285714e+00 1.51013474552463e-02 1.28243163660003e-04
8.73812500000000e+00 1.50085141162981e-02 1.27901243682866e-04
8.79901785714286e+00 1.49162514567804e-02 1.27557137832862e-04
8.85991071428571e+00 1.48245559685251e-02 1.27210911255009e-04
8.92080357142857e+00 1.47334241650322e-02 1.26862627921760e-04
8.98169642857143e+00 1.46428525810291e-02 1.26512350588547e-04
9.04258928571429e+00 1.45528377726483e-02 1.26160140713088e-04
9.10348214285714e+00 1.44633763172914e-02 1.25806058691663e-04
9.16437500000000e+00 1.43744648132029e-02 1.25450163778596e-04
9.22526785714286e+00 1.42860998796377e-02 1.25092514040063e-04
9.28616071428571e+00 1.41982781566335e-02 1.24733166448967e-04
9.34705357142857e+00 1.41109963049765e-02 1.24372176971879e-04
9.40794642857143e+00 1.40242510057922e-02 1.24009600524638e-04
9.46883928571429e+00 1.39380389607029e-02 1.23645490894196e-04
9.52973214285714e+00 1.38523568916968e-02 1.23279900957096e-04
9.59062500000000e+00 1.37672015407330e-02 1.22912882601621e-04
9.65151785714286e+00 1.36825696698893e-02 1.22544486682174e-04
9.71241071428572e+00 1.35984580611484e-02 1.22174763105731e-04
9.77330357142857e+00 1.35148635163606e-02 1.21803760911010e-04
9.83419642857143e+00 1.34317828568648e-02 1.21431528224750e-04
9.89508928571429e+00 1.33492129236261e-02 1.21058112186378e-04
9.95598214285714e+00 1.32671505771119e-02 1.20683559150667e-04
1.00168750000000e+01 1.31855926969241e-02 1.20307914524834e-04
1.00777678571429e+01 1.31045361821695e-02 1.19931223105789e-04
1.01386607142857e+01 1.30239779502184e-02 1.19553528486093e-04
1.01995535714286e+01 1.29439149387393e-02 1.19174873731308e-04
1.02604464285714e+01 1.28643441026545e-02 1.18795301323637e-04
1.03213392857143e+01 1.27852624163924e-02 1.18414852093016e-04
1.03822321428571e+01 1.27066668737409e-02 1.18033566967750e-04
1.04431250000000e+01 1.26285544854449e-02 1.17651485849287e-04
1.05040178571429e+01 1.25509222821284e-02 1.17268647883459e-04
1.05649107142857e+01 1.24737673111863e-02 1.16885091511502e-04
1.06258035714286e+01 1.23970866396274e-02 1.16500854446749e-04
1.06866964285714e+01 1.23208773510467e-02 1.16115973990532e-04
1.07475892857143e+01 1.22451365476904e-02 1.15730485942382e-04
1.08084821428571e+01 1.21698613503174e-02 1.15344426241560e-04
1.08693750000000e+01 1.20950488959856e-02 1.14957829909704e-04
1.09302678571429e+01 1.20206963407350e-02 1.14570731304449e-04
1.09911607142857e+01 1.19468008567238e-02 1.14183164165860e-04
1.10520535714286e+01 1.18733596348410e-02 1.13795161593730e-04
1.11129464285714e+01 1.18003698819146e-02 1.13406756342863e-04
1.11738392857143e+01 1.17278288226089e-02 1.13017979798714e-04
1.12347321428571e+01 1.16557336992932e-02 1.12628863517984e-04
1.12956250000000e+01 1.15840817699989e-02 1.12239438234454e-04
1.13565178571429e+01 1.15128703108868e-02 1.11849734096484e-04
1.14174107142857e+01 1.14420966136047e-02 1.11459780709361e-04
1.14783035714286e+01 1.13717579876912e-02 1.11069607113384e-04
1.15391964285714e+01 1.13018517579982e-02 1.10679242060209e-04
1.16000892857143e+01 1.12323752664366e-02 1.10288713049397e-04
1.16609821428571e+01 1.11633258718515e-02 1.09898047775520e-04
1.17218750000000e+01 1.10947009481340e-02 1.09507273192818e-04
1.17827678571429e+01 1.10264978864942e-02 1.09116415737867e-04
1.18436607142857e+01 1.09587140930185e-02 1.08725501368378e-04
1.19045535714286e+01 1.08913469908855e-02 1.08334555542062e-04
1.19654464285714e+01 1.08243940179824e-02 1.07943603475610e-04
1.20263392857143e+01 1.07578526285133e-02 1.07552669237984e-04
1.20872321428571e+01 1.06917202928811e-02 1.07161777110716e-04
1.21481250000000e+01 1.06259944959397e-02 1.06770950707445e-04
1.22090178571429e+01 1.05606727390901e-02 1.06380213182873e-04
1.22699107142857e+01 1.04957525380209e-02 1.05989587268429e-04
1.23308035714286e+01 1.04312314247519e-02 1.05599095251986e-04
1.23916964285714e+01 1.03671069454278e-02 1.05208759220760e-04
1.24525892857143e+01 1.03033766618025e-02 1.04818600207585e-04
1.25134821428571e+01 1.02400381511257e-02 1.04428639470485e-04
1.25743750000000e+01 1.01770890045241e-02 1.04038897663430e-04
1.26352678571429e+01 1.01145268289371e-02 1.03649395032634e-04
1.26961607142857e+01 1.00523492450225e-02 1.03260151449364e-04
1.27570535714286e+01 9.99055388904563e-03 1.02871186390563e-04
1.28179464285714e+01 9.92913841083338e-03 1.02482519166899e-04
1.28788392857143e+01 9.86810047514542e-03 1.02094168118461e-04
1.29397321428571e+01 9.80743776156678e-03 1.01706151819215e-04
1.30006250000000e+01 9.74714796300536e-03 1.01318488295561e-04
1.30615178571429e+01 9.68722878748202e-03 1.00931195210911e-04
1.31224107142857e+01 9.62767795618778e-03 1.00544289895981e-04
1.31833035714286e+01 9.56849320523095e-03 1.00157789330263e-04
1.32441964285714e+01 9.50967228373887e-03 9.97717103563422e-05
1.33050892857143e+01 9.45121295512552e-03 9.93860689217633e-05
1.33659821428571e+01 9.39311299698954e-03 9.90008812134512e-05
1.34268750000000e+01 9.33537019971861e-03 9.86161629210039e-05
1.34877678571429e+01 9.27798236814637e-03 9.82319294103314e-05
1.35486607142857e+01 9.22094731974828e-03 9.78481957516912e-05
1.36095535714286e+01 9.16426288625935e-03 9.74649767020223e-05
1.36704464285714e+01 9.10792691191066e-03 9.70822869064866e-05
1.37313392857143e+01 9.05193725460285e-03 9.67001401835457e-05
1.37922321428571e+01 8.99629178580893e-03 9.63185505940023e-05
1.38531250000000e+01 8.94098838927677e-03 9.59375317461298e-05
1.39140178571429e+01 8.88602496256428e-03 9.55570969591648e-05
1.39749107142857e+01 8.83139941536232e-03 9.51772592892846e-05
1.40358035714286e+01 8.77710967099412e-03 9.47980315128088e-05
1.40966964285714e+01 8.72315366477541e-03 9.44194263158185e-05
1.41575892857143e+01 8.66952934510182e-03 9.40414556197030e-05
1.42184821428571e+01 8.61623467335622e-03 9.36641315891279e-05
1.42793750000000e+01 8.56326762270131e-03 9.32874659763095e-05
1.43402678571429e+01 8.51062617950329e-03 9.29114702750787e-05
1.44011607142857e+01 8.45830834177145e-03 9.25361557449876e-05
1.44620535714286e+01 8.40631212054920e-03 9.21615333953161e-05
1.45229464285714e+01 8.35463553838781e-03 9.17876141636466e-05
1.45838392857143e+01 8.30327663035479e-03 9.14144082792802e-05
1.46447321428571e+01 8.25223344394577e-03 9.10419262140757e-05
1.47056250000000e+01 8.20150403795967e-03 9.06701780634495e-05
1.47665178571429e+01 8.15108648382032e-03 9.02991736915990e-05
1.48274107142857e+01 8.10097886412325e-03 8.99289227539281e-05
1.48883035714286e+01 8.05117927392730e-03 8.95594346818363e-05
1.49491964285714e+01 8.00168581933285e-03 8.91907188509677e-05
1.50100892857143e+01 7.95249661841780e-03 8.88227839801500e-05
1.50709821428571e+01 7.90360980115362e-03 8.84556390287499e-05
1.51318750000000e+01 7.85502350835666e-03 8.80892926121004e-05
1.51927678571429e+01 7.80673589291603e-03 8.77237531384792e-05
1.52536607142857e+01 7.75874511843909e-03 8.73590288299819e-05
1.53145535714286e+01 7.71104936045176e-03 8.69951277080777e-05
1.53754464285714e+01 7.66364680507295e-03 8.66320577522201e-05
1.54363392857143e+01 7.61653564988412e-03 8.62698263320967e-05
1.54972321428571e+01 7.56971410384923e-03 8.59084410548761e-05
1.55581250000000e+01 7.52318038633625e-03 8.55479092129407e-05
1.56190178571429e+01 7.47693272825886e-03 8.51882379131656e-05
1.56799107142857e+01 7.43096937081294e-03 8.48294340963559e-05
1.57408035714286e+01 7.38528856659295e-03 8.44715045235277e-05
1.58016964285714e+01 7.33988857835505e-03 8.41144559255422e-05
1.58625892857143e+01 7.29476767982555e-03 8.37582944666030e-05
1.59234821428571e+01 7.24992415562458e-03 8.34030265445165e-05
1.59843750000000e+01 7.20535630035246e-03 8.30486582687737e-05
1.60452678571429e+01 7.16106241965199e-03 8.26951955825765e-05
1.61061607142857e+01 7.11704082902900e-03 8.23426442810056e-05
1.61670535714286e+01 7.07328985489141e-03 8.19910099979960e-05
1.62279464285714e+01 7.02980783339425e-03 8.16402983475244e-05
1.62888392857143e+01 6.98659311119188e-03 8.12905144164932e-05
1.63497321428571e+01 6.94364404536517e-03 8.09416635208918e-05
1.64106250000000e+01 6.90095900256779e-03 8.05937507123733e-05
1.64715178571429e+01 6.85853636001538e-03 8.02467808935379e-05
1.65324107142857e+01 6.81637450438374e-03 7.99007588348900e-05
1.65933035714286e+01 6.77447183277657e-03 7.95556891624669e-05
1.66541964285714e+01 6.73282675164632e-03 7.92115764911409e-05
1.67150892857143e+01 6.69143767749449e-03 7.88684249451100e-05
1.67759821428571e+01 6.65030303680217e-03 7.85262388726603e-05
1.68368750000000e+01 6.60942126523176e-03 7.81850223795355e-05
1.68977678571429e+01 6.56879080854870e-03 7.78447794378498e-05
1.69586607142857e+01 6.52841012159148e-03 7.75055139019649e-05
1.70195535714286e+01 6.48827766917362e-03 7.71672294967516e-05
1.70804464285714e+01 6.44839192507458e-03 7.68299299434883e-05
1.71413392857143e+01 6.40875137269223e-03 7.64936185063069e-05
1.72022321428571e+01 6.36935450497660e-03 7.61582986680431e-05
1.72631250000000e+01 6.33019982368290e-03 7.58239736888271e-05
1.73240178571429e+01 6.29128584023101e-03 7.54906467090244e-05
1.73849107142857e+01 6.25261107474193e-03 7.51583207640997e-05
1.74458035714286e+01 6.21417405687905e-03 7.48269987734737e-05
1.75066964285714e+01 6.17597332490404e-03 7.44966836594810e-05
1.75675892857143e+01 6.13800742628503e-03 7.41673779182376e-05
1.76284821428571e+01 6.10027491763349e-03 7.38390842589284e-05
1.76893750000000e+01 6.06277436400475e-03 7.35118051861042e-05
1.77502678571429e+01 6.02550433969997e-03 7.31855430970091e-05
1.78111607142857e+01 5.98846342736429e-03 7.28603002955336e-05
1.78720535714286e+01 5.95165021877180e-03 7.25360789816134e-05
1.79329464285714e+01 5.91506331394177e-03 7.22128813636780e-05
1.79938392857143e+01 5.87870132170591e-03 7.18907092525477e-05
1.80547321428571e+01 5.84256285964811e-03 7.15695646662446e-05
1.81156250000000e+01 5.80664655344922e-03 7.12494494346411e-05
1.81765178571429e+01 5.77095103763566e-03 7.09303652915627e-05
1.82374107142857e+01 5.73547495473483e-03 7.06123138878246e-05
1.82983035714286e+01 5.70021695600806e-03 7.02952967811969e-05
1.83591964285714e+01 5.66517570062275e-03 6.99793155427232e-05
1.84200892857143e+01 5.63034985618184e-03 6.96643713722544e-05
1.84809821428571e+01 5.59573809866625e-03 6.93504656709028e-05
1.85418750000000e+01 5.56133911182073e-03 6.90375996667055e-05
1.86027678571429e+01 5.52715158785309e-03 6.87257745017659e-05
1.86636607142857e+01 5.49317422664280e-03 6.84149912445058e-05
1.87245535714286e+01 5.45940573642573e-03 6.81052508801324e-05
1.87854464285714e+01 5.42584483301827e-03 6.77965544111989e-05
1.88463392857143e+01 5.39249024031174e-03 6.74889024935457e-05
1.89072321428571e+01 5.35934069021741e-03 6.71822959782470e-05
1.89681250000000e+01 5.32639492209060e-03 6.68767355571090e-05
1.90290178571429e+01 5.29365168338406e-03 6.65722218451285e-05
1.90899107142857e+01 5.26110972890610e-03 6.62687553920159e-05
1.91508035714286e+01 5.22876782146053e-03 6.59663366731426e-05
1.92116964285714e+01 5.19662473111918e-03 6.56649661846832e-05
