Energy (eV)          EEDF (eV^-(3/2))     First Anisotropy
1.26250000000000e-02 2.25658830495948e-01 1.33522900526505e-04
3.78750000000000e-02 2.23713011671400e-01 2.20274178944784e-04
6.31250000000000e-02 2.21783971321348e-01 2.90230869586036e-04
8.83750000000000e-02 2.19871564767662e-01 3.43040326361792e-04
1.13625000000000e-01 2.17975648579841e-01 3.86805900016770e-04
1.38875000000000e-01 2.16096080564176e-01 4.24599285749690e-04
1.64125000000000e-01 2.14232719753075e-01 4.58013991991654e-04
1.89375000000000e-01 2.12385426394489e-01 4.88014595314287e-04
2.14625000000000e-01 2.10554061941428e-01 5.15242330377748e-04
2.39875000000000e-01 2.08738489041568e-01 5.40151468959932e-04
2.65125000000000e-01 2.06938571526955e-01 5.63079067329010e-04
2.90375000000000e-01 2.05154174403788e-01 5.84284192138027e-04
3.15625000000000e-01 2.03385163842294e-01 6.03971591958448e-04
3.40875000000000e-01 2.01631407166692e-01 6.22306783584289e-04
3.66125000000000e-01 1.99892772845245e-01 6.39426095617237e-04
3.91375000000000e-01 1.98169130480389e-01 6.55443598267545e-04
4.16625000000000e-01 1.96460350798960e-01 6.70456029703122e-04
4.41875000000000e-01 1.94766305642492e-01 6.84546388101506e-04
4.67125000000000e-01 1.93086867957611e-01 6.97786608564356e-04
4.92375000000000e-01 1.91421911786502e-01 7.10239596265946e-04
5.17625000000000e-01 1.89771312257463e-01 7.21960796614273e-04
5.42875000000000e-01 1.88134945575541e-01 7.32999425895930e-04
5.68125000000000e-01 1.86512689013246e-01 7.43399448611399e-04
5.93375000000000e-01 1.84904420901348e-01 7.53200362880054e-04
6.18625000000000e-01 1.83310020619747e-01 7.62437838387971e-04
6.43875000000000e-01 1.81729368588435e-01 7.71144239615653e-04
6.69125000000000e-01 1.80162346258521e-01 7.79349058790812e-04
6.94375000000000e-01 1.78608836103338e-01 7.87079277057667e-04
7.19625000000000e-01 1.77068721609638e-01 7.94359668018800e-04
7.44875000000000e-01 1.75541887268844e-01 8.01213054605514e-04
7.70125000000000e-01 1.74028218568389e-01 8.07660527841245e-04
7.95375000000000e-01 1.72527601983133e-01 8.13721634255865e-04
8.20625000000000e-01 1.71039924966841e-01 8.19414537329842e-04
8.45875000000000e-01 1.69565075943748e-01 8.24756157283214e-04
8.71125000000000e-01 1.68102944300187e-01 8.29762292697283e-04
8.96375000000000e-01 1.66653420376295e-01 8.34447726808476e-04
9.21625000000000e-01 1.65216395457787e-01 8.38826320800218e-04
9.46875000000000e-01 1.63791761767804e-01 8.42911096010743e-04
9.72125000000000e-01 1.62379412458830e-01 8.46714306646696e-04
9.97375000000000e-01 1.60979241604676e-01 8.50247504327731e-04
1.02262500000000e+00 1.59591144192537e-01 8.53521595573372e-04
1.04787500000000e+00 1.58215016115117e-01 8.56546893167146e-04
1.07312500000000e+00 1.56850754162820e-01 8.59333162189115e-04
1.09837500000000e+00 1.55498256016009e-01 8.61889661389180e-04
1.12362500000000e+00 1.54157420237331e-01 8.64225180474584e-04
1.14887500000000e+00 1.52828146264114e-01 8.66348073802937e-04
1.17412500000000e+00 1.51510334400817e-01 8.68266290903143e-04
1.19937500000000e+00 1.50203885811560e-01 8.69987404188384e-04
1.22462500000000e+00 1.48908702512708e-01 8.71518634177012e-04
1.24987500000000e+00 1.47624687365523e-01 8.72866872495430e-04
1.27512500000000e+00 1.46351744068877e-01 8.74038702901234e-04
1.30037500000000e+00 1.45089777152032e-01 8.75040420536046e-04
1.32562500000000e+00 1.43838691967477e-01 8.75878049590556e-04
1.35087500000000e+00 1.42598394683832e-01 8.76557359542580e-04
1.37612500000000e+00 1.41368792278810e-01 8.77083880110061e-04
1.40137500000000e+00 1.40149792532239e-01 8.77462915043536e-04
1.42662500000000e+00 1.38941304019146e-01 8.77699554869800e-04
1.45187500000000e+00 1.37743236102900e-01 8.77798688684541e-04
1.47712500000000e+00 1.36555498928417e-01 8.77765015081529e-04
1.50237500000000e+00 1.35378003415416e-01 8.77603052296790e-04
1.52762500000000e+00 1.34210661251742e-01 8.77317147637152e-04
1.55287500000000e+00 1.33053384886741e-01 8.76911486255639e-04
1.57812500000000e+00 1.31906087524693e-01 8.76390099329830e-04
1.60337500000000e+00 1.30768683118304e-01 8.75756871693717e-04
1.62862500000000e+00 1.29641086362251e-01 8.75015548967911e-04
1.65387500000000e+00 1.28523212686786e-01 8.74169744229537e-04
1.67912500000000e+00 1.27414978251390e-01 8.73222944258558e-04
1.70437500000000e+00 1.26316299938488e-01 8.72178515393993e-04
1.72962500000000e+00 1.25227095347215e-01 8.71039709030391e-04
1.75487500000000e+00 1.24147282787233e-01 8.69809666781992e-04
1.78012500000000e+00 1.23076781272608e-01 8.68491425339814e-04
1.80537500000000e+00 1.22015510515734e-01 8.67087921044246e-04
1.83062500000000e+00 1.20963390921311e-01 8.65601994193974e-04
1.85587500000000e+00 1.19920343580377e-01 8.64036393110330e-04
1.88112500000000e+00 1.18886290264388e-01 8.62393777974365e-04
1.90637500000000e+00 1.17861153419353e-01 8.60676724452475e-04
1.93162500000000e+00 1.16844856160016e-01 8.58887727125210e-04
1.95687500000000e+00 1.15837322264088e-01 8.57029202732627e-04
1.98212500000000e+00 1.14838476166536e-01 8.55103493248701e-04
2.00737500000000e+00 1.13848242953907e-01 8.53112868795756e-04
2.03262500000000e+00 1.12866548358719e-01 8.51059530409401e-04
2.05787500000000e+00 1.11893318753883e-01 8.48945612663844e-04
2.08312500000000e+00 1.10928481147185e-01 8.46773186166151e-04
2.10837500000000e+00 1.09971963175812e-01 8.44544259927911e-04
2.13362500000000e+00 1.09023693100923e-01 8.42260783621801e-04
2.15887500000000e+00 1.08083599802268e-01 8.39924649729893e-04
2.18412500000000e+00 1.07151612772856e-01 8.37537695590375e-04
2.20937500000000e+00 1.06227662113666e-01 8.35101705348921e-04
2.23462500000000e+00 1.05311678528406e-01 8.32618411819946e-04
2.25987500000000e+00 1.04403593318313e-01 8.30089498263224e-04
2.28512500000000e+00 1.03503338377002e-01 8.27516600080683e-04
2.31037500000000e+00 1.02610846185359e-01 8.24901306437715e-04
2.33562500000000e+00 1.01726049806475e-01 8.22245161813526e-04
2.36087500000000e+00 1.00848882880629e-01 8.19549667484281e-04
2.38612500000000e+00 9.99792796203065e-02 8.16816282942650e-04
2.41137500000000e+00 9.91171748052693e-02 8.14046427257271e-04
2.43662500000000e+00 9.82625037776622e-02 8.11241480375399e-04
2.46187500000000e+00 9.74152024371639e-02 8.08402784371620e-04
2.48712500000000e+00 9.65752072361798e-02 8.05531644645534e-04
2.51237500000000e+00 9.57424551750755e-02 8.02629331070989e-04
2.53762500000000e+00 9.49168837974523e-02 7.99697079099265e-04
2.56287500000000e+00 9.40984311854623e-02 7.96736090818740e-04
2.58812500000000e+00 9.32870359551654e-02 7.93747535973021e-04
2.61337500000000e+00 9.24826372519249e-02 7.90732552939657e-04
2.63862500000000e+00 9.16851747458435e-02 7.87692249671318e-04
2.66387500000000e+00 9.08945886272388e-02 7.84627704601375e-04
2.68912500000000e+00 9.01108196021572e-02 7.81539967515407e-04
2.71437500000000e+00 8.93338088879273e-02 7.78430060390323e-04
2.73962500000000e+00 8.85634982087508e-02 7.75298978202740e-04
2.76487500000000e+00 8.77998297913321e-02 7.72147689707847e-04
2.79012500000000e+00 8.70427463605451e-02 7.68977138190140e-04
2.81537500000000e+00 8.62921911351377e-02 7.65788242187413e-04
2.84062500000000e+00 8.55481078234732e-02 7.62581896189251e-04
2.86587500000000e+00 8.48104406193081e-02 7.59358971310762e-04
2.89112500000000e+00 8.40791341976074e-02 7.56120315943176e-04
2.91637500000000e+00 8.33541337103944e-02 7.52866756382119e-04
2.94162500000000e+00 8.26353847826376e-02 7.49599097434176e-04
2.96687500000000e+00 8.19228335081723e-02 7.46318123003314e-04
2.99212500000000e+00 8.12164264456578e-02 7.43024596657446e-04
3.01737500000000e+00 8.05161106145693e-02 7.39719262176318e-04
3.04262500000000e+00 7.98218334912243e-02 7.36402844081436e-04
3.06787500000000e+00 7.91335430048432e-02 7.33076048148452e-04
3.09312500000000e+00 7.84511875336444e-02 7.29739561903320e-04
3.11837500000000e+00 7.77747159009722e-02 7.26394055102411e-04
3.14362500000000e+00 7.71040773714588e-02 7.23040180197275e-04
3.16887500000000e+00 7.64392216472190e-02 7.19678572784921e-04
3.19412500000000e+00 7.57800988640781e-02 7.16309852043853e-04
3.21937500000000e+00 7.51266595878318e-02 7.12934621156749e-04
3.24462500000000e+00 7.44788548105390e-02 7.09553467719997e-04
3.26987500000000e+00 7.38366359468457e-02 7.06166964140721e-04
3.29512500000000e+00 7.31999548303417e-02 7.02775668021975e-04
3.32037500000000e+00 7.25687637099475e-02 6.99380122536115e-04
3.34562500000000e+00 7.19430152463335e-02 6.95980856787129e-04
3.37087500000000e+00 7.13226625083692e-02 6.92578386162263e-04
3.39612500000000e+00 7.07076589696034e-02 6.89173212673230e-04
3.42137500000000e+00 7.00979585047751e-02 6.85765825287492e-04
3.44662500000000e+00 6.94935153863535e-02 6.82356700250000e-04
3.47187500000000e+00 6.88942842811088e-02 6.78946301395585e-04
3.49712500000000e+00 6.83002202467125e-02 6.75535080452505e-04
3.52237500000000e+00 6.77112787283659e-02 6.72123477337286e-04
3.54762500000000e+00 6.71274155554591e-02 6.68711920441269e-04
3.57287500000000e+00 6.65485869382584e-02 6.65300826909256e-04
3.59812500000000e+00 6.59747494646212e-02 6.61890602910198e-04
3.62337500000000e+00 6.54058600967410e-02 6.58481643900524e-04
3.64862500000000e+00 6.48418761679191e-02 6.55074334880279e-04
3.67387500000000e+00 6.42827553793648e-02 6.51669050642223e-04
3.69912500000000e+00 6.37284557970227e-02 6.48266156014144e-04
3.72437500000000e+00 6.31789358484280e-02 6.44866006094647e-04
3.74962500000000e+00 6.26341543195883e-02 6.41468946482747e-04
3.77487500000000e+00 6.20940703518926e-02 6.38075313501139e-04
3.80012500000000e+00 6.15586434390471e-02 6.34685434413697e-04
3.82537500000000e+00 6.10278334240371e-02 6.31299627637305e-04
3.85062500000000e+00 6.05016004961149e-02 6.27918202948051e-04
3.87587500000000e+00 5.99799051878147e-02 6.24541461682071e-04
3.90112500000000e+00 5.94627083719919e-02 6.21169696931162e-04
3.92637500000000e+00 5.89499712588889e-02 6.17803193733474e-04
3.95162500000000e+00 5.84416553932257e-02 6.14442229259255e-04
3.97687500000000e+00 5.79377226513158e-02 6.11087072991884e-04
4.00212500000000e+00 5.74381352382072e-02 6.07737986904294e-04
4.02737500000000e+00 5.69428556848471e-02 6.04395225631020e-04
4.05262500000000e+00 5.64518468452726e-02 6.01059036635860e-04
4.07787500000000e+00 5.59650718938240e-02 5.97729660375420e-04
4.10312500000000e+00 5.54824943223832e-02 5.94407330458595e-04
4.12837500000000e+00 5.50040779376359e-02 5.91092273802128e-04
4.15362500000000e+00 5.45297868583563e-02 5.87784710782330e-04
4.17887500000000e+00 5.40595855127169e-02 5.84484855383024e-04
4.20412500000000e+00 5.35934386356198e-02 5.81192915340019e-04
4.22937500000000e+00 5.31313112660525e-02 5.77909092282052e-04
4.25462500000000e+00 5.26731687444656e-02 5.74633581868335e-04
4.27987500000000e+00 5.22189767101729e-02 5.71366573922738e-04
4.30512500000000e+00 5.17687010987752e-02 5.68108252564824e-04
4.33037500000000e+00 5.13223081396045e-02 5.64858796337834e-04
4.35562500000000e+00 5.08797643531920e-02 5.61618378333476e-04
4.38087500000000e+00 5.04410365487568e-02 5.58387166313958e-04
4.40612500000000e+00 5.00060918217165e-02 5.55165322831084e-04
4.43137500000000e+00 4.95748975512196e-02 5.51953005342471e-04
4.45662500000000e+00 4.91474213976989e-02 5.48750366325226e-04
4.48187500000000e+00 4.87236313004456e-02 5.45557553386952e-04
4.50712500000000e+00 4.83034954752054e-02 5.42374709374084e-04
4.53237500000000e+00 4.78869824117944e-02 5.39201972477810e-04
4.55762500000000e+00 4.74740608717356e-02 5.36039476337611e-04
4.58287500000000e+00 4.70646998859162e-02 5.32887350142327e-04
4.60812500000000e+00 4.66588687522653e-02 5.29745718729035e-04
4.63337500000000e+00 4.62565370334505e-02 5.26614702679636e-04
4.65862500000000e+00 4.58576745545957e-02 5.23494418415269e-04
4.68387500000000e+00 4.54622514010178e-02 5.20384978288635e-04
4.70912500000000e+00 4.50702379159829e-02 5.17286490674135e-04
4.73437500000000e+00 4.46816046984824e-02 5.14199060056128e-04
4.75962500000000e+00 4.42963226010275e-02 5.11122787115171e-04
4.78487500000000e+00 4.39143627274637e-02 5.08057768812377e-04
4.81012500000000e+00 4.35356964308031e-02 5.05004098471834e-04
4.83537500000000e+00 4.31602953110759e-02 5.01961865861264e-04
4.86062500000000e+00 4.27881312132009e-02 4.98931157270937e-04
4.88587500000000e+00 4.24191762248731e-02 4.95912055590771e-04
4.91112500000000e+00 4.20534026744710e-02 4.92904640385803e-04
4.93637500000000e+00 4.16907831289808e-02 4.89908987970025e-04
4.96162500000000e+00 4.13312903919392e-02 4.86925171478622e-04
4.98687500000000e+00 4.09748975013933e-02 4.83953260938573e-04
5.01212500000000e+00 4.06215777278787e-02 4.80993323337781e-04
5.03737500000000e+00 4.02713045724149e-02 4.78045422692790e-04
5.06262500000000e+00 3.99240517645176e-02 4.75109620114900e-04
5.08787500000000e+00 3.95797932602287e-02 4.72185973874913e-04
5.11312500000000e+00 3.92385032401626e-02 4.69274539466599e-04
5.13837500000000e+00 3.89001561075701e-02 4.66375369668663e-04
5.16362500000000e+00 3.85647264864188e-02 4.63488514605493e-04
5.18887500000000e+00 3.82321892194893e-02 4.60614021806583e-04
5.21412500000000e+00 3.79025193664888e-02 4.57751936264688e-04
5.23937500000000e+00 3.75756922021806e-02 4.54902300492790e-04
5.26462500000000e+00 3.72516832145297e-02 4.52065154579833e-04
5.28987500000000e+00 3.69304681028642e-02 4.49240536245274e-04
5.31512500000000e+00 3.66120227760529e-02 4.46428480892541e-04
5.34037500000000e+00 3.62963233506985e-02 4.43629021661329e-04
5.36562500000000e+00 3.59833461493463e-02 4.40842189478805e-04
5.39087500000000e+00 3.56730676987082e-02 4.38068013109793e-04
5.41612500000000e+00 3.53654647279028e-02 4.35306519205850e-04
5.44137500000000e+00 3.50605141667091e-02 4.32557732353367e-04
5.46662500000000e+00 3.47581931438374e-02 4.29821675120647e-04
5.49187500000000e+00 3.44584789852128e-02 4.27098368104045e-04
5.51712500000000e+00 3.41613492122756e-02 4.24387829973147e-04
5.54237500000000e+00 3.38667815402949e-02 4.21690077514967e-04
5.56762500000000e+00 3.35747538766972e-02 4.19005125677243e-04
5.59287500000000e+00 3.32852443194099e-02 4.16332987610966e-04
5.61812500000000e+00 3.29982311552180e-02 4.13673674711876e-04
5.64337500000000e+00 3.27136928581363e-02 4.11027196661170e-04
5.66862500000000e+00 3.24316080877944e-02 4.08393561465434e-04
5.69387500000000e+00 3.21519556878365e-02 4.05772775495658e-04
5.71912500000000e+00 3.18747146843345e-02 4.03164843525541e-04
5.74437500000000e+00 3.15998642842151e-02 4.00569768768965e-04
5.76962500000000e+00 3.13273838737001e-02 3.97987552916735e-04
5.79487500000000e+00 3.10572530167606e-02 3.95418196172544e-04
5.82012500000000e+00 3.07894514535841e-02 3.92861697288225e-04
5.84537500000000e+00 3.05239590990554e-02 3.90318053598304e-04
5.87062500000000e+00 3.02607560412495e-02 3.87787261053821e-04
5.89587500000000e+00 2.99998225399391e-02 3.85269314255528e-04
5.92112500000000e+00 2.97411390251132e-02 3.82764206486331e-04
5.94637500000000e+00 2.94846860955101e-02 3.80271929743123e-04
5.97162500000000e+00 2.92304445171618e-02 3.77792474767999e-04
5.99687500000000e+00 2.89783952219517e-02 3.75325831078789e-04
6.02212500000000e+00 2.87285193061843e-02 3.72871986999005e-04
6.04737500000000e+00 2.84807980291676e-02 3.70430929687201e-04
6.07262500000000e+00 2.82352128118077e-02 3.68002645165725e-04
6.09787500000000e+00 2.79917452352149e-02 3.65587118348870e-04
6.12312500000000e+00 2.77503770393226e-02 3.63184333070513e-04
6.14837500000000e+00 2.75110901215177e-02 3.60794272111175e-04
6.17362500000000e+00 2.72738665352832e-02 3.58416917224495e-04
6.19887500000000e+00 2.70386884888516e-02 3.56052249163272e-04
6.22412500000000e+00 2.68055383438711e-02 3.53700247704889e-04
6.24937500000000e+00 2.65743986140824e-02 3.51360891676262e-04
6.27462500000000e+00 2.63452519640073e-02 3.49034158978319e-04
6.29987500000000e+00 2.61180812076488e-02 3.46720026609963e-04
6.32512500000000e+00 2.58928693072015e-02 3.44418470691567e-04
6.35037500000000e+00 2.56695993717745e-02 3.42129466487959e-04
6.37562500000000e+00 2.54482546561243e-02 3.39852988430982e-04
6.40087500000000e+00 2.52288185593986e-02 3.37589010141648e-04
6.42612500000000e+00 2.50112746238916e-02 3.35337504451778e-04
6.45137500000000e+00 2.47956065338098e-02 3.33098443425219e-04
6.47662500000000e+00 2.45817981140479e-02 3.30871798378672e-04
6.50187500000000e+00 2.43698333289758e-02 3.28657539902064e-04
6.52712500000000e+00 2.41596962812361e-02 3.26455637878564e-04
6.55237500000000e+00 2.39513712105516e-02 3.24266061504164e-04
6.57762500000000e+00 2.37448424925436e-02 3.22088779306860e-04
6.60287500000000e+00 2.35400946375595e-02 3.19923759165453e-04
6.62812500000000e+00 2.33371122895117e-02 3.17770968327996e-04
6.65337500000000e+00 2.31358802247254e-02 3.15630373429919e-04
6.67862500000000e+00 2.29363833507971e-02 3.13501940511648e-04
6.70387500000000e+00 2.27386067054627e-02 3.11385635035981e-04
6.72912500000000e+00 2.25425354554751e-02 3.09281421905148e-04
6.75437500000000e+00 2.23481548954920e-02 3.07189265477417e-04
6.77962500000000e+00 2.21554504469727e-02 3.05109129583439e-04
6.80487500000000e+00 2.19644076570848e-02 3.03040977542265e-04
6.83012500000000e+00 2.17750121976205e-02 3.00984772177013e-04
6.85537500000000e+00 2.15872498639215e-02 2.98940475830259e-04
6.88062500000000e+00 2.14011065738141e-02 2.96908050379050e-04
6.90587500000000e+00 2.12165683665528e-02 2.94887457249701e-04
6.93112500000000e+00 2.10336214017735e-02 2.92878657432263e-04
6.95637500000000e+00 2.08522519584548e-02 2.90881611494666e-04
6.98162500000000e+00 2.06724464338900e-02 2.88896279596605e-04
7.00687500000000e+00 2.04941913426658e-02 2.86922621503145e-04
7.03212500000000e+00 2.03174733156516e-02 2.84960596598085e-04
7.05737500000000e+00 2.01422790989967e-02 2.83010163896984e-04
7.08262500000000e+00 1.99685955531359e-02 2.81071282059941e-04
7.10787500000000e+00 1.97964096518046e-02 2.79143909404149e-04
7.13312500000000e+00 1.96257084810612e-02 2.77228003916205e-04
7.15837500000000e+00 1.94564792383193e-02 2.75323523264106e-04
7.18362500000000e+00 1.92887092313866e-02 2.73430424809040e-04
7.20887500000000e+00 1.91223858775139e-02 2.71548665616982e-04
7.23412500000000e+00 1.89574967024508e-02 2.69678202469947e-04
7.25937500000000e+00 1.87940293395103e-02 2.67818991877083e-04
7.28462500000000e+00 1.86319715286412e-02 2.65970990085572e-04
7.30987500000000e+00 1.84713111155089e-02 2.64134153091230e-04
7.33512500000000e+00 1.83120360505834e-02 2.62308436648912e-04
7.36037500000000e+00 1.81541343882361e-02 2.60493796282734e-04
7.38562500000000e+00 1.79975942858433e-02 2.58690187296054e-04
7.41087500000000e+00 1.78424040028984e-02 2.56897564781287e-04
7.43612500000000e+00 1.76885519001312e-02 2.55115883629446e-04
7.46137500000000e+00 1.75360264386351e-02 2.53345098539545e-04
7.48662500000000e+00 1.73848161790016e-02 2.51585164027809e-04
7.51187500000000e+00 1.72349097804622e-02 2.49836034436648e-04
7.53712500000000e+00 1.70862960000380e-02 2.48097663943487e-04
7.56237500000000e+00 1.69389636916965e-02 2.46370006569379e-04
7.58762500000000e+00 1.67929018055156e-02 2.44653016187476e-04
7.61287500000000e+00 1.66480993868549e-02 2.42946646531273e-04
7.63812500000000e+00 1.65045455755339e-02 2.41250851202748e-04
7.66337500000000e+00 1.63622296050178e-02 2.39565583680255e-04
7.68862500000000e+00 1.62211408016098e-02 2.37890797326295e-04
7.71387500000000e+00 1.60812685836506e-02 2.36226445395107e-04
7.73912500000000e+00 1.59426024607247e-02 2.34572481040117e-04
7.76437500000000e+00 1.58051320328740e-02 2.32928857321207e-04
7.78962500000000e+00 1.56688469898173e-02 2.31295527211825e-04
7.81487500000000e+00 1.55337371101773e-02 2.29672443605972e-04
7.84012500000000e+00 1.53997922607139e-02 2.28059559325030e-04
7.86537500000000e+00 1.52670023955644e-02 2.26456827124423e-04
7.89062500000000e+00 1.51353575554897e-02 2.24864199700129e-04
7.91587500000000e+00 1.50048478671279e-02 2.23281629695104e-04
7.94112500000000e+00 1.48754635422531e-02 2.21709069705513e-04
7.96637500000000e+00 1.47471948770418e-02 2.20146472286845e-04
