Energy (eV)          EEDF (eV^-(3/2))     First Anisotropy
6.41176470588235e-03 7.92508986869885e-01 5.04723251113894e-04
1.92352941176471e-02 7.84492252828738e-01 8.32023247889444e-04
3.20588235294118e-02 7.76556613168680e-01 1.09461406749436e-03
4.48823529411765e-02 7.68701247567468e-01 1.29183828447811e-03
5.77058823529412e-02 7.60925344001515e-01 1.45445944474503e-03
7.05294117647059e-02 7.53228098649834e-01 1.59416524881982e-03
8.33529411764706e-02 7.45608715848388e-01 1.71703194814979e-03
9.61764705882353e-02 7.38066407966993e-01 1.82674527616208e-03
1.09000000000000e-01 7.30600395362733e-01 1.92576048105031e-03
1.21823529411765e-01 7.23209906200362e-01 2.01582045635283e-03
1.34647058823529e-01 7.15894176577336e-01 2.09822096088866e-03
1.47470588235294e-01 7.08652450195718e-01 2.17395989187664e-03
1.60294117647059e-01 7.01483978519304e-01 2.24382743664925e-03
1.73117647058824e-01 6.94388020524279e-01 2.30846359203790e-03
1.85941176470588e-01 6.87363842648461e-01 2.36839645708872e-03
1.98764705882353e-01 6.80410718828883e-01 2.42406870382822e-03
2.11588235294118e-01 6.73527930272976e-01 2.47585639786652e-03
2.24411764705882e-01 6.66714765528850e-01 2.52408273121726e-03
2.37235294117647e-01 6.59970520304355e-01 2.56902827897878e-03
2.50058823529412e-01 6.53294497407157e-01 2.61093877053720e-03
2.62882352941176e-01 6.46686006751654e-01 2.65003111989493e-03
2.75705882352941e-01 6.40144365181169e-01 2.68649814532603e-03
2.88529411764706e-01 6.33668896498857e-01 2.72051231976821e-03
3.01352941176471e-01 6.27258931322175e-01 2.75222879906161e-03
3.14176470588235e-01 6.20913807020897e-01 2.78178786236105e-03
3.27000000000000e-01 6.14632867708184e-01 2.80931693575387e-03
3.39823529411765e-01 6.08415464093076e-01 2.83493225897223e-03
3.52647058823529e-01 6.02260953489897e-01 2.85874027810418e-03
3.65470588235294e-01 5.96168699678237e-01 2.88083881807474e-03
3.78294117647059e-01 5.90138072907951e-01 2.90131807308030e-03
3.91117647058824e-01 5.84168449781314e-01 2.92026146058686e-03
4.03941176470588e-01 5.78259213192687e-01 2.93774633573567e-03
4.16764705882353e-01 5.72409752308299e-01 2.95384462443454e-03
4.29588235294118e-01 5.66619462444860e-01 2.96862336414686e-03
4.42411764705882e-01 5.60887745063373e-01 2.98214517425800e-03
4.55235294117647e-01 5.55214007665160e-01 2.99446867601767e-03
4.68058823529412e-01 5.49597663733629e-01 3.00564884573572e-03
4.80882352941176e-01 5.44038132709117e-01 3.01573734144837e-03
4.93705882352941e-01 5.38534839881456e-01 3.02478278509745e-03
5.06529411764706e-01 5.33087216376575e-01 3.03283101276471e-03
5.19352941176471e-01 5.27694699063301e-01 3.03992530525571e-03
5.32176470588235e-01 5.22356730497307e-01 3.04610658032992e-03
5.45000000000000e-01 5.17072758893078e-01 3.05141357864033e-03
5.57823529411765e-01 5.11842238027415e-01 3.05588302472629e-03
5.70647058823529e-01 5.06664627221327e-01 3.05954977307016e-03
5.83470588235294e-01 5.01539391246824e-01 3.06244694075141e-03
5.96294117647059e-01 4.96466000307887e-01 3.06460602600424e-03
6.09117647058824e-01 4.91443929958583e-01 3.06605702246849e-03
6.21941176470588e-01 4.86472661050378e-01 3.06682851109843e-03
6.34764705882353e-01 4.81551679702195e-01 3.06694775583966e-03
6.47588235294118e-01 4.76680477215650e-01 3.06644078563725e-03
6.60411764705882e-01 4.71858550053312e-01 3.06533246925820e-03
6.73235294117647e-01 4.67085399763576e-01 3.06364658984079e-03
6.86058823529412e-01 4.62360532930378e-01 3.06140590250783e-03
6.98882352941177e-01 4.57683461142533e-01 3.05863219812065e-03
7.11705882352941e-01 4.53053700916106e-01 3.05534635712804e-03
7.24529411764706e-01 4.48470773670935e-01 3.05156839905683e-03
7.37352941176471e-01 4.43934205661331e-01 3.04731753363298e-03
7.50176470588235e-01 4.39443527928090e-01 3.04261219823975e-03
7.63000000000000e-01 4.34998276267661e-01 3.03747010238787e-03
7.75823529411765e-01 4.30597991160647e-01 3.03190826452956e-03
7.88647058823529e-01 4.26242217747285e-01 3.02594304696882e-03
8.01470588235294e-01 4.21930505757954e-01 3.01959018879476e-03
8.14294117647059e-01 4.17662409488598e-01 3.01286483541700e-03
8.27117647058824e-01 4.13437487738227e-01 3.00578157085384e-03
8.39941176470588e-01 4.09255303764063e-01 2.99835443913552e-03
8.52764705882353e-01 4.05115425251142e-01 2.99059697294460e-03
8.65588235294118e-01 4.01017424247968e-01 2.98252221643315e-03
8.78411764705882e-01 3.96960877141516e-01 2.97414274641633e-03
8.91235294117647e-01 3.92945364599035e-01 2.96547069655543e-03
9.04058823529412e-01 3.88970471525358e-01 2.95651777205330e-03
9.16882352941176e-01 3.85035787032963e-01 2.94729527135545e-03
9.29705882352941e-01 3.81140904382199e-01 2.93781410289271e-03
9.42529411764706e-01 3.77285420956190e-01 2.92808480066918e-03
9.55352941176471e-01 3.73468938206532e-01 2.91811754288725e-03
9.68176470588235e-01 3.69691061612628e-01 2.90792216216012e-03
9.81000000000000e-01 3.65951400652405e-01 2.89750816238289e-03
9.93823529411765e-01 3.62249568746627e-01 2.88688472860238e-03
1.00664705882353e+00 3.58585183248093e-01 2.87606074754357e-03
1.01947058823529e+00 3.54957865344495e-01 2.86504481481413e-03
1.03229411764706e+00 3.51367240073559e-01 2.85384523848089e-03
1.04511764705882e+00 3.47812936265993e-01 2.84247006030017e-03
1.05794117647059e+00 3.44294586507112e-01 2.83092706237140e-03
1.07076470588235e+00 3.40811827098862e-01 2.81922377683289e-03
1.08358823529412e+00 3.37364298022223e-01 2.80736749509468e-03
1.09641176470588e+00 3.33951642899995e-01 2.79536527664224e-03
1.10923529411765e+00 3.30573508959924e-01 2.78322395741235e-03
1.12205882352941e+00 3.27229546998305e-01 2.77095015779648e-03
1.13488235294118e+00 3.23919411343846e-01 2.75855029029313e-03
1.14770588235294e+00 3.20642759821939e-01 2.74603056679869e-03
1.16052941176471e+00 3.17399253719287e-01 2.73339700558200e-03
1.17335294117647e+00 3.14188557748890e-01 2.72065543795313e-03
1.18617647058824e+00 3.11010340015389e-01 2.70781151464455e-03
1.19900000000000e+00 3.07864271980756e-01 2.69487070665258e-03
1.21182352941176e+00 3.04750028455523e-01 2.68183832701958e-03
1.22464705882353e+00 3.01667287488842e-01 2.66871952575240e-03
1.23747058823529e+00 2.98615730412297e-01 2.65551928433087e-03
1.25029411764706e+00 2.95595041781006e-01 2.64224243726482e-03
1.26311764705882e+00 2.92604909341011e-01 2.62889367152766e-03
1.27594117647059e+00 2.89645023996999e-01 2.61547753130564e-03
1.28876470588235e+00 2.86715079780350e-01 2.60199842255911e-03
1.30158823529412e+00 2.83814773817512e-01 2.58846061740558e-03
1.31441176470588e+00 2.80943806298689e-01 2.57486825833665e-03
1.32723529411765e+00 2.78101880446833e-01 2.56122536226166e-03
1.34005882352941e+00 2.75288702487003e-01 2.54753582440593e-03
1.35288235294118e+00 2.72503981615975e-01 2.53380342207031e-03
1.36570588235294e+00 2.69747429972185e-01 2.52003181823877e-03
1.37852941176471e+00 2.67018762605971e-01 2.50622456505719e-03
1.39135294117647e+00 2.64317697450116e-01 2.49238510718501e-03
1.40417647058824e+00 2.61643955290693e-01 2.47851678502588e-03
1.41700000000000e+00 2.58997259738199e-01 2.46462283376505e-03
1.42982352941176e+00 2.56377337216932e-01 2.45070639870333e-03
1.44264705882353e+00 2.53783916882364e-01 2.43677052988870e-03
1.45547058823529e+00 2.51216730648009e-01 2.42281817650120e-03
1.46829411764706e+00 2.48675513139246e-01 2.40885220224483e-03
1.48111764705882e+00 2.46160001665888e-01 2.39487538369052e-03
1.49394117647059e+00 2.43669936195023e-01 2.38089041279518e-03
1.50676470588235e+00 2.41205059324138e-01 2.36689989933603e-03
1.51958823529412e+00 2.38765116254508e-01 2.35290637326323e-03
1.53241176470588e+00 2.36349854764860e-01 2.33891228697731e-03
1.54523529411765e+00 2.33959025185286e-01 2.32492001752374e-03
1.55805882352941e+00 2.31592380371462e-01 2.31093186872084e-03
1.57088235294118e+00 2.29249675679083e-01 2.29695007322450e-03
1.58370588235294e+00 2.26930668938577e-01 2.28297679451792e-03
1.59652941176471e+00 2.24635120430070e-01 2.26901412884074e-03
1.60935294117647e+00 2.22362792858608e-01 2.25506410705724e-03
1.62217647058824e+00 2.20113451329624e-01 2.24112869646547e-03
1.63500000000000e+00 2.17886863324661e-01 2.22720979935613e-03
1.64782352941176e+00 2.15682798690422e-01 2.21330926436797e-03
1.66064705882353e+00 2.13501029575352e-01 2.19942888166105e-03
1.67347058823529e+00 2.11341330446078e-01 2.18557037792243e-03
1.68629411764706e+00 2.09203478050642e-01 2.17173542785207e-03
1.69911764705882e+00 2.07087251395417e-01 2.15792565232379e-03
1.71194117647059e+00 2.04992431722271e-01 2.14414261984072e-03
1.72476470588235e+00 2.02918802485947e-01 2.13038784794711e-03
1.73758823529412e+00 2.00866149331682e-01 2.11666280459852e-03
1.75041176470588e+00 1.98834260073045e-01 2.10296890949345e-03
1.76323529411765e+00 1.96822924670000e-01 2.08930753536053e-03
1.77605882352941e+00 1.94831935207208e-01 2.07568000921177e-03
1.78888235294118e+00 1.92861085872524e-01 2.06208761356335e-03
1.80170588235294e+00 1.90910172935722e-01 2.04853158761589e-03
1.81452941176471e+00 1.88978994727440e-01 2.03501312840251e-03
1.82735294117647e+00 1.87067351618328e-01 2.02153339190459e-03
1.84017647058824e+00 1.85175045998412e-01 2.00809349413560e-03
1.85300000000000e+00 1.83301882256672e-01 1.99469450967049e-03
1.86582352941176e+00 1.81447666770535e-01 1.98133748030132e-03
1.87864705882353e+00 1.79612207856446e-01 1.96802341091903e-03
1.89147058823529e+00 1.77795315779730e-01 1.95475326527273e-03
1.90429411764706e+00 1.75996802725002e-01 1.94152797476459e-03
1.91711764705882e+00 1.74216482776747e-01 1.92834843672664e-03
1.92994117647059e+00 1.72454171900104e-01 1.91521551531156e-03
1.94276470588235e+00 1.70709687921841e-01 1.90213004235874e-03
1.95558823529412e+00 1.68982850511525e-01 1.88909281823706e-03
1.96841176470588e+00 1.67273481162878e-01 1.87610461266653e-03
1.98123529411765e+00 1.65581403175325e-01 1.86316616551390e-03
1.99405882352941e+00 1.63906441635730e-01 1.85027818756947e-03
2.00688235294118e+00 1.62248423400319e-01 1.83744136130600e-03
2.01970588235294e+00 1.60607177076775e-01 1.82465634161377e-03
2.03252941176471e+00 1.58982533006522e-01 1.81192375651726e-03
2.04535294117647e+00 1.57374323247192e-01 1.79924420787333e-03
2.05817647058824e+00 1.55782381555256e-01 1.78661827205103e-03
2.07100000000000e+00 1.54206543368849e-01 1.77404649858448e-03
2.08382352941176e+00 1.52646645798070e-01 1.76152941689120e-03
2.09664705882353e+00 1.51102527586001e-01 1.74906753283208e-03
2.10947058823529e+00 1.49574029114374e-01 1.73666132517738e-03
2.12229411764706e+00 1.48060992379564e-01 1.72431125245262e-03
2.13511764705882e+00 1.46563260976251e-01 1.71201775142058e-03
2.14794117647059e+00 1.45080680081256e-01 1.69978123764753e-03
2.16076470588235e+00 1.43613096437533e-01 1.68760210605519e-03
2.17358823529412e+00 1.42160358338331e-01 1.67548073145889e-03
2.18641176470588e+00 1.40722315611507e-01 1.66341746909289e-03
2.19923529411765e+00 1.39298819604001e-01 1.65141265511959e-03
2.21205882352941e+00 1.37889723166479e-01 1.63946660712817e-03
2.22488235294118e+00 1.36494880638115e-01 1.62757962462244e-03
2.23770588235294e+00 1.35114147831534e-01 1.61575198949374e-03
2.25052941176471e+00 1.33747382017910e-01 1.60398396648305e-03
2.26335294117647e+00 1.32394441912207e-01 1.59227580363157e-03
2.27617647058824e+00 1.31055187658579e-01 1.58062773272031e-03
2.28900000000000e+00 1.29729480815911e-01 1.56903996809090e-03
2.30182352941176e+00 1.28417184349079e-01 1.55751271192364e-03
2.31464705882353e+00 1.27118162597929e-01 1.54604615139033e-03
2.32747058823529e+00 1.25832281280253e-01 1.53464045573410e-03
2.34029411764706e+00 1.24559407472192e-01 1.52329578165832e-03
2.35311764705882e+00 1.23299409594497e-01 1.51201227202565e-03
2.36594117647059e+00 1.22052157398927e-01 1.50079005622756e-03
2.37876470588235e+00 1.20817521954787e-01 1.48962925054485e-03
2.39158823529412e+00 1.19595375635593e-01 1.47852995849952e-03
2.40441176470588e+00 1.18385592105889e-01 1.46749227119884e-03
2.41723529411765e+00 1.17188046308177e-01 1.45651626766902e-03
2.43005882352941e+00 1.16002614449999e-01 1.44560201518222e-03
2.44288235294118e+00 1.14829173991136e-01 1.43474956957708e-03
2.45570588235294e+00 1.13667603630942e-01 1.42395897556960e-03
2.46852941176471e+00 1.12517783295803e-01 1.41323026705712e-03
2.48135294117647e+00 1.11379594126727e-01 1.40256346741507e-03
2.49417647058824e+00 1.10252918467055e-01 1.39195858978692e-03
2.50700000000000e+00 1.09137639850303e-01 1.38141563607420e-03
2.51982352941176e+00 1.08033642992398e-01 1.37093460111927e-03
2.53264705882353e+00 1.06940813766813e-01 1.36051547035890e-03
2.54547058823529e+00 1.05859039205831e-01 1.35015821741962e-03
2.55829411764706e+00 1.04788207484474e-01 1.33986280839433e-03
2.57111764705882e+00 1.03728207908945e-01 1.32962920074316e-03
2.58394117647059e+00 1.02678930905184e-01 1.31945734353828e-03
2.59676470588235e+00 1.01640268007544e-01 1.30934717770303e-03
2.60958823529412e+00 1.00612111847578e-01 1.29929863624542e-03
2.62241176470588e+00 9.95943561429353e-02 1.28931164448653e-03
2.63523529411765e+00 9.85868956863813e-02 1.27938612028224e-03
2.64805882352941e+00 9.75896263349190e-02 1.26952197424045e-03
2.66088235294118e+00 9.66024449990246e-02 1.25971910993442e-03
2.67370588235294e+00 9.56252496319905e-02 1.24997742410962e-03
2.68652941176471e+00 9.46579392193765e-02 1.24029680688606e-03
2.69935294117647e+00 9.37004137685677e-02 1.23067714195594e-03
2.71217647058824e+00 9.27525742984382e-02 1.22111830677671e-03
2.72500000000000e+00 9.18143228291190e-02 1.21162017171640e-03
2.73782352941176e+00 9.08855623751848e-02 1.20218260339030e-03
2.75064705882353e+00 8.99661969256026e-02 1.19280546272987e-03
2.76347058823529e+00 8.90561314439152e-02 1.18348860300552e-03
2.77629411764706e+00 8.81552718550196e-02 1.17423187324161e-03
2.78911764705882e+00 8.72635250354422e-02 1.16503511729457e-03
2.80194117647059e+00 8.63807988037128e-02 1.15589817401631e-03
2.81476470588235e+00 8.55070019108354e-02 1.14682087741409e-03
2.82758823529412e+00 8.46420440308556e-02 1.13780305680639e-03
2.84041176470588e+00 8.37858357515237e-02 1.12884453697559e-03
2.85323529411765e+00 8.29382885650504e-02 1.11994513831603e-03
2.86605882352941e+00 8.20993148589606e-02 1.11110467697906e-03
2.87888235294118e+00 8.12688279070348e-02 1.10232296501590e-03
2.89170588235294e+00 8.04467418603448e-02 1.09359981051577e-03
2.90452941176471e+00 7.96329717383786e-02 1.08493501774100e-03
2.91735294117647e+00 7.88274334202565e-02 1.07632838725927e-03
2.93017647058824e+00 7.80300436360347e-02 1.06777971607264e-03
2.94300000000000e+00 7.72407199580984e-02 1.05928879689903e-03
2.95582352941176e+00 7.64593807952223e-02 1.05085542084721e-03
2.96864705882353e+00 7.56859453763281e-02 1.04247937582849e-03
2.98147058823529e+00 7.49203337500071e-02 1.03416044493109e-03
2.99429411764706e+00 7.41624667736100e-02 1.02589840916035e-03
3.00711764705882e+00 7.34122661050660e-02 1.01769304666870e-03
3.01994117647059e+00 7.26696541947841e-02 1.00954413286498e-03
3.03276470588235e+00 7.19345542776367e-02 1.00145144052107e-03
3.04558823529412e+00 7.12068903650246e-02 9.93414739875900e-04
3.05841176470588e+00 7.04865872370213e-02 9.85433798737428e-04
3.07123529411765e+00 6.97735704345972e-02 9.77508382581252e-04
3.08405882352941e+00 6.90677662519240e-02 9.69638254647541e-04
3.09688235294118e+00 6.83691017287549e-02 9.61823176036204e-04
3.10970588235294e+00 6.76775046428823e-02 9.54062905798853e-04
3.12252941176471e+00 6.69929035026722e-02 9.46357201028919e-04
3.13535294117647e+00 6.63152275396742e-02 9.38705816949647e-04
3.14817647058824e+00 6.56444067013057e-02 9.31108506999991e-04
3.16100000000000e+00 6.49803716436106e-02 9.23565022232845e-04
3.17382352941176e+00 6.43230537261140e-02 9.16075113468441e-04
3.18664705882353e+00 6.36723849986095e-02 9.08638529987396e-04
3.19947058823529e+00 6.30282982003015e-02 9.01255018193772e-04
3.21229411764706e+00 6.23907267507802e-02 8.93924323822287e-04
3.22511764705882e+00 6.17596047431388e-02 8.86646191296859e-04
3.23794117647059e+00 6.11348669371612e-02 8.79420363802985e-04
3.25076470588235e+00 6.05164487525775e-02 8.72246583358321e-04
3.26358823529412e+00 5.99042862623882e-02 8.65124590881660e-04
3.27641176470588e+00 5.92983161862563e-02 8.58054126260230e-04
3.28923529411765e+00 5.86984758839650e-02 8.51034928414870e-04
3.30205882352941e+00 5.81047033489440e-02 8.44066735364073e-04
3.31488235294118e+00 5.75169372018587e-02 8.37149284286763e-04
3.32770588235294e+00 5.69351166842658e-02 8.30282311582868e-04
3.34052941176471e+00 5.63591816523322e-02 8.23465552932685e-04
3.35335294117647e+00 5.57890725706180e-02 8.16698743354727e-04
3.36617647058824e+00 5.52247305059223e-02 8.09981617262139e-04
3.37900000000000e+00 5.46660971211910e-02 8.03313907959970e-04
3.39182352941176e+00 5.41131146710785e-02 7.96695349384343e-04
3.40464705882353e+00 5.35657259911646e-02 7.90125675026355e-04
3.41747058823529e+00 5.30238744968974e-02 7.83604616831874e-04
3.43029411764706e+00 5.24875041761138e-02 7.77131906985215e-04
3.44311764705882e+00 5.19565595832494e-02 7.70707277375295e-04
3.45594117647059e+00 5.14309858336073e-02 7.64330459642755e-04
3.46876470588235e+00 5.09107285976838e-02 7.58001185225902e-04
3.48158823529412e+00 5.03957340955530e-02 7.51719185405557e-04
3.49441176470588e+00 4.98859490913073e-02 7.45484191348781e-04
3.50723529411765e+00 4.93813208875536e-02 7.39295934151009e-04
3.52005882352941e+00 4.88817973199669e-02 7.33154144877428e-04
3.53288235294118e+00 4.83873267518979e-02 7.27058554603633e-04
3.54570588235294e+00 4.78978580690345e-02 7.21008894454671e-04
3.55852941176471e+00 4.74133406741188e-02 7.15004895643233e-04
3.57135294117647e+00 4.69337244817161e-02 7.09046289506842e-04
3.58417647058824e+00 4.64589599130380e-02 7.03132807544034e-04
3.59700000000000e+00 4.59889978908171e-02 6.97264180994729e-04
3.60982352941176e+00 4.55237898354920e-02 6.91440142248917e-04
3.62264705882353e+00 4.50632876563813e-02 6.85660423960034e-04
3.63547058823529e+00 4.46074437505466e-02 6.79924758138595e-04
3.64829411764706e+00 4.41562109965837e-02 6.74232877597663e-04
3.66111764705882e+00 4.37095427497514e-02 6.68584515508772e-04
3.67394117647059e+00 4.32673928371497e-02 6.62979405431714e-04
3.68676470588235e+00 4.28297155529470e-02 6.57417281343491e-04
3.69958823529412e+00 4.23964656536553e-02 6.51897877666509e-04
3.71241176470588e+00 4.19675983534533e-02 6.46420929296082e-04
3.72523529411765e+00 4.15430693195564e-02 6.40986171626722e-04
3.73805882352941e+00 4.11228346676347e-02 6.35593340577980e-04
3.75088235294118e+00 4.07068509572764e-02 6.30242172619795e-04
3.76370588235294e+00 4.02950751874971e-02 6.24932404796691e-04
3.77652941176471e+00 3.98874647922947e-02 6.19663774751448e-04
3.78935294117647e+00 3.94839776362493e-02 6.14436020748009e-04
3.80217647058824e+00 3.90845720101677e-02 6.09248881693670e-04
3.81500000000000e+00 3.86892066267718e-02 6.04102096789161e-04
3.82782352941176e+00 3.82978406174288e-02 5.98995406672383e-04
3.84064705882353e+00 3.79104335249085e-02 5.93928552687131e-04
3.85347058823529e+00 3.75269453022430e-02 5.88901276135879e-04
3.86629411764706e+00 3.71473363075651e-02 5.83913319453846e-04
3.87911764705882e+00 3.67715673000101e-02 5.78964425839590e-04
3.89194117647059e+00 3.63995994356598e-02 5.74054339272931e-04
3.90476470588235e+00 3.60313942635270e-02 5.69182804532223e-04
3.91758823529412e+00 3.56669137215807e-02 5.64349567211035e-04
3.93041176470588e+00 3.53061201328115e-02 5.59554373734455e-04
3.94323529411765e+00 3.49489762013368e-02 5.54796971374562e-04
3.95605882352941e+00 3.45954450085460e-02 5.50077108265564e-04
3.96888235294118e+00 3.42454900092835e-02 5.45394533418589e-04
3.98170588235294e+00 3.38990750280715e-02 5.40748996735660e-04
3.99452941176471e+00 3.35561642553699e-02 5.36140249023338e-04
4.00735294117647e+00 3.32167222438754e-02 5.31568042005900e-04
4.02017647058824e+00 3.28807139048562e-02 5.27032128337977e-04
4.03300000000000e+00 3.25481045045258e-02 5.22532261312711e-04
4.04582352941176e+00 3.22188596612464e-02 5.18068195792264e-04
