Energy (eV)          EEDF (eV^-(3/2))     First Anisotropy
5.89285714285714e-03 4.25787295675492e-01 2.12368283745807e-04
1.76785714285714e-02 4.23169488725596e-01 3.50781637672705e-04
2.94642857142857e-02 4.20567776465255e-01 4.63339791820197e-04
4.12500000000000e-02 4.17982059940765e-01 5.49014618970177e-04
5.30357142857143e-02 4.15412240812572e-01 6.20603981985122e-04
6.48214285714286e-02 4.12858221333889e-01 6.82941436226059e-04
7.66071428571429e-02 4.10319904366207e-01 7.38525824433157e-04
8.83928571428571e-02 4.07797193368164e-01 7.88864636293068e-04
1.00178571428571e-01 4.05289992391834e-01 8.34956691017982e-04
1.11964285714286e-01 4.02798206069180e-01 8.77507246013727e-04
1.23750000000000e-01 4.00321739646507e-01 9.17037864515800e-04
1.35535714285714e-01 3.97860498932741e-01 9.53948123118141e-04
1.47321428571429e-01 3.95414390316511e-01 9.88552798143915e-04
1.59107142857143e-01 3.92983320747347e-01 1.02110553303136e-03
1.70892857142857e-01 3.90567197779163e-01 1.05181457979247e-03
1.82678571428571e-01 3.88165929516817e-01 1.08085364822757e-03
1.94464285714286e-01 3.85779424618382e-01 1.10836959625234e-03
2.06250000000000e-01 3.83407592329476e-01 1.13448804153950e-03
2.18035714285714e-01 3.81050342439980e-01 1.15931753723285e-03
2.29821428571429e-01 3.78707585294523e-01 1.18295273395417e-03
2.41607142857143e-01 3.76379231779576e-01 1.20547681891625e-03
2.53392857142857e-01 3.74065193349375e-01 1.22696342931579e-03
2.65178571428571e-01 3.71765381992063e-01 1.24747817129518e-03
2.76964285714286e-01 3.69479710228874e-01 1.26707982895902e-03
2.88750000000000e-01 3.67208091135964e-01 1.28582135457969e-03
3.00535714285714e-01 3.64950438315018e-01 1.30375067882216e-03
3.12321428571429e-01 3.62706665898953e-01 1.32091137587938e-03
3.24107142857143e-01 3.60476688541887e-01 1.33734321782604e-03
3.35892857142857e-01 3.58260421436689e-01 1.35308264348291e-03
3.47678571428571e-01 3.56057780290325e-01 1.36816315576648e-03
3.59464285714286e-01 3.53868681322058e-01 1.38261565115719e-03
3.71250000000000e-01 3.51693041278720e-01 1.39646870967310e-03
3.83035714285714e-01 3.49530777412559e-01 1.40974884355812e-03
3.94821428571429e-01 3.47381807484588e-01 1.42248070858620e-03
4.06607142857143e-01 3.45246049756297e-01 1.43468728784699e-03
4.18392857142857e-01 3.43123423002354e-01 1.44639005528342e-03
4.30178571428571e-01 3.41013846491310e-01 1.45760911995900e-03
4.41964285714286e-01 3.38917239983423e-01 1.46836334567252e-03
4.53750000000000e-01 3.36833523741923e-01 1.47867046368551e-03
4.65535714285714e-01 3.34762618515320e-01 1.48854717195913e-03
4.77321428571429e-01 3.32704445539387e-01 1.49800922017690e-03
4.89107142857143e-01 3.30658926530050e-01 1.50707148577277e-03
5.00892857142857e-01 3.28625983692972e-01 1.51574804475092e-03
5.12678571428571e-01 3.26605539707767e-01 1.52405223605137e-03
5.24464285714286e-01 3.24597517725674e-01 1.53199671301997e-03
5.36250000000000e-01 3.22601841378158e-01 1.53959349611824e-03
5.48035714285714e-01 3.20618434762246e-01 1.54685401998092e-03
5.59821428571429e-01 3.18647222441634e-01 1.55378917322740e-03
5.71607142857143e-01 3.16688129440451e-01 1.56040933478806e-03
5.83392857142857e-01 3.14741081250678e-01 1.56672440947613e-03
5.95178571428571e-01 3.12806003818849e-01 1.57274386115819e-03
6.06964285714286e-01 3.10882823543683e-01 1.57847673733411e-03
6.18750000000000e-01 3.08971467282802e-01 1.58393169726725e-03
6.30535714285714e-01 3.07071862340255e-01 1.58911703724086e-03
6.42321428571429e-01 3.05183936467046e-01 1.59404071123360e-03
6.54107142857143e-01 3.03307617855557e-01 1.59871035009270e-03
6.65892857142857e-01 3.01442835145409e-01 1.60313328146844e-03
6.77678571428571e-01 2.99589517412016e-01 1.60731654886239e-03
6.89464285714286e-01 2.97747594164225e-01 1.61126692408159e-03
7.01250000000000e-01 2.95916995349646e-01 1.61499092384407e-03
7.13035714285714e-01 2.94097651343848e-01 1.61849482467534e-03
7.24821428571429e-01 2.92289492950463e-01 1.62178467445824e-03
7.36607142857143e-01 2.90492451396158e-01 1.62486630329844e-03
7.48392857142857e-01 2.88706458335313e-01 1.62774533568630e-03
7.60178571428571e-01 2.86931445840014e-01 1.63042720240745e-03
7.71964285714286e-01 2.85167346397736e-01 1.63291714698242e-03
7.83750000000000e-01 2.83414092915620e-01 1.63522023628549e-03
7.95535714285714e-01 2.81671618710968e-01 1.63734137001429e-03
8.07321428571429e-01 2.79939857511063e-01 1.63928528748457e-03
8.19107142857143e-01 2.78218743448580e-01 1.64105657411024e-03
8.30892857142857e-01 2.76508211065353e-01 1.64265966934876e-03
8.42678571428571e-01 2.74808195303527e-01 1.64409887468039e-03
8.54464285714286e-01 2.73118631503288e-01 1.64537835684855e-03
8.66250000000000e-01 2.71439455406325e-01 1.64650215510801e-03
8.78035714285714e-01 2.69770603147385e-01 1.64747418762429e-03
8.89821428571429e-01 2.68112011253868e-01 1.64829825561525e-03
9.01607142857143e-01 2.66463616641621e-01 1.64897804735783e-03
9.13392857142857e-01 2.64825356617989e-01 1.64951714367932e-03
9.25178571428572e-01 2.63197168873906e-01 1.64991902361510e-03
9.36964285714286e-01 2.61578991481695e-01 1.65018706585961e-03
9.48750000000000e-01 2.59970762897876e-01 1.65032455398679e-03
9.60535714285714e-01 2.58372421955595e-01 1.65033468099987e-03
9.72321428571429e-01 2.56783907864063e-01 1.65022055191146e-03
9.84107142857143e-01 2.55205160204666e-01 1.64998518628078e-03
9.95892857142857e-01 2.53636118933451e-01 1.64963152061788e-03
1.00767857142857e+00 2.52076724380072e-01 1.64916241928675e-03
1.01946428571429e+00 2.50526917219822e-01 1.64858066430590e-03
1.03125000000000e+00 2.48986638522930e-01 1.64788896697835e-03
1.04303571428571e+00 2.47455829692193e-01 1.64708996850005e-03
1.05482142857143e+00 2.45934432519963e-01 1.64618624193098e-03
1.06660714285714e+00 2.44422389127607e-01 1.64518029502290e-03
1.07839285714286e+00 2.42919642020760e-01 1.64407456832028e-03
1.09017857142857e+00 2.41426134044103e-01 1.64287145242934e-03
1.10196428571429e+00 2.39941808380584e-01 1.64157326766350e-03
1.11375000000000e+00 2.38466608589210e-01 1.64018228072778e-03
1.12553571428571e+00 2.37000478549639e-01 1.63870070322422e-03
1.13732142857143e+00 2.35543362512544e-01 1.63713069299150e-03
1.14910714285714e+00 2.34095205045746e-01 1.63547435625000e-03
1.16089285714286e+00 2.32655951083109e-01 1.63373374542489e-03
1.17267857142857e+00 2.31225545884243e-01 1.63191087467534e-03
1.18446428571429e+00 2.29803935033600e-01 1.63000770072874e-03
1.19625000000000e+00 2.28391064474004e-01 1.62802613792077e-03
1.20803571428571e+00 2.26986880457142e-01 1.62596805647341e-03
1.21982142857143e+00 2.25591329588318e-01 1.62383528341643e-03
1.23160714285714e+00 2.24204358778268e-01 1.62162960426061e-03
1.24339285714286e+00 2.22825915286659e-01 1.61935276069931e-03
1.25517857142857e+00 2.21455946685989e-01 1.61700646470161e-03
1.26696428571429e+00 2.20094400860594e-01 1.61459238052144e-03
1.27875000000000e+00 2.18741226036546e-01 1.61211213837040e-03
1.29053571428571e+00 2.17396370737194e-01 1.60956733259029e-03
1.30232142857143e+00 2.16059783823129e-01 1.60695952229042e-03
1.31410714285714e+00 2.14731414448874e-01 1.60429023268458e-03
1.32589285714286e+00 2.13411212101766e-01 1.60156095276422e-03
1.33767857142857e+00 2.12099126569459e-01 1.59877314817627e-03
1.34946428571429e+00 2.10795107938883e-01 1.59592824436090e-03
1.36125000000000e+00 2.09499106623003e-01 1.59302763906127e-03
1.37303571428571e+00 2.08211073320737e-01 1.59007270046427e-03
1.38482142857143e+00 2.06930959052784e-01 1.58706476764103e-03
1.39660714285714e+00 2.05658715122546e-01 1.58400515163763e-03
1.40839285714286e+00 2.04394293151011e-01 1.58089513317535e-03
1.42017857142857e+00 2.03137645047394e-01 1.57773597448023e-03
1.43196428571429e+00 2.01888723008056e-01 1.57452890348848e-03
1.44375000000000e+00 2.00647479540554e-01 1.57127512534918e-03
1.45553571428571e+00 1.99413867427360e-01 1.56797582057875e-03
1.46732142857143e+00 1.98187839758109e-01 1.56463214536272e-03
1.47910714285714e+00 1.96969349894194e-01 1.56124523246114e-03
1.49089285714286e+00 1.95758351500196e-01 1.55781618896900e-03
1.50267857142857e+00 1.94554798517246e-01 1.55434610722854e-03
1.51446428571429e+00 1.93358645161933e-01 1.55083605003571e-03
1.52625000000000e+00 1.92169845947983e-01 1.54728706125884e-03
1.53803571428571e+00 1.90988355653314e-01 1.54370016403494e-03
1.54982142857143e+00 1.89814129349153e-01 1.54007636097160e-03
1.56160714285714e+00 1.88647122367865e-01 1.53641663491023e-03
1.57339285714286e+00 1.87487290331344e-01 1.53272194676619e-03
1.58517857142857e+00 1.86334589126788e-01 1.52899324562826e-03
1.59696428571429e+00 1.85188974905588e-01 1.52523145490007e-03
1.60875000000000e+00 1.84050404102941e-01 1.52143748213413e-03
1.62053571428571e+00 1.82918833407841e-01 1.51761221728574e-03
1.63232142857143e+00 1.81794219789440e-01 1.51375653284307e-03
1.64410714285714e+00 1.80676520467739e-01 1.50987128447946e-03
1.65589285714286e+00 1.79565692939308e-01 1.50595730898274e-03
1.66767857142857e+00 1.78461694955181e-01 1.50201543362874e-03
1.67946428571429e+00 1.77364484519754e-01 1.49804646319335e-03
1.69125000000000e+00 1.76274019908560e-01 1.49405118908347e-03
1.70303571428571e+00 1.75190259640870e-01 1.49003038765838e-03
1.71482142857143e+00 1.74113162503627e-01 1.48598482030750e-03
1.72660714285714e+00 1.73042687524661e-01 1.48191523401417e-03
1.73839285714286e+00 1.71978793996059e-01 1.47782235937915e-03
1.75017857142857e+00 1.70921441453939e-01 1.47370691934007e-03
1.76196428571429e+00 1.69870589677365e-01 1.46956961699332e-03
1.77375000000000e+00 1.68826198704496e-01 1.46541114409118e-03
1.78553571428571e+00 1.67788228807503e-01 1.46123217943557e-03
1.79732142857143e+00 1.66756640514359e-01 1.45703338891706e-03
1.80910714285714e+00 1.65731394584299e-01 1.45281542600689e-03
1.82089285714286e+00 1.64712452029102e-01 1.44857892987651e-03
1.83267857142857e+00 1.63699774094551e-01 1.44432453352448e-03
1.84446428571429e+00 1.62693322259354e-01 1.44005285235064e-03
1.85625000000000e+00 1.61693058249861e-01 1.43576449207836e-03
1.86803571428571e+00 1.60698944017046e-01 1.43146004722282e-03
1.87982142857143e+00 1.59710941756385e-01 1.42714010110156e-03
1.89160714285714e+00 1.58729013885327e-01 1.42280522626752e-03
1.90339285714286e+00 1.57753123062723e-01 1.41845598272320e-03
1.91517857142857e+00 1.56783232171781e-01 1.41409292550817e-03
1.92696428571429e+00 1.55819304319009e-01 1.40971659397318e-03
1.93875000000000e+00 1.54861302847651e-01 1.40532751917809e-03
1.95053571428571e+00 1.53909191316523e-01 1.40092622243450e-03
1.96232142857143e+00 1.52962933518176e-01 1.39651321529505e-03
1.97410714285714e+00 1.52022493458189e-01 1.39208899993785e-03
1.98589285714286e+00 1.51087835372917e-01 1.38765406747313e-03
1.99767857142857e+00 1.50158923713808e-01 1.38320890503704e-03
2.00946428571429e+00 1.49235723146372e-01 1.37875398571666e-03
2.02125000000000e+00 1.48318198562452e-01 1.37428977546852e-03
2.03303571428571e+00 1.47406315060749e-01 1.36981673173403e-03
2.04482142857143e+00 1.46500037963438e-01 1.36533530341340e-03
2.05660714285714e+00 1.45599332797097e-01 1.36084593120885e-03
2.06839285714286e+00 1.44704165308962e-01 1.35634904602039e-03
2.08017857142857e+00 1.43814501452461e-01 1.35184507558682e-03
2.09196428571429e+00 1.42930307386207e-01 1.34733443501676e-03
2.10375000000000e+00 1.42051549485243e-01 1.34281753326672e-03
2.11553571428571e+00 1.41178194323061e-01 1.33829477182689e-03
2.12732142857143e+00 1.40310208686861e-01 1.33376654468403e-03
2.13910714285714e+00 1.39447559559930e-01 1.32923323862982e-03
2.15089285714286e+00 1.38590214136570e-01 1.32469523174221e-03
2.16267857142857e+00 1.37738139808728e-01 1.32015289960953e-03
2.17446428571429e+00 1.36891304165017e-01 1.31560660642535e-03
2.18625000000000e+00 1.36049675001026e-01 1.31105671106110e-03
2.19803571428571e+00 1.35213220302715e-01 1.30650356582028e-03
2.20982142857143e+00 1.34381908260421e-01 1.30194751639315e-03
2.22160714285714e+00 1.33555707252579e-01 1.29738890213507e-03
2.23339285714286e+00 1.32734585859434e-01 1.29282805462920e-03
2.24517857142857e+00 1.31918512850670e-01 1.28826530352583e-03
2.25696428571429e+00 1.31107457184463e-01 1.28370096816358e-03
2.26875000000000e+00 1.30301388016949e-01 1.27913536326712e-03
2.28053571428571e+00 1.29500274686856e-01 1.27456879776672e-03
2.29232142857143e+00 1.28704086728393e-01 1.27000157474717e-03
2.30410714285714e+00 1.27912793856179e-01 1.26543399170026e-03
2.31589285714286e+00 1.27126365977858e-01 1.26086633916513e-03
2.32767857142857e+00 1.26344773182643e-01 1.25629890621142e-03
2.33946428571429e+00 1.25567985740390e-01 1.25173197255112e-03
2.35125000000000e+00 1.24795974110310e-01 1.24716581388964e-03
2.36303571428571e+00 1.24028708926732e-01 1.24260070080756e-03
2.37482142857143e+00 1.23266161010968e-01 1.23803689870586e-03
2.38660714285714e+00 1.22508301357353e-01 1.23347466803580e-03
2.39839285714286e+00 1.21755101144859e-01 1.22891426301253e-03
2.41017857142857e+00 1.21006531726474e-01 1.22435593676841e-03
2.42196428571429e+00 1.20262564628303e-01 1.21979993392295e-03
2.43375000000000e+00 1.19523171557588e-01 1.21524649561221e-03
2.44553571428571e+00 1.18788324389505e-01 1.21069585843000e-03
2.45732142857143e+00 1.18057995178100e-01 1.20614825437054e-03
2.46910714285714e+00 1.17332156143339e-01 1.20160391103842e-03
2.48089285714286e+00 1.16610779681822e-01 1.19706305043207e-03
2.49267857142857e+00 1.15893838356917e-01 1.19252589379021e-03
2.50446428571429e+00 1.15181304897883e-01 1.18799265459003e-03
2.51625000000000e+00 1.14473152207278e-01 1.18346354327793e-03
2.52803571428571e+00 1.13769353348683e-01 1.17893876626690e-03
2.53982142857143e+00 1.13069881556806e-01 1.17441852587790e-03
2.55160714285714e+00 1.12374710225450e-01 1.16990302053193e-03
2.56339285714286e+00 1.11683812917407e-01 1.16539244359969e-03
2.57517857142857e+00 1.10997163355280e-01 1.16088698796292e-03
2.58696428571429e+00 1.10314735420643e-01 1.15638683941254e-03
2.59875000000000e+00 1.09636503160872e-01 1.15189218110163e-03
2.61053571428571e+00 1.08962440777733e-01 1.14740319259616e-03
2.62232142857143e+00 1.08292522636723e-01 1.14292004981570e-03
2.63410714285714e+00 1.07626723255872e-01 1.13844292521007e-03
2.64589285714286e+00 1.06965017314902e-01 1.13397198667105e-03
2.65767857142857e+00 1.06307379646673e-01 1.12950740182795e-03
2.66946428571429e+00 1.05653785236378e-01 1.12504933182068e-03
2.68125000000000e+00 1.05004209227847e-01 1.12059793549353e-03
2.69303571428571e+00 1.04358626912936e-01 1.11615336849639e-03
2.70482142857143e+00 1.03717013740157e-01 1.11171578322567e-03
2.71660714285714e+00 1.03079345304266e-01 1.10728532898688e-03
2.72839285714286e+00 1.02445597354726e-01 1.10286215096509e-03
2.74017857142857e+00 1.01815745787745e-01 1.09844639427267e-03
2.75196428571429e+00 1.01189766645497e-01 1.09403819807321e-03
2.76375000000000e+00 1.00567636121951e-01 1.08963769953379e-03
2.77553571428571e+00 9.99493305529821e-02 1.08524503297382e-03
2.78732142857143e+00 9.93348264243710e-02 1.08086032980646e-03
2.79910714285714e+00 9.87241003620946e-02 1.07648371868886e-03
2.81089285714286e+00 9.81171291401681e-02 1.07211532454800e-03
2.82267857142857e+00 9.75138896732207e-02 1.06775527239693e-03
2.83446428571429e+00 9.69143590157403e-02 1.06340368178757e-03
2.84625000000000e+00 9.63185143674707e-02 1.05906067053719e-03
2.85803571428571e+00 9.57263330641911e-02 1.05472635392246e-03
2.86982142857143e+00 9.51377925851290e-02 1.05040084462179e-03
2.88160714285714e+00 9.45528705439062e-02 1.04608425285424e-03
2.89339285714286e+00 9.39715446958085e-02 1.04177668545771e-03
2.90517857142857e+00 9.33937929308548e-02 1.03747824948896e-03
2.91696428571429e+00 9.28195932730700e-02 1.03318904698434e-03
2.92875000000000e+00 9.22489238854834e-02 1.02890917847548e-03
2.94053571428571e+00 9.16817630615248e-02 1.02463874222628e-03
2.95232142857143e+00 9.11180892318999e-02 1.02037783417603e-03
2.96410714285714e+00 9.05578809561408e-02 1.01612654806839e-03
2.97589285714286e+00 9.00011169293488e-02 1.01188497457881e-03
2.98767857142857e+00 8.94477759757215e-02 1.00765320471174e-03
2.99946428571429e+00 8.88978370478507e-02 1.00343132485130e-03
3.01125000000000e+00 8.83512792313566e-02 9.99219420079284e-04
3.02303571428571e+00 8.78080817368522e-02 9.95017573452162e-04
3.03482142857143e+00 8.72682239063255e-02 9.90825865945872e-04
3.04660714285714e+00 8.67316852052474e-02 9.86644376575526e-04
3.05839285714286e+00 8.61984452288316e-02 9.82473181569195e-04
3.07017857142857e+00 8.56684836959837e-02 9.78312357575628e-04
3.08196428571429e+00 8.51417804486244e-02 9.74161976986627e-04
3.09375000000000e+00 8.46183154559889e-02 9.70022111069783e-04
3.10553571428571e+00 8.40980688071162e-02 9.65892829283842e-04
3.11732142857143e+00 8.35810207167787e-02 9.61774199224978e-04
3.12910714285714e+00 8.30671515181039e-02 9.57666286737981e-04
3.14089285714286e+00 8.25564416683920e-02 9.53569155133985e-04
3.15267857142857e+00 8.20488717434533e-02 9.49482868220236e-04
3.16446428571429e+00 8.15444224369583e-02 9.45407485878108e-04
3.17625000000000e+00 8.10430745644272e-02 9.41343067022133e-04
3.18803571428571e+00 8.05448090562061e-02 9.37289668951225e-04
3.19982142857143e+00 8.00496069629796e-02 9.33247347296788e-04
3.21160714285714e+00 7.95574494488682e-02 9.29216156126004e-04
3.22339285714286e+00 7.90683177968380e-02 9.25196147201279e-04
3.23517857142857e+00 7.85821934033990e-02 9.21187372843004e-04
3.24696428571429e+00 7.80990577779793e-02 9.17189881747439e-04
3.25875000000000e+00 7.76188925466316e-02 9.13203721783113e-04
3.27053571428571e+00 7.71416794454592e-02 9.09228939376128e-04
3.28232142857143e+00 7.66674003257438e-02 9.05265579459754e-04
3.29410714285714e+00 7.61960371474849e-02 9.01313685570931e-04
3.30589285714286e+00 7.57275719844324e-02 8.97373299148530e-04
3.31767857142857e+00 7.52619870191203e-02 8.93444462239437e-04
3.32946428571429e+00 7.47992645422641e-02 8.89527213542537e-04
3.34125000000000e+00 7.43393869562063e-02 8.85621591052044e-04
3.35303571428571e+00 7.38823367687593e-02 8.81727631474867e-04
3.36482142857143e+00 7.34280965979792e-02 8.77845370181954e-04
3.37660714285714e+00 7.29766491661140e-02 8.73974841298366e-04
3.38839285714286e+00 7.25279773042893e-02 8.70116077038445e-04
3.40017857142857e+00 7.20820639478521e-02 8.66269110264684e-04
3.41196428571429e+00 7.16388921357920e-02 8.62433970744316e-04
3.42375000000000e+00 7.11984450139448e-02 8.58610687648834e-04
3.43553571428571e+00 7.07607058292234e-02 8.54799289001659e-04
3.44732142857143e+00 7.03256579340641e-02 8.50999801631381e-04
3.45910714285714e+00 6.98932847807544e-02 8.47212251255808e-04
3.47089285714286e+00 6.94635699257980e-02 8.43436661851945e-04
3.48267857142857e+00 6.90364970255479e-02 8.39673058076561e-04
3.49446428571429e+00 6.86120498356487e-02 8.35921461722803e-04
3.50625000000000e+00 6.81902122140193e-02 8.32181894084498e-04
3.51803571428571e+00 6.77709681154423e-02 8.28454375432859e-04
3.52982142857143e+00 6.73543015957078e-02 8.24738924971064e-04
3.54160714285714e+00 6.69401968062954e-02 8.21035560913005e-04
3.55339285714286e+00 6.65286379984413e-02 8.17344299886379e-04
3.56517857142857e+00 6.61196095190408e-02 8.13665159222618e-04
3.57696428571429e+00 6.57130958101117e-02 8.09998153602273e-04
3.58875000000000e+00 6.53090814115716e-02 8.06343297292283e-04
3.60053571428571e+00 6.49075509561618e-02 8.02700603649479e-04
3.61232142857143e+00 6.45084891733116e-02 7.99070085077219e-04
3.62410714285714e+00 6.41118808841477e-02 7.95451753098965e-04
3.63589285714286e+00 6.37177110052883e-02 7.91845617792255e-04
3.64767857142857e+00 6.33259645449943e-02 7.88251689956353e-04
3.65946428571429e+00 6.29366266026543e-02 7.84669977935220e-04
3.67125000000000e+00 6.25496823713715e-02 7.81100489734983e-04
3.68303571428571e+00 6.21651171331989e-02 7.77543232553264e-04
3.69482142857143e+00 6.17829162627450e-02 7.73998212737398e-04
3.70660714285714e+00 6.14030652224881e-02 7.70465435853275e-04
3.71839285714286e+00 6.10255495663170e-02 7.66944906148879e-04
