Energy (eV)          EEDF (eV^-(3/2))     First Anisotropy
1.93965517241379e-02 6.74518280978105e-02 3.31882991015021e-05
5.81896551724138e-02 6.70521715340850e-02 5.48252701288419e-05
9.69827586206897e-02 6.66548829617817e-02 7.24337555855861e-05
1.35775862068966e-01 6.62599483516443e-02 8.58465386058959e-05
1.74568965517241e-01 6.58673537537440e-02 9.70623748928357e-05
2.13362068965517e-01 6.54770853059917e-02 1.06835919992911e-04
2.52155172413793e-01 6.50891292237202e-02 1.15557195166125e-04
2.90948275862069e-01 6.47034718077827e-02 1.23461420285153e-04
3.29741379310345e-01 6.43200994369272e-02 1.30704399200220e-04
3.68534482758621e-01 6.39389985734416e-02 1.37396111572571e-04
4.07327586206897e-01 6.35601557582995e-02 1.43617867731138e-04
4.46120689655172e-01 6.31835576115126e-02 1.49431941830095e-04
4.84913793103448e-01 6.28091908341223e-02 1.54887377605033e-04
5.23706896551724e-01 6.24370422043472e-02 1.60023682956086e-04
5.62500000000000e-01 6.20670985802459e-02 1.64873286157096e-04
6.01293103448276e-01 6.16993468963424e-02 1.69463228234378e-04
6.40086206896552e-01 6.13337741658835e-02 1.73816364338831e-04
6.78879310344828e-01 6.09703674778330e-02 1.77952238528230e-04
7.17672413793103e-01 6.06091139988105e-02 1.81887734725182e-04
7.56465517241379e-01 6.02500009703809e-02 1.85637570455780e-04
7.95258620689655e-01 5.98930157107363e-02 1.89214677516540e-04
8.34051724137931e-01 5.95381456126676e-02 1.92630500208103e-04
8.72844827586207e-01 5.91853781432813e-02 1.95895231274059e-04
9.11637931034483e-01 5.88347008447700e-02 1.99018001755364e-04
9.50431034482759e-01 5.84861013323464e-02 2.02007034728625e-04
9.89224137931034e-01 5.81395672953640e-02 2.04869771238922e-04
1.02801724137931e+00 5.77950864953876e-02 2.07612974224543e-04
1.06681034482759e+00 5.74526467681443e-02 2.10242815898631e-04
1.10560344827586e+00 5.71122360169582e-02 2.12764949181312e-04
1.14439655172414e+00 5.67738422231976e-02 2.15184569694804e-04
1.18318965517241e+00 5.64374534361185e-02 2.17506469615662e-04
1.22198275862069e+00 5.61030577731134e-02 2.19735079530958e-04
1.26077586206897e+00 5.57706434276015e-02 2.21874508323255e-04
1.29956896551724e+00 5.54401986600384e-02 2.23928577693063e-04
1.33836206896552e+00 5.51117117980342e-02 2.25900848376097e-04
1.37715517241379e+00 5.47851712433757e-02 2.27794646669885e-04
1.41594827586207e+00 5.44605654639781e-02 2.29613087718044e-04
1.45474137931034e+00 5.41378829939091e-02 2.31359092442267e-04
1.49353448275862e+00 5.38171124396883e-02 2.33035405937010e-04
1.53232758620690e+00 5.34982424730192e-02 2.34644613808921e-04
1.57112068965517e+00 5.31812618307446e-02 2.36189153347841e-04
1.60991379310345e+00 5.28661593205345e-02 2.37671326748327e-04
1.64870689655172e+00 5.25529238142764e-02 2.39093312975344e-04
1.68750000000000e+00 5.22415442479780e-02 2.40457175228743e-04
1.72629310344828e+00 5.19320096269330e-02 2.41764871089812e-04
1.76508620689655e+00 5.16243090179229e-02 2.43018260034000e-04
1.80387931034483e+00 5.13184315560900e-02 2.44219110146241e-04
1.84267241379310e+00 5.10143664391214e-02 2.45369105932821e-04
1.88146551724138e+00 5.07121029271059e-02 2.46469852112482e-04
1.92025862068966e+00 5.04116303470550e-02 2.47522879962887e-04
1.95905172413793e+00 5.01129380875372e-02 2.48529653134892e-04
1.99784482758621e+00 4.98160155985169e-02 2.49491570139604e-04
2.03663793103448e+00 4.95208523955001e-02 2.50409969387386e-04
2.07543103448276e+00 4.92274380545633e-02 2.51286133829624e-04
2.11422413793103e+00 4.89357622121778e-02 2.52121292529876e-04
2.15301724137931e+00 4.86458145690263e-02 2.52916624748361e-04
2.19181034482759e+00 4.83575848853795e-02 2.53673263722012e-04
2.23060344827586e+00 4.80710629809093e-02 2.54392297582556e-04
2.26939655172414e+00 4.77862387382133e-02 2.55074772729529e-04
2.30818965517241e+00 4.75031020985014e-02 2.55721696964188e-04
2.34698275862069e+00 4.72216430613998e-02 2.56334039936361e-04
2.38577586206897e+00 4.69418516882146e-02 2.56912735976253e-04
2.42456896551724e+00 4.66637180978993e-02 2.57458686736224e-04
2.46336206896552e+00 4.63872324668457e-02 2.57972761294208e-04
2.50215517241379e+00 4.61123850319185e-02 2.58455798566145e-04
2.54094827586207e+00 4.58391660866733e-02 2.58908609566657e-04
2.57974137931034e+00 4.55675659811378e-02 2.59331977260442e-04
2.61853448275862e+00 4.52975751246394e-02 2.59726658645417e-04
2.65732758620690e+00 4.50291839822504e-02 2.60093386713028e-04
2.69612068965517e+00 4.47623830745606e-02 2.60432870114087e-04
2.73491379310345e+00 4.44971629803185e-02 2.60745794979598e-04
2.77370689655172e+00 4.42335143330816e-02 2.61032826640979e-04
2.81250000000000e+00 4.39714278209836e-02 2.61294609159257e-04
2.85129310344828e+00 4.37108941892050e-02 2.61531767158030e-04
2.89008620689655e+00 4.34519042359153e-02 2.61744906451876e-04
2.92887931034483e+00 4.31944488156245e-02 2.61934614596627e-04
2.96767241379310e+00 4.29385188361069e-02 2.62101462548681e-04
3.00646551724138e+00 4.26841052581662e-02 2.62246004028964e-04
3.04525862068966e+00 4.24311990978779e-02 2.62368776868703e-04
3.08405172413793e+00 4.21797914236776e-02 2.62470304289213e-04
3.12284482758621e+00 4.19298733561252e-02 2.62551094208227e-04
3.16163793103448e+00 4.16814360700106e-02 2.62611640459206e-04
3.20043103448276e+00 4.14344707915914e-02 2.62652423952125e-04
3.23922413793103e+00 4.11889687983581e-02 2.62673911939287e-04
3.27801724137931e+00 4.09449214210134e-02 2.62676559128136e-04
3.31681034482759e+00 4.07023200408482e-02 2.62660808741489e-04
3.35560344827586e+00 4.04611560895079e-02 2.62627091755983e-04
3.39439655172414e+00 4.02214210508554e-02 2.62575827924274e-04
3.43318965517241e+00 3.99831064584754e-02 2.62507426749504e-04
3.47198275862069e+00 3.97462038954419e-02 2.62422286706518e-04
3.51077586206897e+00 3.95107049960739e-02 2.62320796185858e-04
3.54956896551724e+00 3.92766014435594e-02 2.62203334394996e-04
3.58836206896552e+00 3.90438849697229e-02 2.62070270570087e-04
3.62715517241379e+00 3.88125473566826e-02 2.61921964851674e-04
3.66594827586207e+00 3.85825804345865e-02 2.61758769122764e-04
3.70474137931034e+00 3.83539760813792e-02 2.61581026216996e-04
3.74353448275862e+00 3.81267262243685e-02 2.61389070734771e-04
3.78232758620690e+00 3.79008228380653e-02 2.61183229826078e-04
3.82112068965517e+00 3.76762579439508e-02 2.60963822399739e-04
3.85991379310345e+00 3.74530236119585e-02 2.60731159887067e-04
3.89870689655172e+00 3.72311119584114e-02 2.60485546976094e-04
3.93750000000000e+00 3.70105151457891e-02 2.60227280825432e-04
3.97629310344828e+00 3.67912253841327e-02 2.59956651941272e-04
4.01508620689655e+00 3.65732349285291e-02 2.59673944228306e-04
4.05387931034483e+00 3.63565360810508e-02 2.59379435010968e-04
4.09267241379310e+00 3.61411211888264e-02 2.59073395869658e-04
4.13146551724138e+00 3.59269826438124e-02 2.58756091861175e-04
4.17025862068966e+00 3.57141128840884e-02 2.58427782173590e-04
4.20905172413793e+00 3.55025043920102e-02 2.58088720757578e-04
4.24784482758621e+00 3.52921496939837e-02 2.57739155557945e-04
4.28663793103448e+00 3.50830413616942e-02 2.57379329134257e-04
4.32543103448276e+00 3.48751720103348e-02 2.57009479259015e-04
4.36422413793103e+00 3.46685342983843e-02 2.56629838161579e-04
4.40301724137931e+00 3.44631209287733e-02 2.56240633117765e-04
4.44181034482759e+00 3.42589246471854e-02 2.55842087017949e-04
4.48060344827586e+00 3.40559382418375e-02 2.55434417624392e-04
4.51939655172414e+00 3.38541545445874e-02 2.55017838132645e-04
4.55818965517241e+00 3.36535664293034e-02 2.54592557712198e-04
4.59698275862069e+00 3.34541668116468e-02 2.54158780777951e-04
4.63577586206897e+00 3.32559486501256e-02 2.53716707525568e-04
4.67456896551724e+00 3.30589049445277e-02 2.53266534447313e-04
4.71336206896552e+00 3.28630287357064e-02 2.52808453618247e-04
4.75215517241379e+00 3.26683131065823e-02 2.52342653207243e-04
4.79094827586207e+00 3.24747511806381e-02 2.51869317970285e-04
4.82974137931035e+00 3.22823361217060e-02 2.51388628551579e-04
4.86853448275862e+00 3.20910611349217e-02 2.50900761972161e-04
4.90732758620690e+00 3.19009194652770e-02 2.50405892102469e-04
4.94612068965517e+00 3.17119043974092e-02 2.49904188978437e-04
4.98491379310345e+00 3.15240092565103e-02 2.49395819269421e-04
5.02370689655172e+00 3.13372274069340e-02 2.48880946731505e-04
5.06250000000000e+00 3.11515522519876e-02 2.48359731538703e-04
5.10129310344828e+00 3.09669772347985e-02 2.47832330850526e-04
5.14008620689655e+00 3.07834958366174e-02 2.47298898771325e-04
5.17887931034483e+00 3.06011015780378e-02 2.46759586291400e-04
5.21767241379310e+00 3.04197880176811e-02 2.46214541837560e-04
5.25646551724138e+00 3.02395487519933e-02 2.45663910625399e-04
5.29525862068966e+00 3.00603774160514e-02 2.45107835081309e-04
5.33405172413793e+00 2.98822676822967e-02 2.44546455251914e-04
5.37284482758621e+00 2.97052132603341e-02 2.43979908171536e-04
5.41163793103448e+00 2.95292078977018e-02 2.43408328268471e-04
5.45043103448276e+00 2.93542453786497e-02 2.42831847758911e-04
5.48922413793103e+00 2.91803195239419e-02 2.42250596029374e-04
5.52801724137931e+00 2.90074241915909e-02 2.41664700028233e-04
5.56681034482759e+00 2.88355532756796e-02 2.41074284645127e-04
5.60560344827586e+00 2.86647007061663e-02 2.40479472108067e-04
5.64439655172414e+00 2.84948604495866e-02 2.39880382361134e-04
5.68318965517241e+00 2.83260265079154e-02 2.39277133430169e-04
5.72198275862069e+00 2.81581929183755e-02 2.38669840834439e-04
5.76077586206897e+00 2.79913537541081e-02 2.38058617951045e-04
5.79956896551724e+00 2.78255031230738e-02 2.37443576367916e-04
5.83836206896552e+00 2.76606351678643e-02 2.36824825309711e-04
5.87715517241379e+00 2.74967440663427e-02 2.36202471989505e-04
5.91594827586207e+00 2.73338240305828e-02 2.35576621949934e-04
5.95474137931035e+00 2.71718693066828e-02 2.34947378503027e-04
5.99353448275862e+00 2.70108741753779e-02 2.34314843069838e-04
6.03232758620690e+00 2.68508329510151e-02 2.33679115510324e-04
6.07112068965517e+00 2.66917399813699e-02 2.33040293576855e-04
6.10991379310345e+00 2.65335896482320e-02 2.32398473242425e-04
6.14870689655172e+00 2.63763763664147e-02 2.31753749019792e-04
6.18750000000000e+00 2.62200945835737e-02 2.31106213428383e-04
6.22629310344828e+00 2.60647387807679e-02 2.30455957402220e-04
6.26508620689655e+00 2.59103034712560e-02 2.29803070236089e-04
6.30387931034483e+00 2.57567832013014e-02 2.29147639518837e-04
6.34267241379310e+00 2.56041725492313e-02 2.28489751531811e-04
6.38146551724138e+00 2.54524661252604e-02 2.27829490734707e-04
6.42025862068966e+00 2.53016585720154e-02 2.27166940067602e-04
6.45905172413793e+00 2.51517445636251e-02 2.26502181244929e-04
6.49784482758621e+00 2.50027188055464e-02 2.25835294253979e-04
6.53663793103448e+00 2.48545760350671e-02 2.25166357647602e-04
6.57543103448276e+00 2.47073110204246e-02 2.24495448828881e-04
6.61422413793103e+00 2.45609185606349e-02 2.23822643562052e-04
6.65301724137931e+00 2.44153934859743e-02 2.23148016256236e-04
6.69181034482759e+00 2.42707306571260e-02 2.22471640241306e-04
6.73060344827586e+00 2.41269249650119e-02 2.21793587290837e-04
6.76939655172414e+00 2.39839713312537e-02 2.21113927897279e-04
6.80818965517241e+00 2.38418647073469e-02 2.20432731539425e-04
6.84698275862069e+00 2.37006000744949e-02 2.19750066217057e-04
6.88577586206897e+00 2.35601724440512e-02 2.19065998717901e-04
6.92456896551724e+00 2.34205768567188e-02 2.18380594877093e-04
6.96336206896552e+00 2.32818083823873e-02 2.17693919123307e-04
7.00215517241379e+00 2.31438621205564e-02 2.17006034737644e-04
7.04094827586207e+00 2.30067331995605e-02 2.16317004105588e-04
7.07974137931035e+00 2.28704167764079e-02 2.15626888274274e-04
7.11853448275862e+00 2.27349080371873e-02 2.14935747203614e-04
7.15732758620690e+00 2.26002021963159e-02 2.14243640011040e-04
7.19612068965517e+00 2.24662944963813e-02 2.13550624539617e-04
7.23491379310345e+00 2.23331802085311e-02 2.12856757601809e-04
7.27370689655172e+00 2.22008546317445e-02 2.12162095217225e-04
7.31250000000000e+00 2.20693130926759e-02 2.11466692191302e-04
7.35129310344828e+00 2.19385509460291e-02 2.10770602422135e-04
7.39008620689655e+00 2.18085635736757e-02 2.10073878850440e-04
7.42887931034483e+00 2.16793463852026e-02 2.09376573399787e-04
7.46767241379310e+00 2.15508948172175e-02 2.08678737277361e-04
7.50646551724138e+00 2.14232043331974e-02 2.07980420567911e-04
7.54525862068966e+00 2.12962704238395e-02 2.07281672460298e-04
7.58405172413793e+00 2.11700886063872e-02 2.06582541468477e-04
7.62284482758621e+00 2.10446544244806e-02 2.05883075035369e-04
7.66163793103448e+00 2.09199634484944e-02 2.05183319753139e-04
7.70043103448276e+00 2.07960112748824e-02 2.04483321577909e-04
7.73922413793103e+00 2.06727935260319e-02 2.03783125443288e-04
7.77801724137931e+00 2.05503058505866e-02 2.03082775474589e-04
7.81681034482759e+00 2.04285439228114e-02 2.02382315197550e-04
7.85560344827586e+00 2.03075034424490e-02 2.01681787161259e-04
7.89439655172414e+00 2.01871801350294e-02 2.00981233146533e-04
7.93318965517241e+00 2.00675697512539e-02 2.00280694368857e-04
7.97198275862069e+00 1.99486680668531e-02 1.99580211110470e-04
8.01077586206897e+00 1.98304708828852e-02 1.98879822923008e-04
8.04956896551724e+00 1.97129740251369e-02 1.98179568824959e-04
8.08836206896552e+00 1.95961733439842e-02 1.97479486942681e-04
8.12715517241379e+00 1.94800647146788e-02 1.96779614707481e-04
8.16594827586207e+00 1.93646440367663e-02 1.96079989047816e-04
8.20474137931035e+00 1.92499072339488e-02 1.95380646038935e-04
8.24353448275862e+00 1.91358502543608e-02 1.94681621094599e-04
8.28232758620690e+00 1.90224690700030e-02 1.93982949154220e-04
8.32112068965517e+00 1.89097596766084e-02 1.93284664340922e-04
8.35991379310345e+00 1.87977180939060e-02 1.92586800148069e-04
8.39870689655172e+00 1.86863403650720e-02 1.91889389621514e-04
8.43750000000000e+00 1.85756225565967e-02 1.91192465025861e-04
8.47629310344828e+00 1.84655607585392e-02 1.90496058080974e-04
8.51508620689655e+00 1.83561510838650e-02 1.89800199919123e-04
8.55387931034483e+00 1.82473896688285e-02 1.89104921034575e-04
8.59267241379310e+00 1.81392726724471e-02 1.88410251515966e-04
8.63146551724138e+00 1.80317962763726e-02 1.87716220724552e-04
8.67025862068965e+00 1.79249566851301e-02 1.87022857468481e-04
8.70905172413793e+00 1.78187501256076e-02 1.86330190173114e-04
8.74784482758621e+00 1.77131728469290e-02 1.85638246566974e-04
8.78663793103448e+00 1.76082211206844e-02 1.84947053851534e-04
8.82543103448276e+00 1.75038912404329e-02 1.84256638867037e-04
8.86422413793104e+00 1.74001795215783e-02 1.83567027785930e-04
8.90301724137931e+00 1.72970823015904e-02 1.82878246278300e-04
8.94181034482759e+00 1.71945959395215e-02 1.82190319673379e-04
8.98060344827586e+00 1.70927168158842e-02 1.81503272660237e-04
9.01939655172414e+00 1.69914413328637e-02 1.80817129449027e-04
9.05818965517241e+00 1.68907659138484e-02 1.80131913928291e-04
9.09698275862069e+00 1.67906870033090e-02 1.79447649372729e-04
9.13577586206897e+00 1.66912010670030e-02 1.78764358600330e-04
9.17456896551724e+00 1.65923045915178e-02 1.78082064125651e-04
9.21336206896552e+00 1.64939940841519e-02 1.77400787874552e-04
9.25215517241379e+00 1.63962660731120e-02 1.76720551337257e-04
9.29094827586207e+00 1.62991171070677e-02 1.76041375717760e-04
9.32974137931035e+00 1.62025437550352e-02 1.75363281655308e-04
9.36853448275862e+00 1.61065426065668e-02 1.74686289373506e-04
9.40732758620690e+00 1.60111102713173e-02 1.74010418826044e-04
9.44612068965517e+00 1.59162433789302e-02 1.73335689424711e-04
9.48491379310345e+00 1.58219385792192e-02 1.72662120184665e-04
9.52370689655172e+00 1.57281925417469e-02 1.71989729866563e-04
9.56250000000000e+00 1.56350019557126e-02 1.71318536710958e-04
9.60129310344828e+00 1.55423635301268e-02 1.70648558623395e-04
9.64008620689655e+00 1.54502739933063e-02 1.69979813138739e-04
9.67887931034483e+00 1.53587300931441e-02 1.69312317379553e-04
9.71767241379310e+00 1.52677285967062e-02 1.68646088238171e-04
9.75646551724138e+00 1.51772662901214e-02 1.67981142120584e-04
9.79525862068965e+00 1.50873399787468e-02 1.67317495082580e-04
9.83405172413793e+00 1.49979464867743e-02 1.66655162963002e-04
9.87284482758621e+00 1.49090826571234e-02 1.65994161133605e-04
9.91163793103448e+00 1.48207453515996e-02 1.65334504631893e-04
9.95043103448276e+00 1.47329314505117e-02 1.64676208291046e-04
9.98922413793104e+00 1.46456378525661e-02 1.64019286535871e-04
1.00280172413793e+01 1.45588614749332e-02 1.63363753390854e-04
1.00668103448276e+01 1.44725992531347e-02 1.62709622648698e-04
1.01056034482759e+01 1.43868481407627e-02 1.62056907832980e-04
1.01443965517241e+01 1.43016051094593e-02 1.61405622121094e-04
1.01831896551724e+01 1.42168671488095e-02 1.60755778390097e-04
1.02219827586207e+01 1.41326312662358e-02 1.60107389221320e-04
1.02607758620690e+01 1.40488944868915e-02 1.59460466905062e-04
1.02995689655172e+01 1.39656538535563e-02 1.58815023444924e-04
1.03383620689655e+01 1.38829064265317e-02 1.58171070562219e-04
1.03771551724138e+01 1.38006492835369e-02 1.57528619700292e-04
1.04159482758621e+01 1.37188795196060e-02 1.56887682028728e-04
1.04547413793103e+01 1.36375942469852e-02 1.56248268447565e-04
1.04935344827586e+01 1.35567905950307e-02 1.55610389591407e-04
1.05323275862069e+01 1.34764657101076e-02 1.54974055833473e-04
1.05711206896552e+01 1.33966167554889e-02 1.54339277289588e-04
1.06099137931034e+01 1.33172409112556e-02 1.53706063822096e-04
1.06487068965517e+01 1.32383353741966e-02 1.53074425043760e-04
1.06875000000000e+01 1.31598973577104e-02 1.52444370670770e-04
1.07262931034483e+01 1.30819240909827e-02 1.51815909473995e-04
1.07650862068966e+01 1.30044128210701e-02 1.51189049986663e-04
1.08038793103448e+01 1.29273608106103e-02 1.50563801219053e-04
1.08426724137931e+01 1.28507653384601e-02 1.49940171591951e-04
1.08814655172414e+01 1.27746236995990e-02 1.49318169298554e-04
1.09202586206897e+01 1.26989332050343e-02 1.48697802307948e-04
1.09590517241379e+01 1.26236911817054e-02 1.48079078368551e-04
1.09978448275862e+01 1.25488949723902e-02 1.47462005011485e-04
1.10366379310345e+01 1.24745419356103e-02 1.46846589553869e-04
1.10754310344828e+01 1.24006294455388e-02 1.46232839102117e-04
1.11142241379310e+01 1.23271548919066e-02 1.45620760555153e-04
1.11530172413793e+01 1.22541156799107e-02 1.45010360607595e-04
1.11918103448276e+01 1.21815092301226e-02 1.44401645752877e-04
1.12306034482759e+01 1.21093329783970e-02 1.43794622286335e-04
1.12693965517241e+01 1.20375843757815e-02 1.43189296308305e-04
1.13081896551724e+01 1.19662608884260e-02 1.42585673727006e-04
1.13469827586207e+01 1.18953599974941e-02 1.41983760261475e-04
1.13857758620690e+01 1.18248791990734e-02 1.41383561444588e-04
1.14245689655172e+01 1.17548160040875e-02 1.40785082625880e-04
1.14633620689655e+01 1.16851679382079e-02 1.40188328974365e-04
1.15021551724138e+01 1.16159325417667e-02 1.39593305481295e-04
1.15409482758621e+01 1.15471073696696e-02 1.39000016962903e-04
1.15797413793103e+01 1.14786899913099e-02 1.38408468063122e-04
1.16185344827586e+01 1.14106779904821e-02 1.37818663256221e-04
1.16573275862069e+01 1.13430689652971e-02 1.37230606849442e-04
1.16961206896552e+01 1.12758605280971e-02 1.36644302985579e-04
1.17349137931034e+01 1.12090503053712e-02 1.36059755645518e-04
1.17737068965517e+01 1.11426359376720e-02 1.35476968650747e-04
1.18125000000000e+01 1.10766150795318e-02 1.34895945945443e-04
1.18512931034483e+01 1.10109853988291e-02 1.34316690756241e-04
1.18900862068966e+01 1.09457445783673e-02 1.33739206158198e-04
1.19288793103448e+01 1.08808903141232e-02 1.33163495646459e-04
1.19676724137931e+01 1.08164203157251e-02 1.32589562281897e-04
1.20064655172414e+01 1.07523323063721e-02 1.32017408980303e-04
1.20452586206897e+01 1.06886240227533e-02 1.31447038514653e-04
1.20840517241379e+01 1.06252932149682e-02 1.30878453517325e-04
1.21228448275862e+01 1.05623376464470e-02 1.30311656482310e-04
1.21616379310345e+01 1.04997550938717e-02 1.29746649767392e-04
1.22004310344828e+01 1.04375433470979e-02 1.29183435596270e-04
1.22392241379310e+01 1.03757002090761e-02 1.28622016060681e-04
