Energy (eV)          EEDF (eV^-(3/2))     First Anisotropy
4.70454545454545e-04 1.47678883210920e+01 6.32497573940850e-03
1.41136363636364e-03 1.46907854153633e+01 1.04522061180690e-02
2.35227272727273e-03 1.46140850626696e+01 1.38189702494096e-02
3.29318181818182e-03 1.45377851612684e+01 1.63894719004698e-02
4.23409090909091e-03 1.44618836204145e+01 1.85438786800071e-02
5.17500000000000e-03 1.43863783602753e+01 2.04255825282923e-02
6.11590909090909e-03 1.43112673117617e+01 2.21086203490969e-02
7.05681818181818e-03 1.42365484168348e+01 2.36376017654989e-02
7.99772727272727e-03 1.41622196280619e+01 2.50420478380914e-02
8.93863636363636e-03 1.40882789087016e+01 2.63427779336966e-02
9.87954545454546e-03 1.40147242326476e+01 2.75551700956075e-02
1.08204545454545e-02 1.39415535843725e+01 2.86909913563054e-02
1.17613636363636e-02 1.38687649588136e+01 2.97595002863090e-02
1.27022727272727e-02 1.37963563614457e+01 3.07681484331771e-02
1.36431818181818e-02 1.37243258081549e+01 3.17230464861811e-02
1.45840909090909e-02 1.36526713251850e+01 3.26292853392322e-02
1.55250000000000e-02 1.35813909490833e+01 3.34911638967662e-02
1.64659090909091e-02 1.35104827270286e+01 3.43123550282571e-02
1.74068181818182e-02 1.34399447156123e+01 3.50960288585984e-02
1.83477272727273e-02 1.33697749819751e+01 3.58449462275213e-02
1.92886363636364e-02 1.32999716033485e+01 3.65615309103381e-02
2.02295454545455e-02 1.32305326670021e+01 3.72479259903398e-02
2.11704545454545e-02 1.31614562701915e+01 3.79060385775927e-02
2.21113636363636e-02 1.30927405201046e+01 3.85375756793143e-02
2.30522727272727e-02 1.30243835338132e+01 3.91440732821382e-02
2.39931818181818e-02 1.29563834382193e+01 3.97269201604541e-02
2.49340909090909e-02 1.28887383700043e+01 4.02873775392922e-02
2.58750000000000e-02 1.28214464755777e+01 4.08265954383864e-02
2.68159090909091e-02 1.27545059112441e+01 4.13456264892164e-02
2.77568181818182e-02 1.26879148424907e+01 4.18454374768838e-02
2.86977272727273e-02 1.26216714446083e+01 4.23269191436707e-02
2.96386363636364e-02 1.25557739024145e+01 4.27908947032975e-02
3.05795454545455e-02 1.24902204102037e+01 4.32381270591980e-02
3.15204545454545e-02 1.24250091716976e+01 4.36693250667680e-02
3.24613636363636e-02 1.23601383999957e+01 4.40851489703759e-02
3.34022727272727e-02 1.22956063175274e+01 4.44862151455632e-02
3.43431818181818e-02 1.22314111560027e+01 4.48731002527397e-02
3.52840909090909e-02 1.21675511563637e+01 4.52463448894109e-02
3.62250000000000e-02 1.21040245687366e+01 4.56064567917608e-02
3.71659090909091e-02 1.20408296525306e+01 4.59539137569422e-02
3.81068181818182e-02 1.19779646759442e+01 4.62891661355588e-02
3.90477272727273e-02 1.19154279163687e+01 4.66126390496619e-02
3.99886363636364e-02 1.18532176601892e+01 4.69247344836859e-02
4.09295454545455e-02 1.17913322027375e+01 4.72258330760977e-02
4.18704545454545e-02 1.17297698482453e+01 4.75162957510283e-02
4.28113636363636e-02 1.16685289097977e+01 4.77964651891248e-02
4.37522727272727e-02 1.16076077092872e+01 4.80666671570300e-02
4.46931818181818e-02 1.15470045773678e+01 4.83272117119320e-02
4.56340909090909e-02 1.14867178534092e+01 4.85783942950751e-02
4.65750000000000e-02 1.14267458854509e+01 4.88204967084462e-02
4.75159090909091e-02 1.13670870302660e+01 4.90537880777483e-02
4.84568181818182e-02 1.13077396529873e+01 4.92785256438763e-02
4.93977272727273e-02 1.12487021273942e+01 4.94949554845613e-02
5.03386363636364e-02 1.11899728357565e+01 4.97033132666374e-02
5.12795454545455e-02 1.11315501687903e+01 4.99038248663663e-02
5.22204545454545e-02 1.10734325256134e+01 5.00967069577246e-02
5.31613636363636e-02 1.10156183137018e+01 5.02821675545009e-02
5.41022727272727e-02 1.09581059488461e+01 5.04604065108213e-02
5.50431818181818e-02 1.09008938551082e+01 5.06316159839703e-02
5.59840909090909e-02 1.08439804647778e+01 5.07959808627885e-02
5.69250000000000e-02 1.07873642183295e+01 5.09536791491930e-02
5.78659090909091e-02 1.07310435644641e+01 5.11048823744833e-02
5.88068181818182e-02 1.06750169598124e+01 5.12497559102713e-02
5.97477272727273e-02 1.06192828691485e+01 5.13884592558087e-02
6.06886363636364e-02 1.05638397652620e+01 5.15211463836257e-02
6.16295454545455e-02 1.05086861289158e+01 5.16479660009097e-02
6.25704545454545e-02 1.04538204488050e+01 5.17690618088100e-02
6.35113636363636e-02 1.03992412215148e+01 5.18845727448591e-02
6.44522727272727e-02 1.03449469514799e+01 5.19946332099749e-02
6.53931818181818e-02 1.02909361509434e+01 5.20993732812828e-02
6.63340909090909e-02 1.02372073399159e+01 5.21989189116799e-02
6.72750000000000e-02 1.01837590461349e+01 5.22933921036027e-02
6.82159090909091e-02 1.01305898050919e+01 5.23829111264366e-02
6.91568181818182e-02 1.00776981597888e+01 5.24675906546019e-02
7.00977272727273e-02 1.00250826609031e+01 5.25475418959636e-02
7.10386363636364e-02 9.97274186667915e+00 5.26228727808084e-02
7.19795454545454e-02 9.92067434288842e+00 5.26936880866232e-02
7.29204545454545e-02 9.86887866279068e+00 5.27600895691494e-02
7.38613636363636e-02 9.81735340709449e+00 5.28221760861720e-02
7.48022727272727e-02 9.76609716391862e+00 5.28800437146213e-02
7.57431818181818e-02 9.71510852875327e+00 5.29337858614298e-02
7.66840909090909e-02 9.66438610442152e+00 5.29834933684735e-02
7.76250000000000e-02 9.61392850104110e+00 5.30292546000394e-02
7.85659090909091e-02 9.56373433604120e+00 5.30711555733993e-02
7.95068181818182e-02 9.51380223395869e+00 5.31092800240541e-02
8.04477272727273e-02 9.46413082656748e+00 5.31437094664208e-02
8.13886363636364e-02 9.41471875278499e+00 5.31745233114685e-02
8.23295454545454e-02 9.36556465863480e+00 5.32017989312539e-02
8.32704545454545e-02 9.31666719720959e+00 5.32256117320988e-02
8.42113636363636e-02 9.26802502863412e+00 5.32460352242207e-02
8.51522727272727e-02 9.21963682002872e+00 5.32631410881058e-02
8.60931818181818e-02 9.17150124547263e+00 5.32769992378267e-02
8.70340909090909e-02 9.12361698596772e+00 5.32876778813867e-02
8.79750000000000e-02 9.07598272940231e+00 5.32952435676871e-02
8.89159090909091e-02 9.02859717056101e+00 5.32997612736562e-02
8.98568181818182e-02 8.98145901095072e+00 5.33012944352895e-02
9.07977272727273e-02 8.93456695890420e+00 5.32999049762840e-02
9.17386363636364e-02 8.88791972949796e+00 5.32956533887337e-02
9.26795454545455e-02 8.84151604451709e+00 5.32885987681888e-02
9.36204545454545e-02 8.79535463242021e+00 5.32787988577301e-02
9.45613636363636e-02 8.74943422830457e+00 5.32663100901241e-02
9.55022727272727e-02 8.70375357387152e+00 5.32511876282592e-02
9.64431818181818e-02 8.65831141739196e+00 5.32334854039498e-02
9.73840909090909e-02 8.61310651367205e+00 5.32132561551088e-02
9.83250000000000e-02 8.56813762401907e+00 5.31905514519422e-02
9.92659090909091e-02 8.52340351624621e+00 5.31654217598787e-02
1.00206818181818e-01 8.47890296452195e+00 5.31379164813779e-02
1.01147727272727e-01 8.43463474934076e+00 5.31080838741898e-02
1.02088636363636e-01 8.39059765782956e+00 5.30759711865454e-02
1.03029545454545e-01 8.34679048329441e+00 5.30416247336085e-02
1.03970454545455e-01 8.30321202534152e+00 5.30050898205230e-02
1.04911363636364e-01 8.25986108984395e+00 5.29664108077971e-02
1.05852272727273e-01 8.21673648890973e+00 5.29256311373812e-02
1.06793181818182e-01 8.17383704084890e+00 5.28827933580157e-02
1.07734090909091e-01 8.13116157014111e+00 5.28379391493161e-02
1.08675000000000e-01 8.08870890740340e+00 5.27911094303613e-02
1.09615909090909e-01 8.04647788902794e+00 5.27423441248760e-02
1.10556818181818e-01 8.00446735814747e+00 5.26916823555465e-02
1.11497727272727e-01 7.96267616359948e+00 5.26391626383759e-02
1.12438636363636e-01 7.92110316023171e+00 5.25848226411305e-02
1.13379545454545e-01 7.87974720887073e+00 5.25286992906313e-02
1.14320454545455e-01 7.83860717629074e+00 5.24708287917009e-02
1.15261363636364e-01 7.79768193518217e+00 5.24112466451849e-02
1.16202272727273e-01 7.75697036412150e+00 5.23499876655583e-02
1.17143181818182e-01 7.71647134754016e+00 5.22870859981371e-02
1.18084090909091e-01 7.67618377569397e+00 5.22225751354337e-02
1.19025000000000e-01 7.63610654463270e+00 5.21564880100169e-02
1.19965909090909e-01 7.59623855588513e+00 5.20888567778151e-02
1.20906818181818e-01 7.55657871728863e+00 5.20197129886386e-02
1.21847727272727e-01 7.51712594209395e+00 5.19490877571607e-02
1.22788636363636e-01 7.47787914922573e+00 5.18770115407645e-02
1.23729545454545e-01 7.43883726325292e+00 5.18035142322611e-02
1.24670454545455e-01 7.39999921435930e+00 5.17286251730910e-02
1.25611363636364e-01 7.36136393831387e+00 5.16523731659035e-02
1.26552272727273e-01 7.32293037644229e+00 5.15747864869052e-02
1.27493181818182e-01 7.28469747559753e+00 5.14958928979739e-02
1.28434090909091e-01 7.24666418813104e+00 5.14157196581861e-02
1.29375000000000e-01 7.20882947186406e+00 5.13342936047601e-02
1.30315909090909e-01 7.17119228981161e+00 5.12516409538294e-02
1.31256818181818e-01 7.13375161090095e+00 5.11677874518768e-02
1.32197727272727e-01 7.09650640919177e+00 5.10827585278706e-02
1.33138636363636e-01 7.05945566410021e+00 5.09965790894375e-02
1.34079545454545e-01 7.02259836037087e+00 5.09092736042556e-02
1.35020454545455e-01 6.98593348804900e+00 5.08208661095744e-02
1.35961363636364e-01 6.94946004245259e+00 5.07313802212671e-02
1.36902272727273e-01 6.91317702414531e+00 5.06408391427621e-02
1.37843181818182e-01 6.87708343890887e+00 5.05492656738476e-02
1.38784090909091e-01 6.84117829771581e+00 5.04566822190533e-02
1.39725000000000e-01 6.80546061670236e+00 5.03631108591587e-02
1.40665909090909e-01 6.76992941692518e+00 5.02685731682727e-02
1.41606818181818e-01 6.73458372498738e+00 5.01730903494812e-02
1.42547727272727e-01 6.69942257235506e+00 5.00766833713093e-02
1.43488636363636e-01 6.66444499555104e+00 4.99793727808330e-02
1.44429545454545e-01 6.62965003612841e+00 4.98811787759516e-02
1.45370454545455e-01 6.59503674064435e+00 4.97821212124403e-02
1.46311363636364e-01 6.56060416063376e+00 4.96822196106329e-02
1.47252272727273e-01 6.52635135258364e+00 4.95814931620651e-02
1.48193181818182e-01 6.49227737790710e+00 4.94799607360434e-02
1.49134090909091e-01 6.45838130291759e+00 4.93776408858863e-02
1.50075000000000e-01 6.42466219880332e+00 4.92745519127291e-02
1.51015909090909e-01 6.39111914141165e+00 4.91707116976152e-02
1.51956818181818e-01 6.35775121179762e+00 4.90661378237762e-02
1.52897727272727e-01 6.32455749562155e+00 4.89608476997602e-02
1.53838636363636e-01 6.29153708331749e+00 4.88548583880530e-02
1.54779545454545e-01 6.25868907006835e+00 4.87481866697847e-02
1.55720454545455e-01 6.22601255578107e+00 4.86408490500598e-02
1.56661363636364e-01 6.19350664506184e+00 4.85328617630340e-02
1.57602272727273e-01 6.16117044719183e+00 4.84242407769437e-02
1.58543181818182e-01 6.12900307610265e+00 4.83150017991269e-02
1.59484090909091e-01 6.09700365035206e+00 4.82051602807757e-02
1.60425000000000e-01 6.06517129309984e+00 4.80947314742771e-02
1.61365909090909e-01 6.03350513191573e+00 4.79837302790284e-02
1.62306818181818e-01 6.00200429926241e+00 4.78721713521894e-02
1.63247727272727e-01 5.97066793196196e+00 4.77600692203303e-02
1.64188636363636e-01 5.93949517134309e+00 4.76474381221374e-02
1.65129545454545e-01 5.90848516321763e+00 4.75342920667148e-02
1.66070454545455e-01 5.87763705785713e+00 4.74206448377117e-02
1.67011363636364e-01 5.84695000996943e+00 4.73065099972371e-02
1.67952272727273e-01 5.81642317867578e+00 4.71919008897606e-02
1.68893181818182e-01 5.78605572748762e+00 4.70768306460053e-02
1.69834090909091e-01 5.75584682428372e+00 4.69613121866438e-02
1.70775000000000e-01 5.72579564128732e+00 4.68453582741281e-02
1.71715909090909e-01 5.69590135489447e+00 4.67289813709835e-02
1.72656818181818e-01 5.66616314610099e+00 4.66121937405265e-02
1.73597727272727e-01 5.63658020002795e+00 4.64950075484612e-02
1.74538636363636e-01 5.60715170605093e+00 4.63774347183896e-02
1.75479545454545e-01 5.57787685777773e+00 4.62594869846145e-02
1.76420454545455e-01 5.54875485302636e+00 4.61411758953791e-02
1.77361363636364e-01 5.51978489380288e+00 4.60225128159410e-02
1.78302272727273e-01 5.49096618627980e+00 4.59035089316325e-02
1.79243181818182e-01 5.46229794077416e+00 4.57841752509499e-02
1.80184090909091e-01 5.43377937172597e+00 4.56645226084673e-02
1.81125000000000e-01 5.40540969767660e+00 4.55445617118835e-02
1.82065909090909e-01 5.37718814111478e+00 4.54243030116904e-02
1.83006818181818e-01 5.34911392885539e+00 4.53037567930388e-02
1.83947727272727e-01 5.32118629161596e+00 4.51829332684721e-02
1.84888636363636e-01 5.29340446413042e+00 4.50618424450607e-02
1.85829545454545e-01 5.26576768512817e+00 4.49404941724144e-02
1.86770454545455e-01 5.23827519731319e+00 4.48188981452631e-02
1.87711363636364e-01 5.21092624734320e+00 4.46970639059013e-02
1.88652272727273e-01 5.18372008580920e+00 4.45750008466469e-02
1.89593181818182e-01 5.15665596721486e+00 4.44527182122974e-02
1.90534090909091e-01 5.12973314995607e+00 4.43302251024667e-02
1.91475000000000e-01 5.10295089630063e+00 4.42075305144629e-02
1.92415909090909e-01 5.07630847224953e+00 4.40846432232815e-02
1.93356818181818e-01 5.04980514787423e+00 4.39615718656204e-02
1.94297727272727e-01 5.02344019693736e+00 4.38383250247410e-02
1.95238636363636e-01 4.99721289699321e+00 4.37149111081713e-02
1.96179545454545e-01 4.97112252936797e+00 4.35913383914931e-02
1.97120454545455e-01 4.94516837913999e+00 4.34676150204215e-02
1.98061363636364e-01 4.91934973512019e+00 4.33437490127844e-02
1.99002272727273e-01 4.89366588983263e+00 4.32197482605100e-02
1.99943181818182e-01 4.86811613949514e+00 4.30956205316195e-02
2.00884090909091e-01 4.84269978399994e+00 4.29713734721207e-02
2.01825000000000e-01 4.81741612689454e+00 4.28470146451792e-02
2.02765909090909e-01 4.79226447525647e+00 4.27225514205326e-02
2.03706818181818e-01 4.76724413999438e+00 4.25979910514942e-02
2.04647727272727e-01 4.74235443550741e+00 4.24733407527670e-02
2.05588636363636e-01 4.71759467977422e+00 4.23486075877625e-02
2.06529545454545e-01 4.69296419433426e+00 4.22237985086410e-02
2.07470454545455e-01 4.66846230426925e+00 4.20989203580182e-02
2.08411363636364e-01 4.64408833818458e+00 4.19739798705775e-02
2.09352272727273e-01 4.61984162819104e+00 4.18489836746801e-02
2.10293181818182e-01 4.59572150988647e+00 4.17239382940177e-02
2.11234090909091e-01 4.57172732233754e+00 4.15988501491539e-02
2.12175000000000e-01 4.54785840806165e+00 4.14737255933995e-02
2.13115909090909e-01 4.52411411291357e+00 4.13485708108238e-02
2.14056818181818e-01 4.50049378635501e+00 4.12233918869461e-02
2.14997727272727e-01 4.47699678114778e+00 4.10981948802275e-02
2.15938636363636e-01 4.45362245343294e+00 4.09729857181456e-02
2.16879545454545e-01 4.43037016271312e+00 4.08477702338974e-02
2.17820454545455e-01 4.40723927183500e+00 4.07225541678005e-02
2.18761363636364e-01 4.38422914697175e+00 4.05973431686215e-02
2.19702272727273e-01 4.36133915760580e+00 4.04721427949192e-02
2.20643181818182e-01 4.33856867651153e+00 4.03469585163885e-02
2.21584090909091e-01 4.31591707973802e+00 4.02217957151534e-02
2.22525000000000e-01 4.29338374659203e+00 4.00966597186865e-02
2.23465909090909e-01 4.27096805953510e+00 3.99715557056506e-02
2.24406818181818e-01 4.24866940442544e+00 3.98464887709204e-02
2.25347727272727e-01 4.22648717024099e+00 3.97214639913510e-02
2.26288636363636e-01 4.20442074914985e+00 3.95964863298635e-02
2.27229545454545e-01 4.18246953649359e+00 3.94715606691266e-02
2.28170454545455e-01 4.16063293077068e+00 3.93466918127335e-02
2.29111363636364e-01 4.13891033362000e+00 3.92218844863048e-02
2.30052272727273e-01 4.11730114980450e+00 3.90971433386001e-02
2.30993181818182e-01 4.09580478719487e+00 3.89724729426519e-02
2.31934090909091e-01 4.07442065675328e+00 3.88478777968253e-02
2.32875000000000e-01 4.05314817251727e+00 3.87233623551030e-02
2.33815909090909e-01 4.03198675150626e+00 3.85989309400777e-02
2.34756818181818e-01 4.01093581393900e+00 3.84745878028333e-02
2.35697727272727e-01 3.98999478298309e+00 3.83503371835458e-02
2.36638636363636e-01 3.96916308481776e+00 3.82261832228621e-02
2.37579545454545e-01 3.94844014861815e+00 3.81021299928961e-02
2.38520454545455e-01 3.92782540653968e+00 3.79781814982044e-02
2.39461363636364e-01 3.90731829370242e+00 3.78543416767012e-02
2.40402272727273e-01 3.88691824817573e+00 3.77306144006042e-02
2.41343181818182e-01 3.86662471096280e+00 3.76070034773804e-02
2.42284090909091e-01 3.84643712598533e+00 3.74835126506368e-02
2.43225000000000e-01 3.82635494006829e+00 3.73601456280109e-02
2.44165909090909e-01 3.80637760285481e+00 3.72369060007010e-02
2.45106818181818e-01 3.78650456700203e+00 3.71137972986997e-02
2.46047727272727e-01 3.76673528795414e+00 3.69908230466992e-02
2.46988636363636e-01 3.74706922399840e+00 3.68679866821371e-02
2.47929545454545e-01 3.72750583625039e+00 3.67452915837476e-02
2.48870454545455e-01 3.70804458863918e+00 3.66227410723909e-02
2.49811363636364e-01 3.68868494789261e+00 3.65003384118253e-02
2.50752272727273e-01 3.66942638352280e+00 3.63780868094965e-02
2.51693181818182e-01 3.65026836781150e+00 3.62559894173439e-02
2.52634090909091e-01 3.63121037579569e+00 3.61340493325543e-02
2.53575000000000e-01 3.61225188525319e+00 3.60122696232705e-02
2.54515909090909e-01 3.59339237662492e+00 3.58906532541271e-02
2.55456818181818e-01 3.57463133319179e+00 3.57692031372454e-02
2.56397727272727e-01 3.55596824086850e+00 3.56479221838612e-02
2.57338636363636e-01 3.53740258825380e+00 3.55268132284842e-02
2.58279545454545e-01 3.51893386661644e+00 3.54058790552324e-02
2.59220454545455e-01 3.50056156988126e+00 3.52851223985348e-02
2.60161363636364e-01 3.48228519461528e+00 3.51645459437857e-02
2.61102272727273e-01 3.46410424001396e+00 3.50441523280194e-02
2.62043181818182e-01 3.44601820788746e+00 3.49239441405871e-02
2.62984090909091e-01 3.42802660264700e+00 3.48039239238016e-02
2.63925000000000e-01 3.41012893129123e+00 3.46840941966674e-02
2.64865909090909e-01 3.39232470333529e+00 3.45644573859288e-02
2.65806818181818e-01 3.37461343097062e+00 3.44450158731918e-02
2.66747727272727e-01 3.35699462887750e+00 3.43257720426414e-02
2.67688636363636e-01 3.33946781427005e+00 3.42067282108274e-02
2.68629545454545e-01 3.32203250688300e+00 3.40878866509674e-02
2.69570454545455e-01 3.30468822895855e+00 3.39692495935471e-02
2.70511363636364e-01 3.28743450523322e+00 3.38508192268847e-02
2.71452272727273e-01 3.27027086292494e+00 3.37325976976923e-02
2.72393181818182e-01 3.25319683172000e+00 3.36145871116683e-02
2.73334090909091e-01 3.23621194376018e+00 3.34967895340452e-02
2.74275000000000e-01 3.21931573362998e+00 3.33792070115155e-02
2.75215909090909e-01 3.20250773829157e+00 3.32618415083320e-02
2.76156818181818e-01 3.18578749722958e+00 3.31446949498991e-02
2.77097727272727e-01 3.16915455228026e+00 3.30277692669285e-02
2.78038636363636e-01 3.15260844767194e+00 3.29110663303549e-02
2.78979545454545e-01 3.13614873001252e+00 3.27945879738172e-02
2.79920454545455e-01 3.11977494827707e+00 3.26783359941728e-02
2.80861363636364e-01 3.10348665379542e+00 3.25623121519676e-02
2.81802272727273e-01 3.08728340023992e+00 3.24465181719316e-02
2.82743181818182e-01 3.07116474361319e+00 3.23309557434779e-02
2.83684090909091e-01 3.05513024223598e+00 3.22156265211675e-02
2.84625000000000e-01 3.03917945673501e+00 3.21005321450023e-02
2.85565909090909e-01 3.02331194998345e+00 3.19856741811672e-02
2.86506818181818e-01 3.00752728723218e+00 3.18710541623835e-02
2.87447727272727e-01 2.99182503595393e+00 3.17566736287988e-02
2.88388636363636e-01 2.97620476587967e+00 3.16425340676414e-02
2.89329545454545e-01 2.96066604898678e+00 3.15286369340136e-02
2.90270454545455e-01 2.94520845948736e+00 3.14149836513314e-02
2.91211363636364e-01 2.92983157381651e+00 3.13015756117338e-02
2.92152272727273e-01 2.91453497062077e+00 3.11884141765051e-02
2.93093181818182e-01 2.89931823074657e+00 3.10755006765040e-02
2.94034090909091e-01 2.88418093722875e+00 3.09628364125701e-02
2.94975000000000e-01 2.86912267527908e+00 3.08504226743046e-02
2.95915909090909e-01 2.85414303223169e+00 3.07382606850834e-02
2.96856818181818e-01 2.83924159766216e+00 3.06263516394560e-02
