Energy (eV)          EEDF (eV^-(3/2))     First Anisotropy
5.52857142857143e-03 9.46972707818773e-01 5.93541786271687e-04
1.65857142857143e-02 9.37671441555498e-01 9.78582637428219e-04
2.76428571428571e-02 9.28461533375686e-01 1.28781011706161e-03
3.87000000000000e-02 9.19342085874430e-01 1.52029448963255e-03
4.97571428571429e-02 9.10312210567133e-01 1.71218208781587e-03
6.08142857142857e-02 9.01371027643742e-01 1.87719951690627e-03
7.18714285714286e-02 8.92517665973334e-01 2.02247999746408e-03
8.29285714285714e-02 8.83751262953723e-01 2.15234861664199e-03
9.39857142857143e-02 8.75070964468272e-01 2.26968535535082e-03
1.05042857142857e-01 8.66475924799276e-01 2.37653380646068e-03
1.16100000000000e-01 8.57965306484189e-01 2.47441267880445e-03
1.27157142857143e-01 8.49538280425064e-01 2.56449112668357e-03
1.38214285714286e-01 8.41194025497595e-01 2.64769460976754e-03
1.49271428571429e-01 8.32931728716657e-01 2.72477238880224e-03
1.60328571428571e-01 8.24750585082005e-01 2.79634251804056e-03
1.71385714285714e-01 8.16649797499250e-01 2.86292289141262e-03
1.82442857142857e-01 8.08628576703810e-01 2.92495333127502e-03
1.93500000000000e-01 8.00686141183146e-01 2.98281170153740e-03
2.04557142857143e-01 7.92821717139379e-01 3.03682593701694e-03
2.15614285714286e-01 7.85034538295394e-01 3.08728317038384e-03
2.26671428571429e-01 7.77323845941323e-01 3.13443678381696e-03
2.37728571428571e-01 7.69688888819334e-01 3.17851195667427e-03
2.48785714285714e-01 7.62128923050157e-01 3.21971006150340e-03
2.59842857142857e-01 7.54643212061269e-01 3.25821220232833e-03
2.70900000000000e-01 7.47231026514780e-01 3.29418208789896e-03
2.81957142857143e-01 7.39891644262323e-01 3.32776840075383e-03
2.93014285714286e-01 7.32624350195566e-01 3.35910674608944e-03
3.04071428571429e-01 7.25428436257064e-01 3.38832127771538e-03
3.15128571428571e-01 7.18303201343949e-01 3.41552607934358e-03
3.26185714285714e-01 7.11247951239472e-01 3.44082632385535e-03
3.37242857142857e-01 7.04261998545704e-01 3.46431926391613e-03
3.48300000000000e-01 6.97344662616387e-01 3.48609507899518e-03
3.59357142857143e-01 6.90495269509509e-01 3.50623761459662e-03
3.70414285714286e-01 6.83713151864144e-01 3.52482501198197e-03
3.81471428571429e-01 6.76997648893797e-01 3.54193025583345e-03
3.92528571428571e-01 6.70348106302270e-01 3.55762166475994e-03
4.03585714285714e-01 6.63763876219820e-01 3.57196331328440e-03
4.14642857142857e-01 6.57244317140240e-01 3.58501540618185e-03
4.25700000000000e-01 6.50788793858253e-01 3.59683460791748e-03
4.36757142857143e-01 6.44396677422076e-01 3.60747434299188e-03
4.47814285714286e-01 6.38067345028209e-01 3.61698505435921e-03
4.58871428571429e-01 6.31800180005281e-01 3.62541443405056e-03
4.69928571428571e-01 6.25594571738923e-01 3.63280763981564e-03
4.80985714285714e-01 6.19449915612214e-01 3.63920748239633e-03
4.92042857142857e-01 6.13365612946902e-01 3.64465459633223e-03
5.03100000000000e-01 6.07341070945011e-01 3.64918759276362e-03
5.14157142857143e-01 6.01375702642511e-01 3.65284320459268e-03
5.25214285714286e-01 5.95468926817422e-01 3.65565641032746e-03
5.36271428571429e-01 5.89620167968327e-01 3.65766054653865e-03
5.47328571428571e-01 5.83828856246438e-01 3.65888741896765e-03
5.58385714285714e-01 5.78094427400033e-01 3.65936739755876e-03
5.69442857142857e-01 5.72416322719574e-01 3.65912950520112e-03
5.80500000000000e-01 5.66793988983219e-01 3.65820149777049e-03
5.91557142857143e-01 5.61226878412180e-01 3.65660994354906e-03
6.02614285714286e-01 5.55714448589273e-01 3.65438028934884e-03
6.13671428571429e-01 5.50256162434471e-01 3.65153692128952e-03
6.24728571428571e-01 5.44851488143004e-01 3.64810322838106e-03
6.35785714285714e-01 5.39499899133508e-01 3.64410165562626e-03
6.46842857142857e-01 5.34200873996788e-01 3.63955375471689e-03
6.57900000000000e-01 5.28953896444980e-01 3.63448022985159e-03
6.68957142857143e-01 5.23758455268881e-01 3.62890098544013e-03
6.80014285714286e-01 5.18614044265004e-01 3.62283516430246e-03
6.91071428571429e-01 5.13520162209652e-01 3.61630118308576e-03
7.02128571428571e-01 5.08476312802195e-01 3.60931677183551e-03
7.13185714285714e-01 5.03482004616696e-01 3.60189900589083e-03
7.24242857142857e-01 4.98536751054077e-01 3.59406433701623e-03
7.35300000000000e-01 4.93640070294685e-01 3.58582862145209e-03
7.46357142857143e-01 4.88791485257722e-01 3.57720715073211e-03
7.57414285714286e-01 4.83990523535445e-01 3.56821467509681e-03
7.68471428571429e-01 4.79236717366656e-01 3.55886542533612e-03
7.79528571428571e-01 4.74529603584559e-01 3.54917313909839e-03
7.90585714285714e-01 4.69868723571611e-01 3.53915108114709e-03
8.01642857142857e-01 4.65253623214875e-01 3.52881206359280e-03
8.12700000000000e-01 4.60683852861758e-01 3.51816846398872e-03
8.23757142857143e-01 4.56158967281585e-01 3.50723224642698e-03
8.34814285714286e-01 4.51678525605903e-01 3.49601497655549e-03
8.45871428571429e-01 4.47242091302014e-01 3.48452783564768e-03
8.56928571428571e-01 4.42849232124884e-01 3.47278163904489e-03
8.67985714285714e-01 4.38499520075024e-01 3.46078684959935e-03
8.79042857142857e-01 4.34192531356813e-01 3.44855359143387e-03
8.90100000000000e-01 4.29927846337194e-01 3.43609166211034e-03
9.01157142857143e-01 4.25705049509379e-01 3.42341054776355e-03
9.12214285714286e-01 4.21523729438462e-01 3.41051943307693e-03
9.23271428571429e-01 4.17383478735373e-01 3.39742721065485e-03
9.34328571428571e-01 4.13283894012461e-01 3.38414249451727e-03
9.45385714285714e-01 4.09224575844177e-01 3.37067362934049e-03
9.56442857142857e-01 4.05205128728186e-01 3.35702870016760e-03
9.67500000000000e-01 4.01225161046813e-01 3.34321554087030e-03
9.78557142857143e-01 3.97284285032839e-01 3.32924174542618e-03
9.89614285714286e-01 3.93382116719774e-01 3.31511467472931e-03
1.00067142857143e+00 3.89518275916505e-01 3.30084146299830e-03
1.01172857142857e+00 3.85692386166195e-01 3.28642902574596e-03
1.02278571428571e+00 3.81904074720377e-01 3.27188407836370e-03
1.03384285714286e+00 3.78152972445126e-01 3.25721312057328e-03
1.04490000000000e+00 3.74438713903927e-01 3.24242245371301e-03
1.05595714285714e+00 3.70760937213233e-01 3.22751820494830e-03
1.06701428571429e+00 3.67119284043975e-01 3.21250631719213e-03
1.07807142857143e+00 3.63513399554150e-01 3.19739254174147e-03
1.08912857142857e+00 3.59942932453005e-01 3.18218245830579e-03
1.10018571428571e+00 3.56407534866690e-01 3.16688150154103e-03
1.11124285714286e+00 3.52906862307622e-01 3.15149492418070e-03
1.12230000000000e+00 3.49440573734046e-01 3.13602782319545e-03
1.13335714285714e+00 3.46008331422407e-01 3.12048515843363e-03
1.14441428571429e+00 3.42609800966324e-01 3.10487174265992e-03
1.15547142857143e+00 3.39244651215706e-01 3.08919223403470e-03
1.16652857142857e+00 3.35912554330445e-01 3.07345115333765e-03
1.17758571428571e+00 3.32613185661375e-01 3.05765290712314e-03
1.18864285714286e+00 3.29346223721377e-01 3.04180175374614e-03
1.19970000000000e+00 3.26111350235275e-01 3.02590182624444e-03
1.21075714285714e+00 3.22908250026533e-01 3.00995714850031e-03
1.22181428571429e+00 3.19736611014327e-01 2.99397162564360e-03
1.23287142857143e+00 3.16596124158383e-01 2.97794903664676e-03
1.24392857142857e+00 3.13486483504025e-01 2.96189304930943e-03
1.25498571428571e+00 3.10407386076239e-01 2.94580724064886e-03
1.26604285714286e+00 3.07358531852476e-01 2.92969506568985e-03
1.27710000000000e+00 3.04339623804553e-01 2.91355987764826e-03
1.28815714285714e+00 3.01350367797669e-01 2.89740494208211e-03
1.29921428571429e+00 2.98390472586059e-01 2.88123342778681e-03
1.31027142857143e+00 2.95459649762876e-01 2.86504839965928e-03
1.32132857142857e+00 2.92557613798072e-01 2.84885283185302e-03
1.33238571428571e+00 2.89684081943775e-01 2.83264962586024e-03
1.34344285714286e+00 2.86838774208723e-01 2.81644158188981e-03
1.35450000000000e+00 2.84021413393518e-01 2.80023141678727e-03
1.36555714285714e+00 2.81231725000306e-01 2.78402177652294e-03
1.37661428571429e+00 2.78469437227392e-01 2.76781522763606e-03
1.38767142857143e+00 2.75734280923596e-01 2.75161425045085e-03
1.39872857142857e+00 2.73025989620158e-01 2.73542125070785e-03
1.40978571428571e+00 2.70344299445944e-01 2.71923857568848e-03
1.42084285714286e+00 2.67688949103437e-01 2.70306848799041e-03
1.43190000000000e+00 2.65059679898444e-01 2.68691318152062e-03
1.44295714285714e+00 2.62456235659060e-01 2.67077479258408e-03
1.45401428571429e+00 2.59878362729533e-01 2.65465539189496e-03
1.46507142857143e+00 2.57325809928620e-01 2.63855697818325e-03
1.47612857142857e+00 2.54798328576482e-01 2.62248148853881e-03
1.48718571428571e+00 2.52295672418472e-01 2.60643081285435e-03
1.49824285714286e+00 2.49817597602620e-01 2.59040676980614e-03
1.50930000000000e+00 2.47363862704678e-01 2.57441112118814e-03
1.52035714285714e+00 2.44934228655212e-01 2.55844558180744e-03
1.53141428571429e+00 2.42528458732960e-01 2.54251181205604e-03
1.54247142857143e+00 2.40146318526758e-01 2.52661141192214e-03
1.55352857142857e+00 2.37787575958224e-01 2.51074593023167e-03
1.56458571428571e+00 2.35452001213093e-01 2.49491687763243e-03
1.57564285714286e+00 2.33139366720104e-01 2.47912570459677e-03
1.58670000000000e+00 2.30849447172126e-01 2.46337381431274e-03
1.59775714285714e+00 2.28582019460407e-01 2.44766257155126e-03
1.60881428571429e+00 2.26336862667596e-01 2.43199329577898e-03
1.61987142857143e+00 2.24113758032884e-01 2.41636725557127e-03
1.63092857142857e+00 2.21912488971133e-01 2.40078567690134e-03
1.64198571428571e+00 2.19732841010870e-01 2.38524975484782e-03
1.65304285714286e+00 2.17574601774498e-01 2.36976063344596e-03
1.66410000000000e+00 2.15437560996119e-01 2.35431941731523e-03
1.67515714285714e+00 2.13321510462097e-01 2.33892717963211e-03
1.68621428571429e+00 2.11226244003895e-01 2.32358495575703e-03
1.69727142857143e+00 2.09151557466113e-01 2.30829373803709e-03
1.70832857142857e+00 2.07097248722606e-01 2.29305448326472e-03
1.71938571428571e+00 2.05063117620380e-01 2.27786812326136e-03
1.73044285714286e+00 2.03048965961055e-01 2.26273554641700e-03
1.74150000000000e+00 2.01054597515882e-01 2.24765760820347e-03
1.75255714285714e+00 1.99079817971918e-01 2.23263513836329e-03
1.76361428571429e+00 1.97124434924785e-01 2.21766893502043e-03
1.77467142857143e+00 1.95188257849320e-01 2.20275975985584e-03
1.78572857142857e+00 1.93271098113158e-01 2.18790834483696e-03
1.79678571428571e+00 1.91372768925853e-01 2.17311540180619e-03
1.80784285714286e+00 1.89493085321536e-01 2.15838160556070e-03
1.81890000000000e+00 1.87631864171544e-01 2.14370760337862e-03
1.82995714285714e+00 1.85788924135592e-01 2.12909402151692e-03
1.84101428571429e+00 1.83964085654541e-01 2.11454145977397e-03
1.85207142857143e+00 1.82157170923420e-01 2.10005048701772e-03
1.86312857142857e+00 1.80368003902844e-01 2.08562164727106e-03
1.87418571428571e+00 1.78596410272812e-01 2.07125546841510e-03
1.88524285714286e+00 1.76842217416474e-01 2.05695244667503e-03
1.89630000000000e+00 1.75105254430737e-01 2.04271305526688e-03
1.90735714285714e+00 1.73385352081897e-01 2.02853775028335e-03
1.91841428571429e+00 1.71682342798482e-01 2.01442696567616e-03
1.92947142857143e+00 1.69996060646435e-01 2.00038110911567e-03
1.94052857142857e+00 1.68326341338682e-01 1.98640056750512e-03
1.95158571428571e+00 1.66673022193119e-01 1.97248571489285e-03
1.96264285714286e+00 1.65035942117416e-01 1.95863689824081e-03
1.97370000000000e+00 1.63414941617910e-01 1.94485444528622e-03
1.98475714285714e+00 1.61809862759221e-01 1.93113866988234e-03
1.99581428571429e+00 1.60220549157228e-01 1.91748986736992e-03
2.00687142857143e+00 1.58646845956212e-01 1.90390831074667e-03
2.01792857142857e+00 1.57088599836861e-01 1.89039425567234e-03
2.02898571428571e+00 1.55545658978000e-01 1.87694794767204e-03
2.04004285714286e+00 1.54017873042378e-01 1.86356960907618e-03
2.05110000000000e+00 1.52505093184096e-01 1.85025944617755e-03
2.06215714285714e+00 1.51007172011802e-01 1.83701765408541e-03
2.07321428571429e+00 1.49523963581840e-01 1.82384441245708e-03
2.08427142857143e+00 1.48055323377179e-01 1.81073988195514e-03
2.09532857142857e+00 1.46601108314086e-01 1.79770420879785e-03
2.10638571428571e+00 1.45161176707220e-01 1.78473753132544e-03
2.11744285714286e+00 1.43735388256343e-01 1.77183996800918e-03
2.12850000000000e+00 1.42323604052498e-01 1.75901162397551e-03
2.13955714285714e+00 1.40925686544423e-01 1.74625259542395e-03
2.15061428571429e+00 1.39541499531904e-01 1.73356296569060e-03
2.16167142857143e+00 1.38170908146336e-01 1.72094280197339e-03
2.17272857142857e+00 1.36813778856254e-01 1.70839215947427e-03
2.18378571428571e+00 1.35469979435468e-01 1.69591108739142e-03
2.19484285714286e+00 1.34139378950631e-01 1.68349961790535e-03
2.20590000000000e+00 1.32821847766355e-01 1.67115777213253e-03
2.21695714285714e+00 1.31517257514529e-01 1.65888556415104e-03
2.22801428571429e+00 1.30225481087890e-01 1.64668299737065e-03
2.23907142857143e+00 1.28946392622084e-01 1.63455006150620e-03
2.25012857142857e+00 1.27679867500223e-01 1.62248673635262e-03
2.26118571428571e+00 1.26425782323753e-01 1.61049299725893e-03
2.27224285714286e+00 1.25184014900847e-01 1.59856880500744e-03
2.28330000000000e+00 1.23954444250591e-01 1.58671411125193e-03
2.29435714285714e+00 1.22736950574945e-01 1.57492886219012e-03
2.30541428571429e+00 1.21531415252535e-01 1.56321299521621e-03
2.31647142857143e+00 1.20337720822094e-01 1.55156643612366e-03
2.32752857142857e+00 1.19155750986184e-01 1.53998910254972e-03
2.33858571428571e+00 1.17985390584544e-01 1.52848090898034e-03
2.34964285714286e+00 1.16826525583237e-01 1.51704175744600e-03
2.36070000000000e+00 1.15679043078068e-01 1.50567154249388e-03
2.37175714285714e+00 1.14542831268909e-01 1.49437015454118e-03
2.38281428571429e+00 1.13417779453749e-01 1.48313747678768e-03
2.39387142857143e+00 1.12303778013379e-01 1.47197338263116e-03
2.40492857142857e+00 1.11200718414412e-01 1.46087773881305e-03
2.41598571428571e+00 1.10108493184879e-01 1.44985040999821e-03
2.42704285714286e+00 1.09026995904079e-01 1.43889125021819e-03
2.43810000000000e+00 1.07956121205339e-01 1.42800010742074e-03
2.44915714285714e+00 1.06895764752495e-01 1.41717682653496e-03
2.46021428571429e+00 1.05845823234182e-01 1.40642124662305e-03
2.47127142857143e+00 1.04806194349684e-01 1.39573319849187e-03
2.48232857142857e+00 1.03776776811347e-01 1.38511250756842e-03
2.49338571428571e+00 1.02757470322205e-01 1.37455899809374e-03
2.50444285714286e+00 1.01748175566506e-01 1.36407248525049e-03
2.51550000000000e+00 1.00748794211901e-01 1.35365277932892e-03
2.52655714285714e+00 9.97592288878791e-02 1.34329968853064e-03
2.53761428571429e+00 9.87793831803136e-02 1.33301301634063e-03
2.54867142857143e+00 9.78091616183689e-02 1.32279255932014e-03
2.55972857142857e+00 9.68484696764010e-02 1.31263810973738e-03
2.57078571428571e+00 9.58972137534368e-02 1.30254945941051e-03
2.58184285714286e+00 9.49553011643173e-02 1.29252639246206e-03
2.59290000000000e+00 9.40226401414086e-02 1.28256868913628e-03
2.60395714285714e+00 9.30991398148163e-02 1.27267612836564e-03
2.61501428571429e+00 9.21847102071801e-02 1.26284848534601e-03
2.62607142857143e+00 9.12792622215568e-02 1.25308552949672e-03
2.63712857142857e+00 9.03827076428847e-02 1.24338702686892e-03
2.64818571428571e+00 8.94949591191464e-02 1.23375274366952e-03
2.65924285714286e+00 8.86159301530933e-02 1.22418243958990e-03
2.67030000000000e+00 8.77455351035503e-02 1.21467587130607e-03
2.68135714285714e+00 8.68836891672469e-02 1.20523279482979e-03
2.69241428571429e+00 8.60303083738600e-02 1.19585296327043e-03
2.70347142857143e+00 8.51853095747945e-02 1.18653612494966e-03
2.71452857142857e+00 8.43486104442789e-02 1.17728202560746e-03
2.72558571428571e+00 8.35201294620607e-02 1.16809041163528e-03
2.73664285714286e+00 8.26997859056751e-02 1.15896102393187e-03
2.74770000000000e+00 8.18874998514054e-02 1.14989360111436e-03
2.75875714285714e+00 8.10831921575870e-02 1.14088788167319e-03
2.76981428571429e+00 8.02867844598938e-02 1.13194360190589e-03
2.78087142857143e+00 7.94981991609470e-02 1.12306049417431e-03
2.79192857142857e+00 7.87173594310976e-02 1.11423828892698e-03
2.80298571428571e+00 7.79441891925196e-02 1.10547671766719e-03
2.81404285714286e+00 7.71786131119878e-02 1.09677550729171e-03
2.82510000000000e+00 7.64205566015468e-02 1.08813438303843e-03
2.83615714285714e+00 7.56699458031602e-02 1.07955307046294e-03
2.84721428571429e+00 7.49267075842333e-02 1.07103129353057e-03
2.85827142857143e+00 7.41907695279855e-02 1.06256877300516e-03
2.86932857142857e+00 7.34620599339699e-02 1.05416522830392e-03
2.88038571428571e+00 7.27405078034414e-02 1.04582038022350e-03
2.89144285714286e+00 7.20260428326112e-02 1.03753394572226e-03
2.90250000000000e+00 7.13185954130702e-02 1.02930564062744e-03
2.91355714285714e+00 7.06180966176659e-02 1.02113518144881e-03
2.92461428571429e+00 6.99244781962562e-02 1.01302228361671e-03
2.93567142857143e+00 6.92376725667855e-02 1.00496665999217e-03
2.94672857142857e+00 6.85576128155829e-02 9.96968022569108e-04
2.95778571428571e+00 6.78842326838967e-02 9.89026084979100e-04
2.96884285714286e+00 6.72174665615932e-02 9.81140557681267e-04
2.97990000000000e+00 6.65572494873746e-02 9.73311150449524e-04
2.99095714285714e+00 6.59035171357786e-02 9.65537574037594e-04
3.00201428571429e+00 6.52562058131550e-02 9.57819538551575e-04
3.01307142857143e+00 6.46152524493917e-02 9.50156752072074e-04
3.02412857142857e+00 6.39805945980285e-02 9.42548922217005e-04
3.03518571428571e+00 6.33521704238568e-02 9.34995758444343e-04
3.04624285714286e+00 6.27299186970353e-02 9.27496967615972e-04
3.05730000000000e+00 6.21137787931357e-02 9.20052256284125e-04
3.06835714285714e+00 6.15036906811694e-02 9.12661332220822e-04
3.07941428571429e+00 6.08995949197788e-02 9.05323902914085e-04
3.09047142857143e+00 6.03014326495650e-02 8.98039674293688e-04
3.10152857142857e+00 5.97091455930457e-02 8.90808352166543e-04
3.11258571428571e+00 5.91226760432330e-02 8.83629644334430e-04
3.12364285714286e+00 5.85419668581361e-02 8.76503256501868e-04
3.13470000000000e+00 5.79669614606660e-02 8.69428894378729e-04
3.14575714285714e+00 5.73976038276014e-02 8.62406265085683e-04
3.15681428571429e+00 5.68338384859877e-02 8.55435075764474e-04
3.16787142857143e+00 5.62756105060187e-02 8.48515032399149e-04
3.17892857142857e+00 5.57228655008688e-02 8.41645841135123e-04
3.18998571428571e+00 5.51755496161631e-02 8.34827210227542e-04
3.20104285714286e+00 5.46336095248452e-02 8.28058846265411e-04
3.21210000000000e+00 5.40969924269631e-02 8.21340456105833e-04
3.22315714285714e+00 5.35656460394980e-02 8.14671748166055e-04
3.23421428571429e+00 5.30395185929608e-02 8.08052431138993e-04
3.24527142857143e+00 5.25185588247877e-02 8.01482212902620e-04
3.25632857142857e+00 5.20027159790673e-02 7.94960801732560e-04
3.26738571428571e+00 5.14919397968316e-02 7.88487908095212e-04
3.27844285714286e+00 5.09861805112623e-02 7.82063241162863e-04
3.28950000000000e+00 5.04853888473814e-02 7.75686510593771e-04
3.30055714285714e+00 4.99895160126704e-02 7.69357427720286e-04
3.31161428571429e+00 4.94985136938563e-02 7.63075704361437e-04
3.32267142857143e+00 4.90123340507821e-02 7.56841051813727e-04
3.33372857142857e+00 4.85309297160497e-02 7.50653181966332e-04
3.34478571428571e+00 4.80542537860621e-02 7.44511808951949e-04
3.35584285714286e+00 4.75822598165480e-02 7.38416645929484e-04
3.36690000000000e+00 4.71149018221745e-02 7.32367406722932e-04
3.37795714285714e+00 4.66521342678917e-02 7.26363806914442e-04
3.38901428571429e+00 4.61939120659001e-02 7.20405562746235e-04
3.40007142857143e+00 4.57401905699605e-02 7.14492390186667e-04
3.41112857142857e+00 4.52909255749686e-02 7.08624005956198e-04
3.42218571428571e+00 4.48460733086888e-02 7.02800129047719e-04
3.43324285714286e+00 4.44055904275743e-02 6.97020477755668e-04
3.44430000000000e+00 4.39694340163189e-02 6.91284771185355e-04
3.45535714285714e+00 4.35375615798675e-02 6.85592730258780e-04
3.46641428571429e+00 4.31099310405559e-02 6.79944076699091e-04
3.47747142857143e+00 4.26865007328281e-02 6.74338532166224e-04
3.48852857142857e+00 4.22672294027574e-02 6.68775819200977e-04
