Energy (eV)          EEDF (eV^-(3/2))     First Anisotropy
3.10714285714286e-02 5.39877785151521e-02 3.12008330446084e-05
9.32142857142857e-02 5.35462062305293e-02 5.14838221619506e-05
1.55357142857143e-01 5.31082456172410e-02 6.78648870686037e-05
2.17500000000000e-01 5.26738671345247e-02 8.02492611174369e-05
2.79642857142857e-01 5.22430414819495e-02 9.05280765615742e-05
3.41785714285714e-01 5.18157396026683e-02 9.94177201683525e-05
4.03928571428571e-01 5.13919326751558e-02 1.07289599310807e-04
4.66071428571429e-01 5.09715921137062e-02 1.14368394881490e-04
5.28214285714286e-01 5.05546895664347e-02 1.20803380714752e-04
5.90357142857143e-01 5.01411969134020e-02 1.26700244032314e-04
6.52500000000000e-01 4.97310862646715e-02 1.32137355217989e-04
7.14642857142857e-01 4.93243299578380e-02 1.37174915554580e-04
7.76785714285714e-01 4.89209005579924e-02 1.41860476464718e-04
8.38928571428571e-01 4.85207708539588e-02 1.46232456226721e-04
9.01071428571429e-01 4.81239138571289e-02 1.50322480428879e-04
9.63214285714286e-01 4.77303027996344e-02 1.54156996596870e-04
1.02535714285714e+00 4.73399111325543e-02 1.57758421677607e-04
1.08750000000000e+00 4.69527125244643e-02 1.61145978771171e-04
1.14964285714286e+00 4.65686808575681e-02 1.64336320087286e-04
1.21178571428571e+00 4.61877902291726e-02 1.67343999783677e-04
1.27392857142857e+00 4.58100149515410e-02 1.70181840722311e-04
1.33607142857143e+00 4.54353295407686e-02 1.72861219954650e-04
1.39821428571429e+00 4.50637087245097e-02 1.75392295027755e-04
1.46035714285714e+00 4.46951274397499e-02 1.77784188590865e-04
1.52250000000000e+00 4.43295608232237e-02 1.80045135751143e-04
1.58464285714286e+00 4.39669842176581e-02 1.82182605046126e-04
1.64678571428571e+00 4.36073731674519e-02 1.84203399707226e-04
1.70892857142857e+00 4.32507034191803e-02 1.86113742075978e-04
1.77107142857143e+00 4.28969509134464e-02 1.87919343548160e-04
1.83321428571429e+00 4.25460917898059e-02 1.89625463387542e-04
1.89535714285714e+00 4.21981023848602e-02 1.91236961110403e-04
1.95750000000000e+00 4.18529592249801e-02 1.92758339190968e-04
2.01964285714286e+00 4.15106390304267e-02 1.94193779991194e-04
2.08178571428571e+00 4.11711187118672e-02 1.95547178724099e-04
2.14392857142857e+00 4.08343753704258e-02 1.96822172089247e-04
2.20607142857143e+00 4.05003862912803e-02 1.98022162448685e-04
2.26821428571429e+00 4.01691289470141e-02 1.99150338751584e-04
2.33035714285714e+00 3.98405809959053e-02 2.00209696933396e-04
2.39250000000000e+00 3.95147202760852e-02 2.01203056091183e-04
2.45464285714286e+00 3.91915248083976e-02 2.02133072983907e-04
2.51678571428571e+00 3.88709727934555e-02 2.03002255797454e-04
2.57892857142857e+00 3.85530426114258e-02 2.03812976405868e-04
2.64107142857143e+00 3.82377128167800e-02 2.04567480622448e-04
2.70321428571429e+00 3.79249621406584e-02 2.05267897171533e-04
2.76535714285714e+00 3.76147694893026e-02 2.05916247475540e-04
2.82750000000000e+00 3.73071139391986e-02 2.06514452867537e-04
2.88964285714286e+00 3.70019747391158e-02 2.07064341259663e-04
2.95178571428571e+00 3.66993313075495e-02 2.07567653940216e-04
3.01392857142857e+00 3.63991632323432e-02 2.08026051725788e-04
3.07607142857143e+00 3.61014502662611e-02 2.08441119924583e-04
3.13821428571429e+00 3.58061723286891e-02 2.08814372668072e-04
3.20035714285714e+00 3.55133095041820e-02 2.09147258371751e-04
3.26250000000000e+00 3.52228420383280e-02 2.09441163306129e-04
3.32464285714286e+00 3.49347503392218e-02 2.09697415004727e-04
3.38678571428571e+00 3.46490149752023e-02 2.09917286056784e-04
3.44892857142857e+00 3.43656166743732e-02 2.10101997575365e-04
3.51107142857143e+00 3.40845363207931e-02 2.10252721827068e-04
3.57321428571429e+00 3.38057549557091e-02 2.10370584489206e-04
3.63535714285714e+00 3.35292537762029e-02 2.10456668065611e-04
3.69750000000000e+00 3.32550141316072e-02 2.10512013776209e-04
3.75964285714286e+00 3.29830175245743e-02 2.10537623429241e-04
3.82178571428571e+00 3.27132456090483e-02 2.10534461745541e-04
3.88392857142857e+00 3.24456801897229e-02 2.10503458497051e-04
3.94607142857143e+00 3.21803032187147e-02 2.10445509989275e-04
4.00821428571429e+00 3.19170967964566e-02 2.10361480292263e-04
4.07035714285714e+00 3.16560431704308e-02 2.10252203573591e-04
4.13250000000000e+00 3.13971247320230e-02 2.10118485136413e-04
4.19464285714286e+00 3.11403240172930e-02 2.09961102499291e-04
4.25678571428571e+00 3.08856237051402e-02 2.09780806930198e-04
4.31892857142857e+00 3.06330066167241e-02 2.09578324862647e-04
4.38107142857143e+00 3.03824557125272e-02 2.09354358766633e-04
4.44321428571429e+00 3.01339540929935e-02 2.09109587832649e-04
4.50535714285714e+00 2.98874849973416e-02 2.08844669676678e-04
4.56750000000000e+00 2.96430318007738e-02 2.08560240916302e-04
4.62964285714286e+00 2.94005780150236e-02 2.08256917812673e-04
4.69178571428571e+00 2.91601072866836e-02 2.07935297345156e-04
4.75392857142857e+00 2.89216033966076e-02 2.07595958204616e-04
4.81607142857143e+00 2.86850502572925e-02 2.07239461317720e-04
4.87821428571429e+00 2.84504319133255e-02 2.06866350222699e-04
4.94035714285714e+00 2.82177325402686e-02 2.06477152381753e-04
5.00250000000000e+00 2.79869364421639e-02 2.06072379493452e-04
5.06464285714286e+00 2.77580280519097e-02 2.05652527879476e-04
5.12678571428571e+00 2.75309919297292e-02 2.05218079274757e-04
5.18892857142857e+00 2.73058127625655e-02 2.04769501557742e-04
5.25107142857143e+00 2.70824753617320e-02 2.04307249068549e-04
5.31321428571429e+00 2.68609646632116e-02 2.03831762803636e-04
5.37535714285714e+00 2.66412657266081e-02 2.03343471466846e-04
5.43750000000000e+00 2.64233637329013e-02 2.02842791625517e-04
5.49964285714286e+00 2.62072439846909e-02 2.02330127942202e-04
5.56178571428571e+00 2.59928919047882e-02 2.01805873779015e-04
5.62392857142857e+00 2.57802930356126e-02 2.01270411755546e-04
5.68607142857143e+00 2.55694330370707e-02 2.00724113939737e-04
5.74821428571429e+00 2.53602976867408e-02 2.00167341933118e-04
5.81035714285714e+00 2.51528728788864e-02 1.99600447738324e-04
5.87250000000000e+00 2.49471446224246e-02 1.99023773820086e-04
5.93464285714286e+00 2.47430990410685e-02 1.98437653239849e-04
5.99678571428571e+00 2.45407223720267e-02 1.97842410133078e-04
6.05892857142857e+00 2.43400009654074e-02 1.97238360149141e-04
6.12107142857143e+00 2.41409212822950e-02 1.96625810561425e-04
6.18321428571429e+00 2.39434698948450e-02 1.96005060285075e-04
6.24535714285714e+00 2.37476334853555e-02 1.95376400609823e-04
6.30750000000000e+00 2.35533988444205e-02 1.94740115202203e-04
6.36964285714286e+00 2.33607528709923e-02 1.94096480177840e-04
6.43178571428571e+00 2.31696825711781e-02 1.93445764488476e-04
6.49392857142857e+00 2.29801750576562e-02 1.92788230277886e-04
6.55607142857143e+00 2.27922175479237e-02 1.92124132939577e-04
6.61821428571429e+00 2.26057973643220e-02 1.91453721092659e-04
6.68035714285714e+00 2.24209019331620e-02 1.90777237212000e-04
6.74250000000000e+00 2.22375187830399e-02 1.90094917593994e-04
6.80464285714286e+00 2.20556355448363e-02 1.89406992388202e-04
6.86678571428571e+00 2.18752399506003e-02 1.88713685917927e-04
6.92892857142857e+00 2.16963198329806e-02 1.88015216974415e-04
6.99107142857143e+00 2.15188631236241e-02 1.87311798840101e-04
7.05321428571429e+00 2.13428578531469e-02 1.86603639238574e-04
7.11535714285714e+00 2.11682921503098e-02 1.85890940884010e-04
7.17750000000000e+00 2.09951542404769e-02 1.85173901424543e-04
7.23964285714286e+00 2.08234324455658e-02 1.84452713447115e-04
7.30178571428571e+00 2.06531151830107e-02 1.83727564747768e-04
7.36392857142857e+00 2.04841909652105e-02 1.82998638579115e-04
7.42607142857143e+00 2.03166483980610e-02 1.82266113650722e-04
7.48821428571429e+00 2.01504761808829e-02 1.81530164063439e-04
7.55035714285714e+00 1.99856631056451e-02 1.80790959793689e-04
7.61250000000000e+00 1.98221980555501e-02 1.80048666623485e-04
7.67464285714286e+00 1.96600700049459e-02 1.79303446127630e-04
7.73678571428571e+00 1.94992680183606e-02 1.78555455904867e-04
7.79892857142857e+00 1.93397812499695e-02 1.77804849789095e-04
7.86107142857143e+00 1.91815989422458e-02 1.77051777834638e-04
7.92321428571429e+00 1.90247104258559e-02 1.76296386241601e-04
7.98535714285714e+00 1.88691051189270e-02 1.75538817786405e-04
8.04750000000000e+00 1.87147725257456e-02 1.74779211744369e-04
8.10964285714286e+00 1.85617022366401e-02 1.74017703865355e-04
8.17178571428571e+00 1.84098839270809e-02 1.73254426573813e-04
8.23392857142857e+00 1.82593073571667e-02 1.72489509151226e-04
8.29607142857143e+00 1.81099623703820e-02 1.71723077711473e-04
8.35821428571429e+00 1.79618388934672e-02 1.70955255121603e-04
8.42035714285714e+00 1.78149269357271e-02 1.70186161387247e-04
8.48250000000000e+00 1.76692165878317e-02 1.69415913571631e-04
8.54464285714286e+00 1.75246980216765e-02 1.68644625763815e-04
8.60678571428572e+00 1.73813614895418e-02 1.67872409253586e-04
8.66892857142857e+00 1.72391973236000e-02 1.67099372690581e-04
8.73107142857143e+00 1.70981959347681e-02 1.66325622053316e-04
8.79321428571429e+00 1.69583478125584e-02 1.65551260568267e-04
8.85535714285714e+00 1.68196435244274e-02 1.64776389056846e-04
8.91750000000000e+00 1.66820737146672e-02 1.64001105853493e-04
8.97964285714286e+00 1.65456291042490e-02 1.63225506769302e-04
9.04178571428571e+00 1.64103004900385e-02 1.62449685246152e-04
9.10392857142857e+00 1.62760787443220e-02 1.61673732496728e-04
9.16607142857143e+00 1.61429548137462e-02 1.60897737469617e-04
9.22821428571429e+00 1.60109197191552e-02 1.60121786768689e-04
9.29035714285714e+00 1.58799645549750e-02 1.59345964966876e-04
9.35250000000000e+00 1.57500804881890e-02 1.58570354525018e-04
9.41464285714286e+00 1.56212587581688e-02 1.57795035752927e-04
9.47678571428571e+00 1.54934906759398e-02 1.57020086946143e-04
9.53892857142857e+00 1.53667676237288e-02 1.56245584510001e-04
9.60107142857143e+00 1.52410810539813e-02 1.55471602922516e-04
9.66321428571429e+00 1.51164224891880e-02 1.54698214655312e-04
9.72535714285714e+00 1.49927835213054e-02 1.53925490458522e-04
9.78750000000000e+00 1.48701558108051e-02 1.53153499281514e-04
9.84964285714286e+00 1.47485310864970e-02 1.52382308232696e-04
9.91178571428572e+00 1.46279011448419e-02 1.51611982701603e-04
9.97392857142857e+00 1.45082578495180e-02 1.50842586469477e-04
1.00360714285714e+01 1.43895931305108e-02 1.50074181817703e-04
1.00982142857143e+01 1.42718989834658e-02 1.49306828827864e-04
1.01603571428571e+01 1.41551674711245e-02 1.48540586626359e-04
1.02225000000000e+01 1.40393907188377e-02 1.47775512599539e-04
1.02846428571429e+01 1.39245609186387e-02 1.47011662596694e-04
1.03467857142857e+01 1.38106703241836e-02 1.46249091023085e-04
1.04089285714286e+01 1.36977112546915e-02 1.45487850812706e-04
1.04710714285714e+01 1.35856760900329e-02 1.44727993854937e-04
1.05332142857143e+01 1.34745572734923e-02 1.43969569617611e-04
1.05953571428571e+01 1.33643473112037e-02 1.43212627248113e-04
1.06575000000000e+01 1.32550387685035e-02 1.42457214247475e-04
1.07196428571429e+01 1.31466242735963e-02 1.41703376796430e-04
1.07817857142857e+01 1.30390965129536e-02 1.40951159838370e-04
1.08439285714286e+01 1.29324482348622e-02 1.40200607052112e-04
1.09060714285714e+01 1.28266722449548e-02 1.39451761243739e-04
1.09682142857143e+01 1.27217614086933e-02 1.38704663070774e-04
1.10303571428571e+01 1.26177086508392e-02 1.37959352983499e-04
1.10925000000000e+01 1.25145069521272e-02 1.37215869995979e-04
1.11546428571429e+01 1.24121493525711e-02 1.36474251985930e-04
1.12167857142857e+01 1.23106289472716e-02 1.35734535769016e-04
1.12789285714286e+01 1.22099388896175e-02 1.34996757071984e-04
1.13410714285714e+01 1.21100723872118e-02 1.34260950893123e-04
1.14032142857143e+01 1.20110227041080e-02 1.33527150319423e-04
1.14653571428571e+01 1.19127831603120e-02 1.32795388321966e-04
1.15275000000000e+01 1.18153471287446e-02 1.32065696616198e-04
1.15896428571429e+01 1.17187080382265e-02 1.31338105938115e-04
1.16517857142857e+01 1.16228593696537e-02 1.30612646111001e-04
1.17139285714286e+01 1.15277946588894e-02 1.29889346019255e-04
1.17760714285714e+01 1.14335074930451e-02 1.29168233940443e-04
1.18382142857143e+01 1.13399915124974e-02 1.28449336448058e-04
1.19003571428571e+01 1.12472404104195e-02 1.27732680073392e-04
1.19625000000000e+01 1.11552479300034e-02 1.27018290247957e-04
1.20246428571429e+01 1.10640078671591e-02 1.26306191558217e-04
1.20867857142857e+01 1.09735140670200e-02 1.25596407805763e-04
1.21489285714286e+01 1.08837604265597e-02 1.24888961982006e-04
1.22110714285714e+01 1.07947408911920e-02 1.24183876574413e-04
1.22732142857143e+01 1.07064494565923e-02 1.23481172548105e-04
1.23353571428571e+01 1.06188801682566e-02 1.22780870885417e-04
1.23975000000000e+01 1.05320271189582e-02 1.22082991604015e-04
1.24596428571429e+01 1.04458844511914e-02 1.21387553992098e-04
1.25217857142857e+01 1.03604463539745e-02 1.20694576662812e-04
1.25839285714286e+01 1.02757070652201e-02 1.20004077529914e-04
1.26460714285714e+01 1.01916608686235e-02 1.19316074090560e-04
1.27082142857143e+01 1.01083020953091e-02 1.18630582479588e-04
1.27703571428571e+01 1.00256251234155e-02 1.17947618896730e-04
1.28325000000000e+01 9.94362437576366e-03 1.17267198694594e-04
1.28946428571429e+01 9.86229432207217e-03 1.16589336596090e-04
1.29567857142857e+01 9.78162947602917e-03 1.15914046743746e-04
1.30189285714286e+01 9.70162439744172e-03 1.15241342676376e-04
1.30810714285714e+01 9.62227368938451e-03 1.14571237590495e-04
1.31432142857143e+01 9.54357199969014e-03 1.13903743461687e-04
1.32053571428571e+01 9.46551402055853e-03 1.13238872368537e-04
1.32675000000000e+01 9.38809448641643e-03 1.12576635645105e-04
1.33296428571429e+01 9.31130817592819e-03 1.11917044082109e-04
1.33917857142857e+01 9.23514990931044e-03 1.11260107971696e-04
1.34539285714286e+01 9.15961455028362e-03 1.10605837085203e-04
1.35160714285714e+01 9.08469700345633e-03 1.09954240915012e-04
1.35782142857143e+01 9.01039221567555e-03 1.09305327857836e-04
1.36403571428571e+01 8.93669517565891e-03 1.08659106443638e-04
1.37025000000000e+01 8.86360091202787e-03 1.08015584547655e-04
1.37646428571429e+01 8.79110449513462e-03 1.07374769576714e-04
1.38267857142857e+01 8.71920103459690e-03 1.06736668509983e-04
1.38889285714286e+01 8.64788568107174e-03 1.06101287877796e-04
1.39510714285714e+01 8.57715362385338e-03 1.05468633985607e-04
1.40132142857143e+01 8.50700009209790e-03 1.04838712154511e-04
1.40753571428571e+01 8.43742035447690e-03 1.04211527862593e-04
1.41375000000000e+01 8.36840971736845e-03 1.03587086012024e-04
1.41996428571429e+01 8.29996352651855e-03 1.02965391101737e-04
1.42617857142857e+01 8.23207716477584e-03 1.02346447264561e-04
1.43239285714286e+01 8.16474605370529e-03 1.01730258247139e-04
1.43860714285714e+01 8.09796565138012e-03 1.01116827617445e-04
1.44482142857143e+01 8.03173145349347e-03 1.00506158058214e-04
1.45103571428571e+01 7.96603899303230e-03 9.98982524275671e-05
1.45725000000000e+01 7.90088383861179e-03 9.92931130770202e-05
1.46346428571429e+01 7.83626159598781e-03 9.86907420116178e-05
1.46967857142857e+01 7.77216790597335e-03 9.80911409238563e-05
1.47589285714286e+01 7.70859844590792e-03 9.74943111746615e-05
1.48210714285714e+01 7.64554892762592e-03 9.69002539858050e-05
1.48832142857143e+01 7.58301509846674e-03 9.63089697822941e-05
1.49453571428571e+01 7.52099274096748e-03 9.57204591784592e-05
1.50075000000000e+01 7.45947767132823e-03 9.51347223430947e-05
1.50696428571429e+01 7.39846574079004e-03 9.45517591480716e-05
1.51317857142857e+01 7.33795283371682e-03 9.39715691993761e-05
1.51939285714286e+01 7.27793486893444e-03 9.33941518190731e-05
1.52560714285714e+01 7.21840779785997e-03 9.28195062238699e-05
1.53182142857143e+01 7.15936760542006e-03 9.22476309128465e-05
1.53803571428571e+01 7.10081030976154e-03 9.16785245846508e-05
1.54425000000000e+01 7.04273196083596e-03 9.11121855462986e-05
1.55046428571429e+01 6.98512864165614e-03 9.05486118511798e-05
1.55667857142857e+01 6.92799646652887e-03 8.99878013274774e-05
1.56289285714286e+01 6.87133158227637e-03 8.94297515611152e-05
1.56910714285714e+01 6.81513016651208e-03 8.88744600615517e-05
1.57532142857143e+01 6.75938842847644e-03 8.83219236915044e-05
1.58153571428571e+01 6.70410260876418e-03 8.77721395204397e-05
1.58775000000000e+01 6.64926897801789e-03 8.72251042738437e-05
1.59396428571429e+01 6.59488383807472e-03 8.66808144614526e-05
1.60017857142857e+01 6.54094352033676e-03 8.61392664032883e-05
1.60639285714286e+01 6.48744438688598e-03 8.56004562135627e-05
1.61260714285714e+01 6.43438282889400e-03 8.50643799547001e-05
1.61882142857143e+01 6.38175526738310e-03 8.45310331059762e-05
1.62503571428571e+01 6.32955815296926e-03 8.40004113580798e-05
1.63125000000000e+01 6.27778796465552e-03 8.34725100998906e-05
1.63746428571429e+01 6.22644121087911e-03 8.29473245376713e-05
1.64367857142857e+01 6.17551442800774e-03 8.24248497189809e-05
1.64989285714286e+01 6.12500418135801e-03 8.19050805174728e-05
1.65610714285714e+01 6.07490706372765e-03 8.13880117760414e-05
1.66232142857143e+01 6.02521969608900e-03 8.08736378115888e-05
1.66853571428571e+01 5.97593872734678e-03 8.03619531549881e-05
1.67475000000000e+01 5.92706083322287e-03 7.98529520726567e-05
1.68096428571429e+01 5.87858271721317e-03 7.93466286774239e-05
1.68717857142857e+01 5.83050110919910e-03 7.88429769504857e-05
1.69339285714286e+01 5.78281276637846e-03 7.83419907270717e-05
1.69960714285714e+01 5.73551447190981e-03 7.78436638295625e-05
1.70582142857143e+01 5.68860303554473e-03 7.73479896057524e-05
1.71203571428571e+01 5.64207529339957e-03 7.68549616182290e-05
1.71825000000000e+01 5.59592810692391e-03 7.63645731982514e-05
1.72446428571429e+01 5.55015836377561e-03 7.58768175489075e-05
1.73067857142857e+01 5.50476297653780e-03 7.53916877653051e-05
1.73689285714286e+01 5.45973888357025e-03 7.49091768210542e-05
1.74310714285714e+01 5.41508304775650e-03 7.44292776921050e-05
1.74932142857143e+01 5.37079245708068e-03 7.39519829261257e-05
1.75553571428571e+01 5.32686412441237e-03 7.34772852849696e-05
1.76175000000000e+01 5.28329508655192e-03 7.30051773285560e-05
1.76796428571429e+01 5.24008240503109e-03 7.25356515108930e-05
1.77417857142857e+01 5.19722316492685e-03 7.20687001986576e-05
1.78039285714286e+01 5.15471447564048e-03 7.16043156584569e-05
1.78660714285714e+01 5.11255346973896e-03 7.11424901720883e-05
1.79282142857143e+01 5.07073730348150e-03 7.06832156347983e-05
1.79903571428571e+01 5.02926315661671e-03 7.02264841542481e-05
1.80525000000000e+01 4.98812823149856e-03 6.97722876622594e-05
1.81146428571429e+01 4.94732975381941e-03 6.93206180042227e-05
1.81767857142857e+01 4.90686497151253e-03 6.88714669562274e-05
1.82389285714286e+01 4.86673115546559e-03 6.84248262130454e-05
1.83010714285714e+01 4.82692559844855e-03 6.79806874954491e-05
1.83632142857143e+01 4.78744561559450e-03 6.75390421753235e-05
1.84253571428571e+01 4.74828854420851e-03 6.70998818342316e-05
1.84875000000000e+01 4.70945174294844e-03 6.66631979010779e-05
1.85496428571429e+01 4.67093259249649e-03 6.62289817353832e-05
1.86117857142857e+01 4.63272849454322e-03 6.57972246430697e-05
1.86739285714286e+01 4.59483687244135e-03 6.53679178651624e-05
1.87360714285714e+01 4.55725517021304e-03 6.49410526777251e-05
1.87982142857143e+01 4.51998085298934e-03 6.45166200419482e-05
1.88603571428571e+01 4.48301140682990e-03 6.40946111251968e-05
1.89225000000000e+01 4.44634433796361e-03 6.36750169627478e-05
1.89846428571429e+01 4.40997717340403e-03 6.32578285354132e-05
1.90467857142857e+01 4.37390746000845e-03 6.28430367840792e-05
1.91089285714286e+01 4.33813276507716e-03 6.24306325990717e-05
1.91710714285714e+01 4.30265067543392e-03 6.20206069132808e-05
1.92332142857143e+01 4.26745879782766e-03 6.16129503754479e-05
1.92953571428571e+01 4.23255475876248e-03 6.12076538363649e-05
1.93575000000000e+01 4.19793620379335e-03 6.08047080330190e-05
1.94196428571429e+01 4.16360079809038e-03 6.04041036609410e-05
1.94817857142857e+01 4.12954622556698e-03 6.00058313876396e-05
1.95439285714286e+01 4.09577018942942e-03 5.96098818425769e-05
1.96060714285714e+01 4.06227041132458e-03 5.92162457039576e-05
