Energy (eV)          EEDF (eV^-(3/2))     First Anisotropy
9.77272727272727e-04 4.95781189371993e+00 2.21743382200901e-03
2.93181818181818e-03 4.93183899962777e+00 3.66434110532442e-03
4.88636363636364e-03 4.90600217180890e+00 4.84457675044737e-03
6.84090909090909e-03 4.88030069750988e+00 5.74562594148814e-03
8.79545454545455e-03 4.85473386760423e+00 6.50077591273658e-03
1.07500000000000e-02 4.82930097675100e+00 7.16030132839531e-03
1.27045454545455e-02 4.80400132330316e+00 7.75016091681132e-03
1.46590909090909e-02 4.77883420913281e+00 8.28599599990911e-03
1.66136363636364e-02 4.75379894006336e+00 8.77815769317193e-03
1.85681818181818e-02 4.72889482524036e+00 9.23394616434061e-03
2.05227272727273e-02 4.70412117770068e+00 9.65875373992198e-03
2.24772727272727e-02 4.67947731384213e+00 1.00567066469755e-02
2.44318181818182e-02 4.65496255375907e+00 1.04310515437306e-02
2.63863636363636e-02 4.63057622120678e+00 1.07844015156334e-02
2.83409090909091e-02 4.60631764328745e+00 1.11188994813543e-02
3.02954545454545e-02 4.58218615080662e+00 1.14363307732614e-02
3.22500000000000e-02 4.55818107791293e+00 1.17382030293877e-02
3.42045454545455e-02 4.53430176239322e+00 1.20258043382799e-02
3.61590909090909e-02 4.51054754536491e+00 1.23002464995994e-02
3.81136363636364e-02 4.48691777152620e+00 1.25624978177680e-02
4.00681818181818e-02 4.46341178888790e+00 1.28134083872928e-02
4.20227272727273e-02 4.44002894898935e+00 1.30537298707936e-02
4.39772727272727e-02 4.41676860666094e+00 1.32841311878607e-02
4.59318181818182e-02 4.39363012016539e+00 1.35052110656922e-02
4.78863636363636e-02 4.37061285117552e+00 1.37175082764564e-02
4.98409090909091e-02 4.34771616461250e+00 1.39215099601739e-02
5.17954545454545e-02 4.32493942881529e+00 1.41176585248064e-02
5.37500000000000e-02 4.30228201534582e+00 1.43063573889059e-02
5.57045454545455e-02 4.27974329914035e+00 1.44879757957421e-02
5.76590909090909e-02 4.25732265833147e+00 1.46628528822046e-02
5.96136363636364e-02 4.23501947438435e+00 1.48313011346354e-02
6.15681818181818e-02 4.21283313193307e+00 1.49936093461649e-02
6.35227272727273e-02 4.19076301890393e+00 1.51500451567545e-02
6.54772727272727e-02 4.16880852636412e+00 1.53008572553657e-02
6.74318181818182e-02 4.14696904860349e+00 1.54462772657955e-02
6.93863636363636e-02 4.12524398311572e+00 1.55865214402230e-02
7.13409090909091e-02 4.10363273048987e+00 1.57217920960034e-02
7.32954545454545e-02 4.08213469451392e+00 1.58522789006701e-02
7.52500000000000e-02 4.06074928204269e+00 1.59781600035312e-02
7.72045454545455e-02 4.03947590309296e+00 1.60996030360691e-02
7.91590909090909e-02 4.01831397071962e+00 1.62167660028986e-02
8.11136363636364e-02 3.99726290110332e+00 1.63297980743184e-02
8.30681818181818e-02 3.97632211343403e+00 1.64388402967692e-02
8.50227272727273e-02 3.95549102999207e+00 1.65440262283204e-02
8.69772727272727e-02 3.93476907603820e+00 1.66454825157765e-02
8.89318181818182e-02 3.91415567986708e+00 1.67433293935727e-02
9.08863636363636e-02 3.89365027279018e+00 1.68376811749971e-02
9.28409090909091e-02 3.87325228905476e+00 1.69286466583616e-02
9.47954545454545e-02 3.85296116591411e+00 1.70163295140615e-02
9.67500000000000e-02 3.83277634352867e+00 1.71008286343418e-02
9.87045454545454e-02 3.81269726503156e+00 1.71822384508163e-02
1.00659090909091e-01 3.79272337643453e+00 1.72606492406502e-02
1.02613636363636e-01 3.77285412661569e+00 1.73361473295356e-02
1.04568181818182e-01 3.75308896754168e+00 1.74088154422138e-02
1.06522727272727e-01 3.73342735372541e+00 1.74787328371229e-02
1.08477272727273e-01 3.71386874289114e+00 1.75459755146118e-02
1.10431818181818e-01 3.69441259542305e+00 1.76106165422605e-02
1.12386363636364e-01 3.67505837437508e+00 1.76727260197675e-02
1.14340909090909e-01 3.65580554593726e+00 1.77323713798146e-02
1.16295454545455e-01 3.63665357877942e+00 1.77896175069028e-02
1.18250000000000e-01 3.61760194466532e+00 1.78445268723848e-02
1.20204545454545e-01 3.59865011782169e+00 1.78971596680970e-02
1.22159090909091e-01 3.57979757552805e+00 1.79475739224433e-02
1.24113636363636e-01 3.56104379750970e+00 1.79958256164912e-02
1.26068181818182e-01 3.54238826650456e+00 1.80419687842376e-02
1.28022727272727e-01 3.52383046767876e+00 1.80860556140046e-02
1.29977272727273e-01 3.50536988917186e+00 1.81281365057913e-02
1.31931818181818e-01 3.48700602166399e+00 1.81682602790205e-02
1.33886363636364e-01 3.46873835837862e+00 1.82064740707073e-02
1.35840909090909e-01 3.45056639544976e+00 1.82428235295046e-02
1.37795454545455e-01 3.43248963139991e+00 1.82773528584997e-02
1.39750000000000e-01 3.41450756762544e+00 1.83101048774152e-02
1.41704545454545e-01 3.39661970789231e+00 1.83411210879362e-02
1.43659090909091e-01 3.37882555880444e+00 1.83704417283926e-02
1.45613636363636e-01 3.36112462931632e+00 1.83981058319639e-02
1.47568181818182e-01 3.34351643118512e+00 1.84241512749027e-02
1.49522727272727e-01 3.32600047849948e+00 1.84486148285918e-02
1.51477272727273e-01 3.30857628811617e+00 1.84715321762992e-02
1.53431818181818e-01 3.29124337930977e+00 1.84929380637404e-02
1.55386363636364e-01 3.27400127377152e+00 1.85128661816221e-02
1.57340909090909e-01 3.25684949590612e+00 1.85313493088934e-02
1.59295454545455e-01 3.23978757240540e+00 1.85484193256988e-02
1.61250000000000e-01 3.22281503264190e+00 1.85641072452711e-02
1.63204545454545e-01 3.20593140825567e+00 1.85784432500190e-02
1.65159090909091e-01 3.18913623353531e+00 1.85914567200039e-02
1.67113636363636e-01 3.17242904501728e+00 1.86031762656999e-02
1.69068181818182e-01 3.15580938185494e+00 1.86136297534741e-02
1.71022727272727e-01 3.13927678542990e+00 1.86228443354146e-02
1.72977272727273e-01 3.12283079970955e+00 1.86308464492963e-02
1.74931818181818e-01 3.10647097095729e+00 1.86376619375496e-02
1.76886363636364e-01 3.09019684772902e+00 1.86433159305883e-02
1.78840909090909e-01 3.07400798111775e+00 1.86478329611773e-02
1.80795454545455e-01 3.05790392439864e+00 1.86512369644890e-02
1.82750000000000e-01 3.04188423335426e+00 1.86535512957313e-02
1.84704545454545e-01 3.02594846592962e+00 1.86547987520177e-02
1.86659090909091e-01 3.01009618254790e+00 1.86550015882777e-02
1.88613636363636e-01 2.99432694577510e+00 1.86541815374105e-02
1.90568181818182e-01 2.97864032062657e+00 1.86523598246656e-02
1.92522727272727e-01 2.96303587424097e+00 1.86495571862514e-02
1.94477272727273e-01 2.94751317617789e+00 1.86457938619752e-02
1.96431818181818e-01 2.93207179817418e+00 1.86410896941320e-02
1.98386363636364e-01 2.91671131413901e+00 1.86354640171571e-02
2.00340909090909e-01 2.90143130035854e+00 1.86289357532602e-02
2.02295454545455e-01 2.88623133519586e+00 1.86215234066399e-02
2.04250000000000e-01 2.87111099936377e+00 1.86132450737513e-02
2.06204545454545e-01 2.85606987563271e+00 1.86041184575708e-02
2.08159090909091e-01 2.84110754909591e+00 1.85941608769334e-02
2.10113636363636e-01 2.82622360688502e+00 1.85833892798329e-02
2.12068181818182e-01 2.81141763842801e+00 1.85718202519173e-02
2.14022727272727e-01 2.79668923517211e+00 1.85594700289103e-02
2.15977272727273e-01 2.78203799083477e+00 1.85463544860995e-02
2.17931818181818e-01 2.76746350119604e+00 1.85324892231021e-02
2.19886363636364e-01 2.75296536409288e+00 1.85178894615096e-02
2.21840909090909e-01 2.73854317959233e+00 1.85025701271627e-02
2.23795454545455e-01 2.72419654973494e+00 1.84865458417542e-02
2.25750000000000e-01 2.70992507876616e+00 1.84698309290235e-02
2.27704545454545e-01 2.69572837288615e+00 1.84524394246232e-02
2.29659090909091e-01 2.68160604047517e+00 1.84343850817878e-02
2.31613636363636e-01 2.66755769184950e+00 1.84156813806152e-02
2.33568181818182e-01 2.65358293948101e+00 1.83963415332446e-02
2.35522727272727e-01 2.63968139775904e+00 1.83763784926103e-02
2.37477272727273e-01 2.62585268320437e+00 1.83558049407405e-02
2.39431818181818e-01 2.61209641429039e+00 1.83346333628640e-02
2.41386363636364e-01 2.59841221143700e+00 1.83128759532488e-02
2.43340909090909e-01 2.58479969715853e+00 1.82905446872901e-02
2.45295454545455e-01 2.57125849584227e+00 1.82676513120600e-02
2.47250000000000e-01 2.55778823394660e+00 1.82442073501359e-02
2.49204545454545e-01 2.54438853978470e+00 1.82202241067575e-02
2.51159090909091e-01 2.53105904371781e+00 1.81957126733321e-02
2.53113636363636e-01 2.51779937794396e+00 1.81706839342216e-02
2.55068181818182e-01 2.50460917668650e+00 1.81451485699490e-02
2.57022727272727e-01 2.49148807598767e+00 1.81191170636482e-02
2.58977272727273e-01 2.47843571389259e+00 1.80925996891420e-02
2.60931818181818e-01 2.46545173029392e+00 1.80656065765911e-02
2.62886363636364e-01 2.45253576692555e+00 1.80381476261511e-02
2.64840909090909e-01 2.43968746749003e+00 1.80102325719269e-02
2.66795454545455e-01 2.42690647746573e+00 1.79818709722758e-02
2.68750000000000e-01 2.41419244427798e+00 1.79530722121829e-02
2.70704545454545e-01 2.40154501711051e+00 1.79238455086645e-02
2.72659090909091e-01 2.38896384707253e+00 1.78941999129468e-02
2.74613636363636e-01 2.37644858701440e+00 1.78641443156194e-02
2.76568181818182e-01 2.36399889169072e+00 1.78336874486295e-02
2.78522727272727e-01 2.35161441758014e+00 1.78028378902042e-02
2.80477272727273e-01 2.33929482304461e+00 1.77716040531991e-02
2.82431818181818e-01 2.32703976819355e+00 1.77399942437905e-02
2.84386363636364e-01 2.31484891487743e+00 1.77080165823856e-02
2.86340909090909e-01 2.30272192679828e+00 1.76756790608596e-02
2.88295454545455e-01 2.29065846934076e+00 1.76429895330175e-02
2.90250000000000e-01 2.27865820972076e+00 1.76099557160650e-02
2.92204545454545e-01 2.26672081682017e+00 1.75765851948138e-02
2.94159090909091e-01 2.25484596133208e+00 1.75428854230230e-02
2.96113636363636e-01 2.24303331559902e+00 1.75088637274368e-02
2.98068181818182e-01 2.23128255375495e+00 1.74745273090024e-02
3.00022727272727e-01 2.21959335156690e+00 1.74398832467459e-02
3.01977272727273e-01 2.20796538657372e+00 1.74049384866259e-02
3.03931818181818e-01 2.19639833796659e+00 1.73696998943660e-02
3.05886363636364e-01 2.18489188658259e+00 1.73341741829984e-02
3.07840909090909e-01 2.17344571500107e+00 1.72983679644240e-02
3.09795454545455e-01 2.16205950739478e+00 1.72622877402432e-02
3.11750000000000e-01 2.15073294965977e+00 1.72259399026360e-02
3.13704545454545e-01 2.13946572926960e+00 1.71893307377317e-02
3.15659090909091e-01 2.12825753540238e+00 1.71524664264043e-02
3.17613636363636e-01 2.11710805879796e+00 1.71153530475122e-02
3.19568181818182e-01 2.10601699188221e+00 1.70779965786191e-02
3.21522727272727e-01 2.09498402862715e+00 1.70404028991228e-02
3.23477272727273e-01 2.08400886467248e+00 1.70025777797147e-02
3.25431818181818e-01 2.07309119721984e+00 1.69645269301852e-02
3.27386363636364e-01 2.06223072502651e+00 1.69262559330049e-02
3.29340909090909e-01 2.05142714848985e+00 1.68877702899954e-02
3.31295454545455e-01 2.04068016951548e+00 1.68490754136368e-02
3.33250000000000e-01 2.02998949163133e+00 1.68101766275571e-02
3.35204545454545e-01 2.01935481985847e+00 1.67710791692855e-02
3.37159090909091e-01 2.00877586082266e+00 1.67317881906942e-02
3.39113636363636e-01 1.99825232262783e+00 1.66923087606543e-02
3.41068181818182e-01 1.98778391496527e+00 1.66526458654221e-02
3.43022727272727e-01 1.97737034898954e+00 1.66128044112162e-02
3.44977272727273e-01 1.96701133742539e+00 1.65727892143330e-02
3.46931818181818e-01 1.95670659447378e+00 1.65326050445720e-02
3.48886363636364e-01 1.94645583580579e+00 1.64922565642901e-02
3.50840909090909e-01 1.93625877863683e+00 1.64517483708251e-02
3.52795454545455e-01 1.92611514160951e+00 1.64110849883043e-02
3.54750000000000e-01 1.91602464489411e+00 1.63702708678837e-02
3.56704545454545e-01 1.90598701007372e+00 1.63293103900382e-02
3.58659090909091e-01 1.89600196024262e+00 1.62882078647567e-02
3.60613636363636e-01 1.88606921989362e+00 1.62469675337713e-02
3.62568181818182e-01 1.87618851501448e+00 1.62055935707138e-02
3.64522727272727e-01 1.86635957297733e+00 1.61640900832748e-02
3.66477272727273e-01 1.85658212263313e+00 1.61224611039711e-02
3.68431818181818e-01 1.84685589422782e+00 1.60807106297261e-02
3.70386363636364e-01 1.83718061939638e+00 1.60388425658905e-02
3.72340909090909e-01 1.82755603122843e+00 1.59968607649160e-02
3.74295454545455e-01 1.81798186416363e+00 1.59547690186875e-02
3.76250000000000e-01 1.80845785408061e+00 1.59125710585855e-02
3.78204545454545e-01 1.79898373819438e+00 1.58702705574235e-02
3.80159090909091e-01 1.78955925514348e+00 1.58278711294843e-02
3.82113636363636e-01 1.78018414488924e+00 1.57853763324053e-02
3.84068181818182e-01 1.77085814880125e+00 1.57427896671868e-02
3.86022727272727e-01 1.76158100955849e+00 1.57001145800233e-02
3.87977272727273e-01 1.75235247123307e+00 1.56573544537107e-02
3.89931818181818e-01 1.74317227921510e+00 1.56145126438145e-02
3.91886363636364e-01 1.73404018020703e+00 1.55715924271911e-02
3.93840909090909e-01 1.72495592228171e+00 1.55285970373443e-02
3.95795454545455e-01 1.71591925478876e+00 1.54855296572658e-02
3.97750000000000e-01 1.70692992843354e+00 1.54423934193811e-02
3.99704545454545e-01 1.69798769518516e+00 1.53991914072089e-02
4.01659090909091e-01 1.68909230835395e+00 1.53559266552836e-02
4.03613636363636e-01 1.68024352250115e+00 1.53126021507754e-02
4.05568181818182e-01 1.67144109351487e+00 1.52692208333992e-02
4.07522727272727e-01 1.66268477852138e+00 1.52257855969869e-02
4.09477272727273e-01 1.65397433595960e+00 1.51822992814979e-02
4.11431818181818e-01 1.64530952551364e+00 1.51387647061481e-02
4.13386363636364e-01 1.63669010810728e+00 1.50951846220229e-02
4.15340909090909e-01 1.62811584595567e+00 1.50515617444646e-02
4.17295454545455e-01 1.61958650248114e+00 1.50078987464042e-02
4.19250000000000e-01 1.61110184238355e+00 1.49641982582299e-02
4.21204545454545e-01 1.60266163155765e+00 1.49204628692200e-02
4.23159090909091e-01 1.59426563716206e+00 1.48766951273976e-02
4.25113636363636e-01 1.58591362753811e+00 1.48328975409291e-02
4.27068181818182e-01 1.57760537227750e+00 1.47890725779685e-02
4.29022727272727e-01 1.56934064214255e+00 1.47452226680242e-02
4.30977272727273e-01 1.56111920913262e+00 1.47013501945341e-02
4.32931818181818e-01 1.55294084642331e+00 1.46574575252679e-02
4.34886363636364e-01 1.54480532836120e+00 1.46135469686651e-02
4.36840909090909e-01 1.53671243050993e+00 1.45696208035606e-02
4.38795454545455e-01 1.52866192957432e+00 1.45256812729784e-02
4.40750000000000e-01 1.52065360346326e+00 1.44817305839463e-02
4.42704545454545e-01 1.51268723121517e+00 1.44377709087514e-02
4.44659090909091e-01 1.50476259305967e+00 1.43938043847441e-02
4.46613636363636e-01 1.49687947034438e+00 1.43498331155605e-02
4.48568181818182e-01 1.48903764559544e+00 1.43058591709231e-02
4.50522727272727e-01 1.48123690244554e+00 1.42618845878369e-02
4.52477272727273e-01 1.47347702569331e+00 1.42179113636982e-02
4.54431818181818e-01 1.46575780124843e+00 1.41739414842379e-02
4.56386363636364e-01 1.45807901612658e+00 1.41299768832482e-02
4.58340909090909e-01 1.45044045849063e+00 1.40860194699148e-02
4.60295454545455e-01 1.44284191758208e+00 1.40420711230471e-02
4.62250000000000e-01 1.43528318377739e+00 1.39981336908572e-02
4.64204545454545e-01 1.42776404852064e+00 1.39542089920604e-02
4.66159090909091e-01 1.42028430437878e+00 1.39102988156557e-02
4.68113636363636e-01 1.41284374497542e+00 1.38664049220004e-02
4.70068181818182e-01 1.40544216504509e+00 1.38225290425809e-02
4.72022727272727e-01 1.39807936036818e+00 1.37786728810681e-02
4.73977272727273e-01 1.39075512782416e+00 1.37348381069202e-02
4.75931818181818e-01 1.38346926534188e+00 1.36910263811091e-02
4.77886363636364e-01 1.37622157189478e+00 1.36472393189372e-02
4.79840909090909e-01 1.36901184753770e+00 1.36034785152026e-02
4.81795454545455e-01 1.36183989334493e+00 1.35597455388349e-02
4.83750000000000e-01 1.35470551146067e+00 1.35160419326559e-02
4.85704545454545e-01 1.34760850503809e+00 1.34723692143553e-02
4.87659090909091e-01 1.34054867828892e+00 1.34287288762492e-02
4.89613636363636e-01 1.33352583642351e+00 1.33851223862325e-02
4.91568181818182e-01 1.32653978569948e+00 1.33415511875360e-02
4.93522727272727e-01 1.31959033336285e+00 1.32980166996615e-02
4.95477272727273e-01 1.31267728769579e+00 1.32545203124436e-02
4.97431818181818e-01 1.30580045797158e+00 1.32110634097627e-02
4.99386363636364e-01 1.29895965444997e+00 1.31676473351902e-02
5.01340909090909e-01 1.29215468841028e+00 1.31242734151833e-02
5.03295454545455e-01 1.28538537209517e+00 1.30809429541015e-02
5.05250000000000e-01 1.27865151875604e+00 1.30376572339597e-02
5.07204545454545e-01 1.27195294259769e+00 1.29944175152905e-02
5.09159090909091e-01 1.26528945882300e+00 1.29512250368967e-02
5.11113636363636e-01 1.25866088357844e+00 1.29080810167023e-02
5.13068181818182e-01 1.25206703399793e+00 1.28649866514967e-02
5.15022727272727e-01 1.24550772814935e+00 1.28219431177716e-02
5.16977272727273e-01 1.23898278507749e+00 1.27789515662089e-02
5.18931818181818e-01 1.23249202476315e+00 1.27360131435596e-02
5.20886363636364e-01 1.22603526811873e+00 1.26931289608765e-02
5.22840909090909e-01 1.21961233701794e+00 1.26503001149241e-02
5.24795454545455e-01 1.21322305424475e+00 1.26075276835423e-02
5.26750000000000e-01 1.20686724353422e+00 1.25648127253942e-02
5.28704545454545e-01 1.20054472952234e+00 1.25221562807433e-02
5.30659090909091e-01 1.19425533778608e+00 1.24795593711987e-02
5.32613636363636e-01 1.18799889479407e+00 1.24370230004754e-02
5.34568181818182e-01 1.18177522794597e+00 1.23945481541405e-02
5.36522727272727e-01 1.17558416552388e+00 1.23521358003615e-02
5.38477272727273e-01 1.16942553673109e+00 1.23097868847850e-02
5.40431818181818e-01 1.16329917165480e+00 1.22675023507511e-02
5.42386363636364e-01 1.15720490126191e+00 1.22252831098946e-02
5.44340909090909e-01 1.15114255742583e+00 1.21831300619211e-02
5.46295454545454e-01 1.14511197287998e+00 1.21410440903026e-02
5.48250000000000e-01 1.13911298125461e+00 1.20990260620226e-02
5.50204545454545e-01 1.13314541703116e+00 1.20570768282752e-02
5.52159090909091e-01 1.12720911557843e+00 1.20151972242107e-02
5.54113636363636e-01 1.12130391310758e+00 1.19733880696187e-02
5.56068181818182e-01 1.11542964670777e+00 1.19316501686786e-02
5.58022727272727e-01 1.10958615430185e+00 1.18899843106289e-02
5.59977272727273e-01 1.10377327468135e+00 1.18483912650125e-02
5.61931818181818e-01 1.09799084747246e+00 1.18068718003699e-02
5.63886363636364e-01 1.09223871313211e+00 1.17654266570096e-02
5.65840909090909e-01 1.08651671297206e+00 1.17240565652944e-02
5.67795454545455e-01 1.08082468911653e+00 1.16827622416427e-02
5.69750000000000e-01 1.07516248453551e+00 1.16415443882787e-02
5.71704545454545e-01 1.06952994300313e+00 1.16004036938569e-02
5.73659090909091e-01 1.06392690913030e+00 1.15593408332167e-02
5.75613636363636e-01 1.05835322832376e+00 1.15183564679989e-02
5.77568181818182e-01 1.05280874681823e+00 1.14774512463981e-02
5.79522727272727e-01 1.04729331163601e+00 1.14366258037670e-02
5.81477272727273e-01 1.04180677061862e+00 1.13958807582002e-02
5.83431818181818e-01 1.03634897239576e+00 1.13552167278333e-02
5.85386363636364e-01 1.03091976638153e+00 1.13146343056069e-02
5.87340909090909e-01 1.02551900279621e+00 1.12741340761926e-02
5.89295454545455e-01 1.02014653262758e+00 1.12337166122736e-02
5.91250000000000e-01 1.01480220766109e+00 1.11933824743002e-02
5.93204545454545e-01 1.00948588044178e+00 1.11531322110563e-02
5.95159090909091e-01 1.00419740430391e+00 1.11129663594189e-02
5.97113636363636e-01 9.98936633333464e-01 1.10728854449161e-02
5.99068181818182e-01 9.93703422397342e-01 1.10328899814869e-02
6.01022727272727e-01 9.88497627106408e-01 1.09929804720271e-02
6.02977272727273e-01 9.83319103844157e-01 1.09531574042857e-02
6.04931818181818e-01 9.78167709738304e-01 1.09134212668846e-02
6.06886363636364e-01 9.73043302657230e-01 1.08737725259201e-02
6.08840909090909e-01 9.67945741229645e-01 1.08342116406393e-02
6.10795454545454e-01 9.62874884809263e-01 1.07947390599766e-02
6.12750000000000e-01 9.57830593502100e-01 1.07553552223213e-02
6.14704545454545e-01 9.52812728131683e-01 1.07160605560325e-02
6.16659090909091e-01 9.47821150265894e-01 1.06768554792023e-02
