Energy (eV)          EEDF (eV^-(3/2))     First Anisotropy
2.69827586206897e-02 4.11754644074750e-02 2.02814963448098e-05
8.09482758620690e-02 4.09312396802492e-02 3.35038269184981e-05
1.34913793103448e-01 4.06884635280965e-02 4.42641276231281e-05
1.88879310344828e-01 4.04471273569250e-02 5.24603234745456e-05
2.42844827586207e-01 4.02072226275786e-02 5.93138831851323e-05
2.96810344827586e-01 3.99687408494165e-02 6.52859920108733e-05
3.50775862068965e-01 3.97316735823877e-02 7.06150018384879e-05
4.04741379310345e-01 3.94960124359384e-02 7.54446626460215e-05
4.58706896551724e-01 3.92617490706022e-02 7.98701916352929e-05
5.12672413793103e-01 3.90288751956380e-02 8.39588019452295e-05
5.66637931034483e-01 3.87973825695090e-02 8.77601859311658e-05
6.20603448275862e-01 3.85672629991950e-02 9.13124024888982e-05
6.74568965517241e-01 3.83385083410778e-02 9.46454249331084e-05
7.28534482758621e-01 3.81111104994072e-02 9.77833989661603e-05
7.82500000000000e-01 3.78850614264591e-02 1.00746143660109e-04
8.36465517241379e-01 3.76603531219764e-02 1.03550185651200e-04
8.90431034482759e-01 3.74369776337266e-02 1.06209493413944e-04
9.44396551724138e-01 3.72149270563425e-02 1.08736011918135e-04
9.98362068965517e-01 3.69941935313475e-02 1.11140060447987e-04
1.05232758620690e+00 3.67747692462262e-02 1.13430633932954e-04
1.10629310344828e+00 3.65566464375413e-02 1.15615636430095e-04
1.16025862068966e+00 3.63398173837988e-02 1.17702062878144e-04
1.21422413793103e+00 3.61242744113742e-02 1.19696142889430e-04
1.26818965517241e+00 3.59100098921376e-02 1.21603457195922e-04
1.32215517241379e+00 3.56970162448744e-02 1.23429032079421e-04
1.37612068965517e+00 3.54852859299821e-02 1.25177415874901e-04
1.43008620689655e+00 3.52748114542593e-02 1.26852742078709e-04
1.48405172413793e+00 3.50655853689539e-02 1.28458782823680e-04
1.53801724137931e+00 3.48576002708862e-02 1.29998993735258e-04
1.59198275862069e+00 3.46508487979741e-02 1.31476551059374e-04
1.64594827586207e+00 3.44453236332063e-02 1.32894382957471e-04
1.69991379310345e+00 3.42410175042064e-02 1.34255198071368e-04
1.75387931034483e+00 3.40379231792639e-02 1.35561508404209e-04
1.80784482758621e+00 3.38360334708031e-02 1.36815649222675e-04
1.86181034482759e+00 3.36353412338756e-02 1.38019797116710e-04
1.91577586206897e+00 3.34358393669773e-02 1.39175985738882e-04
1.96974137931034e+00 3.32375208085839e-02 1.40286118926084e-04
2.02370689655172e+00 3.30403785401279e-02 1.41351982187947e-04
2.07767241379310e+00 3.28444055846761e-02 1.42375253570697e-04
2.13163793103448e+00 3.26495950076091e-02 1.43357513265528e-04
2.18560344827586e+00 3.24559399135571e-02 1.44300251521187e-04
2.23956896551724e+00 3.22634334489914e-02 1.45204875498799e-04
2.29353448275862e+00 3.20720688018834e-02 1.46072716854736e-04
2.34750000000000e+00 3.18818391989065e-02 1.46905037158660e-04
2.40146551724138e+00 3.16927379077633e-02 1.47703032882951e-04
2.45543103448276e+00 3.15047582360877e-02 1.48467840533703e-04
2.50939655172414e+00 3.13178935319644e-02 1.49200541272352e-04
2.56336206896552e+00 3.11321371814113e-02 1.49902164546457e-04
2.61732758620690e+00 3.09474826104375e-02 1.50573691212357e-04
2.67129310344828e+00 3.07639232847396e-02 1.51216057663561e-04
2.72525862068965e+00 3.05814527073777e-02 1.51830158360932e-04
2.77922413793103e+00 3.04000644206487e-02 1.52416848254622e-04
2.83318965517241e+00 3.02197520051491e-02 1.52976945561775e-04
2.88715517241379e+00 3.00405090801800e-02 1.53511234298247e-04
2.94112068965517e+00 2.98623293016265e-02 1.54020466105549e-04
2.99508620689655e+00 2.96852063636356e-02 1.54505361905244e-04
3.04905172413793e+00 2.95091339977573e-02 1.54966613955038e-04
3.10301724137931e+00 2.93341059732923e-02 1.55404887731286e-04
3.15698275862069e+00 2.91601160953494e-02 1.55820823195078e-04
3.21094827586207e+00 2.89871582063557e-02 1.56215035821696e-04
3.26491379310345e+00 2.88152261857933e-02 1.56588118646615e-04
3.31887931034483e+00 2.86443139483810e-02 1.56940643110141e-04
3.37284482758621e+00 2.84744154454668e-02 1.57273159940065e-04
3.42681034482759e+00 2.83055246642743e-02 1.57586200451804e-04
3.48077586206897e+00 2.81376356281776e-02 1.57880277745281e-04
3.53474137931034e+00 2.79707423950224e-02 1.58155887391644e-04
3.58870689655172e+00 2.78048390583891e-02 1.58413508055315e-04
3.64267241379310e+00 2.76399197468925e-02 1.58653602530959e-04
3.69663793103448e+00 2.74759786244196e-02 1.58876618699863e-04
3.75060344827586e+00 2.73130098885727e-02 1.59082990015441e-04
3.80456896551724e+00 2.71510077718212e-02 1.59273135839298e-04
3.85853448275862e+00 2.69899665412643e-02 1.59447462697717e-04
3.91250000000000e+00 2.68298804971616e-02 1.59606364547885e-04
3.96646551724138e+00 2.66707439740028e-02 1.59750223115560e-04
4.02043103448276e+00 2.65125513398815e-02 1.59879408627153e-04
4.07439655172414e+00 2.63552969966847e-02 1.59994280486091e-04
4.12836206896552e+00 2.61989753787225e-02 1.60095187535843e-04
4.18232758620690e+00 2.60435809537082e-02 1.60182468199781e-04
4.23629310344828e+00 2.58891082225353e-02 1.60256451473180e-04
4.29025862068965e+00 2.57355517179794e-02 1.60317457023092e-04
4.34422413793103e+00 2.55829060056133e-02 1.60365795364517e-04
4.39818965517241e+00 2.54311656832420e-02 1.60401768405548e-04
4.45215517241379e+00 2.52803253810539e-02 1.60425669951340e-04
4.50612068965517e+00 2.51303797604031e-02 1.60437785838002e-04
4.56008620689655e+00 2.49813235146524e-02 1.60438394047081e-04
4.61405172413793e+00 2.48331513686398e-02 1.60427765176619e-04
4.66801724137931e+00 2.46858580788097e-02 1.60406162876420e-04
4.72198275862069e+00 2.45394384320698e-02 1.60373843932119e-04
4.77594827586207e+00 2.43938872465674e-02 1.60331058251394e-04
4.82991379310345e+00 2.42491993714866e-02 1.60278049605836e-04
4.88387931034483e+00 2.41053696859589e-02 1.60215055599757e-04
4.93784482758621e+00 2.39623930997924e-02 1.60142307713151e-04
4.99181034482759e+00 2.38202645529863e-02 1.60060031675906e-04
5.04577586206897e+00 2.36789790158337e-02 1.59968447813351e-04
5.09974137931034e+00 2.35385314878958e-02 1.59867771072001e-04
5.15370689655172e+00 2.33989169986759e-02 1.59758211034206e-04
5.20767241379310e+00 2.32601306071596e-02 1.59639972251791e-04
5.26163793103448e+00 2.31221674019024e-02 1.59513254553917e-04
5.31560344827586e+00 2.29850225000618e-02 1.59378253049265e-04
5.36956896551724e+00 2.28486910480223e-02 1.59235158046642e-04
5.42353448275862e+00 2.27131682212075e-02 1.59084155646553e-04
5.47750000000000e+00 2.25784492231542e-02 1.58925427653597e-04
5.53146551724138e+00 2.24445292861010e-02 1.58759151557941e-04
5.58543103448276e+00 2.23114036705654e-02 1.58585500812886e-04
5.63939655172414e+00 2.21790676654121e-02 1.58404645090618e-04
5.69336206896552e+00 2.20475165869757e-02 1.58216750257205e-04
5.74732758620690e+00 2.19167457796084e-02 1.58021978273230e-04
5.80129310344828e+00 2.17867506155008e-02 1.57820487716764e-04
5.85525862068966e+00 2.16575264938426e-02 1.57612433678999e-04
5.90922413793103e+00 2.15290688413382e-02 1.57397967725344e-04
5.96318965517241e+00 2.14013731118174e-02 1.57177238131440e-04
6.01715517241379e+00 2.12744347862863e-02 1.56950390100434e-04
6.07112068965517e+00 2.11482493721302e-02 1.56717565721040e-04
6.12508620689655e+00 2.10228124035944e-02 1.56478903920103e-04
6.17905172413793e+00 2.08981194414122e-02 1.56234540680093e-04
6.23301724137931e+00 2.07741660728467e-02 1.55984609239085e-04
6.28698275862069e+00 2.06509479109343e-02 1.55729240041844e-04
6.34094827586207e+00 2.05284605949321e-02 1.55468560625962e-04
6.39491379310345e+00 2.04066997901532e-02 1.55202696064128e-04
6.44887931034483e+00 2.02856611872386e-02 1.54931768848249e-04
6.50284482758621e+00 2.01653405025813e-02 1.54655898832802e-04
6.55681034482759e+00 2.00457334779817e-02 1.54375203424685e-04
6.61077586206897e+00 1.99268358806773e-02 1.54089797757689e-04
6.66474137931035e+00 1.98086435026494e-02 1.53799794636067e-04
6.71870689655172e+00 1.96911521610201e-02 1.53505304474102e-04
6.77267241379310e+00 1.95743576977214e-02 1.53206435473295e-04
6.82663793103448e+00 1.94582559795188e-02 1.52903293785047e-04
6.88060344827586e+00 1.93428428973507e-02 1.52595983451039e-04
6.93456896551724e+00 1.92281143666995e-02 1.52284606286406e-04
6.98853448275862e+00 1.91140663274373e-02 1.51969262261508e-04
7.04250000000000e+00 1.90006947431907e-02 1.51650049384378e-04
7.09646551724138e+00 1.88879956016915e-02 1.51327063636824e-04
7.15043103448276e+00 1.87759649144697e-02 1.51000399132069e-04
7.20439655172414e+00 1.86645987168668e-02 1.50670148259359e-04
7.25836206896552e+00 1.85538930674293e-02 1.50336401621737e-04
7.31232758620690e+00 1.84438440482375e-02 1.49999247920508e-04
7.36629310344828e+00 1.83344477647585e-02 1.49658774305217e-04
7.42025862068965e+00 1.82257003452613e-02 1.49315066257955e-04
7.47422413793103e+00 1.81175979411291e-02 1.48968207528112e-04
7.52818965517241e+00 1.80101367265719e-02 1.48618280273928e-04
7.58215517241379e+00 1.79033128986332e-02 1.48265365192226e-04
7.63612068965517e+00 1.77971226766295e-02 1.47909541455293e-04
7.69008620689655e+00 1.76915623024443e-02 1.47550886645190e-04
7.74405172413793e+00 1.75866280402511e-02 1.47189476887609e-04
7.79801724137931e+00 1.74823161765163e-02 1.46825386974530e-04
7.85198275862069e+00 1.73786230194630e-02 1.46458690300858e-04
7.90594827586207e+00 1.72755448993466e-02 1.46089458753344e-04
7.95991379310345e+00 1.71730781683174e-02 1.45717763019096e-04
8.01387931034483e+00 1.70712191999041e-02 1.45343672474860e-04
8.06784482758621e+00 1.69699643892749e-02 1.44967255121937e-04
8.12181034482759e+00 1.68693101529791e-02 1.44588577707753e-04
8.17577586206897e+00 1.67692529289432e-02 1.44207705837147e-04
8.22974137931035e+00 1.66697891759757e-02 1.43824703909806e-04
8.28370689655172e+00 1.65709153740121e-02 1.43439635055624e-04
8.33767241379310e+00 1.64726280238669e-02 1.43052561250304e-04
8.39163793103448e+00 1.63749236472257e-02 1.42663543421174e-04
8.44560344827586e+00 1.62777987861711e-02 1.42272641385073e-04
8.49956896551724e+00 1.61812500034131e-02 1.41879913743453e-04
8.55353448275862e+00 1.60852738821616e-02 1.41485418156626e-04
8.60750000000000e+00 1.59898670256672e-02 1.41089211239375e-04
8.66146551724138e+00 1.58950260574410e-02 1.40691348497956e-04
8.71543103448276e+00 1.58007476210209e-02 1.40291884435967e-04
8.76939655172414e+00 1.57070283799600e-02 1.39890872651164e-04
8.82336206896552e+00 1.56138650173864e-02 1.39488365775102e-04
8.87732758620690e+00 1.55212542362091e-02 1.39084415372604e-04
8.93129310344828e+00 1.54291927589961e-02 1.38679072196776e-04
8.98525862068965e+00 1.53376773275485e-02 1.38272386089102e-04
9.03922413793103e+00 1.52467047030964e-02 1.37864405918494e-04
9.09318965517241e+00 1.51562716660800e-02 1.37455179678603e-04
9.14715517241379e+00 1.50663750161341e-02 1.37044754576826e-04
9.20112068965517e+00 1.49770115716784e-02 1.36633176975955e-04
9.25508620689655e+00 1.48881781701028e-02 1.36220492334240e-04
9.30905172413793e+00 1.47998716675556e-02 1.35806745298501e-04
9.36301724137931e+00 1.47120889389259e-02 1.35391979789285e-04
9.41698275862069e+00 1.46248268774506e-02 1.34976238943542e-04
9.47094827586207e+00 1.45380823948883e-02 1.34559565020952e-04
9.52491379310345e+00 1.44518524214054e-02 1.34141999632782e-04
9.57887931034483e+00 1.43661339051949e-02 1.33723583648937e-04
9.63284482758621e+00 1.42809238126421e-02 1.33304357140341e-04
9.68681034482759e+00 1.41962191281256e-02 1.32884359465029e-04
9.74077586206896e+00 1.41120168539970e-02 1.32463629346863e-04
9.79474137931035e+00 1.40283140102147e-02 1.32042204820444e-04
9.84870689655172e+00 1.39451076344993e-02 1.31620123174684e-04
9.90267241379310e+00 1.38623947821419e-02 1.31197421035404e-04
9.95663793103448e+00 1.37801725259821e-02 1.30774134440841e-04
1.00106034482759e+01 1.36984379560556e-02 1.30350298755778e-04
1.00645689655172e+01 1.36171881798216e-02 1.29925948649378e-04
1.01185344827586e+01 1.35364203218930e-02 1.29501118269415e-04
1.01725000000000e+01 1.34561315238564e-02 1.29075841465240e-04
1.02264655172414e+01 1.33763189434756e-02 1.28650150828709e-04
1.02804310344828e+01 1.32969797569368e-02 1.28224078365562e-04
1.03343965517241e+01 1.32181111563882e-02 1.27797656139114e-04
1.03883620689655e+01 1.31397103506316e-02 1.27370915325491e-04
1.04423275862069e+01 1.30617745650245e-02 1.26943886542932e-04
1.04962931034483e+01 1.29843010413824e-02 1.26516600157269e-04
1.05502586206897e+01 1.29072870371532e-02 1.26089085400489e-04
1.06042241379310e+01 1.28307298275150e-02 1.25661370976391e-04
1.06581896551724e+01 1.27546267030715e-02 1.25233485671355e-04
1.07121551724138e+01 1.26789749704961e-02 1.24805457456271e-04
1.07661206896552e+01 1.26037719524376e-02 1.24377313798772e-04
1.08200862068966e+01 1.25290149874256e-02 1.23949081953048e-04
1.08740517241379e+01 1.24547014290952e-02 1.23520788121496e-04
1.09280172413793e+01 1.23808286481469e-02 1.23092458029659e-04
1.09819827586207e+01 1.23073940301879e-02 1.22664117506067e-04
1.10359482758621e+01 1.22343949763313e-02 1.22235791628229e-04
1.10899137931034e+01 1.21618289031059e-02 1.21807505288323e-04
1.11438793103448e+01 1.20896932417190e-02 1.21379282388984e-04
1.11978448275862e+01 1.20179854399119e-02 1.20951146394369e-04
1.12518103448276e+01 1.19467029599116e-02 1.20523120886057e-04
1.13057758620690e+01 1.18758432789971e-02 1.20095228743759e-04
1.13597413793103e+01 1.18054038894100e-02 1.19667492428733e-04
1.14137068965517e+01 1.17353822982672e-02 1.19239934247014e-04
1.14676724137931e+01 1.16657760268668e-02 1.18812575583991e-04
1.15216379310345e+01 1.15965826124254e-02 1.18385437428048e-04
1.15756034482759e+01 1.15277996061553e-02 1.17958540898823e-04
1.16295689655172e+01 1.14594245737931e-02 1.17531906467571e-04
1.16835344827586e+01 1.13914550955138e-02 1.17105554226384e-04
1.17375000000000e+01 1.13238887658455e-02 1.16679504138343e-04
1.17914655172414e+01 1.12567231930167e-02 1.16253775308785e-04
1.18454310344828e+01 1.11899560005834e-02 1.15828386483094e-04
1.18993965517241e+01 1.11235848256233e-02 1.15403356548972e-04
1.19533620689655e+01 1.10576073192289e-02 1.14978703794265e-04
1.20073275862069e+01 1.09920211464247e-02 1.14554446162833e-04
1.20612931034483e+01 1.09268239860855e-02 1.14130601492380e-04
1.21152586206897e+01 1.08620135303205e-02 1.13707186820422e-04
1.21692241379310e+01 1.07975874859992e-02 1.13284218857776e-04
1.22231896551724e+01 1.07335435730535e-02 1.12861714466282e-04
1.22771551724138e+01 1.06698795249389e-02 1.12439689952051e-04
1.23311206896552e+01 1.06065930885548e-02 1.12018161308795e-04
1.23850862068966e+01 1.05436820241644e-02 1.11597144444045e-04
1.24390517241379e+01 1.04811441048155e-02 1.11176654517963e-04
1.24930172413793e+01 1.04189771177708e-02 1.10756706393877e-04
1.25469827586207e+01 1.03571788629115e-02 1.10337315092858e-04
1.26009482758621e+01 1.02957471531680e-02 1.09918495120508e-04
1.26549137931034e+01 1.02346798144432e-02 1.09500260910721e-04
1.27088793103448e+01 1.01739746850598e-02 1.09082626190570e-04
1.27628448275862e+01 1.01136296171188e-02 1.08665604412884e-04
1.28168103448276e+01 1.00536424749802e-02 1.08249209192828e-04
1.28707758620690e+01 9.99401113567069e-03 1.07833453661179e-04
1.29247413793103e+01 9.93473348880906e-03 1.07418350686243e-04
1.29787068965517e+01 9.87580743653171e-03 1.07003913080277e-04
1.30326724137931e+01 9.81723089297056e-03 1.06590152994092e-04
1.30866379310345e+01 9.75900178552974e-03 1.06177082328960e-04
1.31406034482759e+01 9.70111805345397e-03 1.05764713152327e-04
1.31945689655172e+01 9.64357764821078e-03 1.05353057081442e-04
1.32485344827586e+01 9.58637853341818e-03 1.04942125494628e-04
1.33025000000000e+01 9.52951868477287e-03 1.04531929727871e-04
1.33564655172414e+01 9.47299608955703e-03 1.04122480497596e-04
1.34104310344828e+01 9.41680874783826e-03 1.03713788293013e-04
1.34643965517241e+01 9.36095467112039e-03 1.03305863772148e-04
1.35183620689655e+01 9.30543188270140e-03 1.02898717174187e-04
1.35723275862069e+01 9.25023841760385e-03 1.02492358520688e-04
1.36262931034483e+01 9.19537232250539e-03 1.02086797802893e-04
1.36802586206897e+01 9.14083165527260e-03 1.01682044431212e-04
1.37342241379310e+01 9.08661448608956e-03 1.01278107609086e-04
1.37881896551724e+01 9.03271889618546e-03 1.00874996710345e-04
1.38421551724138e+01 8.97914297817004e-03 1.00472720718792e-04
1.38961206896552e+01 8.92588483596667e-03 1.00071288419956e-04
1.39500862068966e+01 8.87294258474503e-03 9.96707085795655e-05
1.40040517241379e+01 8.82031435048033e-03 9.92709894183822e-05
1.40580172413793e+01 8.76799827101530e-03 9.88721389685679e-05
1.41119827586207e+01 8.71599249485964e-03 9.84741654333725e-05
1.41659482758621e+01 8.66429518150448e-03 9.80770766525674e-05
1.42199137931034e+01 8.61290450135800e-03 9.76808804537418e-05
1.42738793103448e+01 8.56181863532382e-03 9.72855841472681e-05
1.43278448275862e+01 8.51103577581193e-03 9.68911948689027e-05
1.43818103448276e+01 8.46055412559343e-03 9.64977199257043e-05
1.44357758620690e+01 8.41037189809932e-03 9.61051662819420e-05
1.44897413793103e+01 8.36048731735710e-03 9.57135407345385e-05
1.45437068965517e+01 8.31089861792844e-03 9.53228500764965e-05
1.45976724137931e+01 8.26160404451014e-03 9.49331006148969e-05
1.46516379310345e+01 8.21260185288633e-03 9.45442984976533e-05
1.47056034482759e+01 8.16389030884683e-03 9.41564500433975e-05
1.47595689655172e+01 8.11546768846747e-03 9.37695612508619e-05
1.48135344827586e+01 8.06733227804922e-03 9.33836379662002e-05
1.48675000000000e+01 8.01948237405773e-03 9.29986860388881e-05
1.49214655172414e+01 7.97191628274550e-03 9.26147108616009e-05
1.49754310344828e+01 7.92463232104926e-03 9.22317176818949e-05
1.50293965517241e+01 7.87762881556779e-03 9.18497119169105e-05
1.50833620689655e+01 7.83090410282521e-03 9.14686986850771e-05
1.51373275862069e+01 7.78445652921232e-03 9.10886829657268e-05
1.51912931034483e+01 7.73828445092813e-03 9.07096697478152e-05
1.52452586206897e+01 7.69238623362191e-03 9.03316635906014e-05
1.52992241379310e+01 7.64676025323922e-03 8.99546689210639e-05
1.53531896551724e+01 7.60140489505562e-03 8.95786903341896e-05
1.54071551724138e+01 7.55631855392391e-03 8.92037321458623e-05
1.54611206896552e+01 7.51149963421773e-03 8.88297985451488e-05
1.55150862068966e+01 7.46694654977491e-03 8.84568937362732e-05
1.55690517241379e+01 7.42265772355830e-03 8.80850215190329e-05
1.56230172413793e+01 7.37863158845368e-03 8.77141855726465e-05
1.56769827586207e+01 7.33486658635593e-03 8.73443897423961e-05
1.57309482758621e+01 7.29136116840126e-03 8.69756376126308e-05
1.57849137931034e+01 7.24811379491300e-03 8.66079327867682e-05
1.58388793103448e+01 7.20512293507648e-03 8.62412784834540e-05
1.58928448275862e+01 7.16238706770014e-03 8.58756778097502e-05
1.59468103448276e+01 7.11990468034202e-03 8.55111340370356e-05
1.60007758620690e+01 7.07767426953090e-03 8.51476501900047e-05
1.60547413793103e+01 7.03569434071301e-03 8.47852291864097e-05
1.61087068965517e+01 6.99396340819944e-03 8.44238739673466e-05
1.61626724137931e+01 6.95247999485786e-03 8.40635871114175e-05
1.62166379310345e+01 6.91124263283094e-03 8.37043710956074e-05
1.62706034482759e+01 6.87024986270955e-03 8.33462285587068e-05
1.63245689655172e+01 6.82950023374068e-03 8.29891619086862e-05
1.63785344827586e+01 6.78899230377621e-03 8.26331734561233e-05
1.64325000000000e+01 6.74872463922196e-03 8.22782655386325e-05
1.64864655172414e+01 6.70869581474521e-03 8.19244401521830e-05
1.65404310344828e+01 6.66890441395313e-03 8.15716992002379e-05
1.65943965517241e+01 6.62934902860983e-03 8.12200447453488e-05
1.66483620689655e+01 6.59002825883202e-03 8.08694786339859e-05
1.67023275862069e+01 6.55094071303963e-03 8.05200026239893e-05
1.67562931034483e+01 6.51208500790656e-03 8.01716185034199e-05
1.68102586206897e+01 6.47345976808300e-03 7.98243277381953e-05
1.68642241379310e+01 6.43506362683640e-03 7.94781317100752e-05
1.69181896551724e+01 6.39689522530980e-03 7.91330319570159e-05
1.69721551724138e+01 6.35895321270588e-03 7.87890298146239e-05
1.70261206896552e+01 6.32123624623947e-03 7.84461265378862e-05
