Energy (eV)          EEDF (eV^-(3/2))     First Anisotropy
1.57377049180328e-02 8.56831831370417e-02 4.11169812233242e-05
4.72131147540984e-02 8.52000200838529e-02 6.79327688323062e-05
7.86885245901639e-02 8.47195815619883e-02 8.97768826967315e-05
1.10163934426230e-01 8.42418522086762e-02 1.06431770901169e-04
1.41639344262295e-01 8.37668167476633e-02 1.20371700199945e-04
1.73114754098361e-01 8.32944599865310e-02 1.32530476069590e-04
2.04590163934426e-01 8.28247668204078e-02 1.43390519462616e-04
2.36065573770492e-01 8.23577222294616e-02 1.53242665353004e-04
2.67540983606557e-01 8.18933112786132e-02 1.62279483094904e-04
2.99016393442623e-01 8.14315191169715e-02 1.70636853664381e-04
3.30491803278689e-01 8.09723309788541e-02 1.78415199141422e-04
3.61967213114754e-01 8.05157321787348e-02 1.85691402635650e-04
3.93442622950820e-01 8.00617081155101e-02 1.92525990170021e-04
4.24918032786885e-01 7.96102442703860e-02 1.98967701315520e-04
4.56393442622951e-01 7.91613262064506e-02 2.05056526902462e-04
4.87868852459016e-01 7.87149395681996e-02 2.10825801714165e-04
5.19344262295082e-01 7.82710700819607e-02 2.16303690253525e-04
5.50819672131148e-01 7.78297035527265e-02 2.21514267957892e-04
5.82295081967213e-01 7.73908258664686e-02 2.26478325644416e-04
6.13770491803279e-01 7.69544229887376e-02 2.31213980023263e-04
6.45245901639344e-01 7.65204809642270e-02 2.35737144078254e-04
6.76721311475410e-01 7.60889859163245e-02 2.40061895151194e-04
7.08196721311475e-01 7.56599240472859e-02 2.44200767120922e-04
7.39672131147541e-01 7.52332816359055e-02 2.48164984436574e-04
7.71147540983607e-01 7.48090450389957e-02 2.51964651868845e-04
8.02622950819672e-01 7.43872006902978e-02 2.55608910292197e-04
8.34098360655738e-01 7.39677351000533e-02 2.59106065064221e-04
8.65573770491803e-01 7.35506348545734e-02 2.62463692941755e-04
8.97049180327869e-01 7.31358866162768e-02 2.65688732069942e-04
9.28524590163934e-01 7.27234771218375e-02 2.68787557664606e-04
9.60000000000000e-01 7.23133931832052e-02 2.71766046333055e-04
9.91475409836066e-01 7.19056216866943e-02 2.74629631107451e-04
1.02295081967213e+00 7.15001495945232e-02 2.77383349776410e-04
1.05442622950820e+00 7.10969639384513e-02 2.80031885192062e-04
1.08590163934426e+00 7.06960518253915e-02 2.82579600188715e-04
1.11737704918033e+00 7.02974004349592e-02 2.85030569645923e-04
1.14885245901639e+00 6.99009970190628e-02 2.87388607345628e-04
1.18032786885246e+00 6.95068289014961e-02 2.89657289895003e-04
1.21180327868852e+00 6.91148834775325e-02 2.91839977846733e-04
1.24327868852459e+00 6.87251482135229e-02 2.93939834411122e-04
1.27475409836066e+00 6.83376106464939e-02 2.95959842090135e-04
1.30622950819672e+00 6.79522583837502e-02 2.97902817511266e-04
1.33770491803279e+00 6.75690791024777e-02 2.99771424695681e-04
1.36918032786885e+00 6.71880605493499e-02 3.01568186960107e-04
1.40065573770492e+00 6.68091905401357e-02 3.03295497622147e-04
1.43213114754098e+00 6.64324569593103e-02 3.04955629654217e-04
1.46360655737705e+00 6.60578477596672e-02 3.06550744411155e-04
1.49508196721311e+00 6.56853509619334e-02 3.08082899538719e-04
1.52655737704918e+00 6.53149546543863e-02 3.09554056156358e-04
1.55803278688525e+00 6.49466469924725e-02 3.10966085394702e-04
1.58950819672131e+00 6.45804161984296e-02 3.12320774358142e-04
1.62098360655738e+00 6.42162505609088e-02 3.13619831573989e-04
1.65245901639344e+00 6.38541384346013e-02 3.14864891981718e-04
1.68393442622951e+00 6.34940682398653e-02 3.16057521509489e-04
1.71540983606557e+00 6.31360284623557e-02 3.17199221279537e-04
1.74688524590164e+00 6.27800076526563e-02 3.18291431479073e-04
1.77836065573770e+00 6.24259944259135e-02 3.19335534929036e-04
1.80983606557377e+00 6.20739774614721e-02 3.20332860379460e-04
1.84131147540984e+00 6.17239455025134e-02 3.21284685557006e-04
1.87278688524590e+00 6.13758873556954e-02 3.22192239987405e-04
1.90426229508197e+00 6.10297918907944e-02 3.23056707613105e-04
1.93573770491803e+00 6.06856480403497e-02 3.23879229224453e-04
1.96721311475410e+00 6.03434447993085e-02 3.24660904720023e-04
1.99868852459016e+00 6.00031712246757e-02 3.25402795211593e-04
2.03016393442623e+00 5.96648164351630e-02 3.26105924986731e-04
2.06163934426230e+00 5.93283696108412e-02 3.26771283340177e-04
2.09311475409836e+00 5.89938199927941e-02 3.27399826285340e-04
2.12459016393443e+00 5.86611568827741e-02 3.27992478155258e-04
2.15606557377049e+00 5.83303696428609e-02 3.28550133102009e-04
2.18754098360656e+00 5.80014476951205e-02 3.29073656502308e-04
2.21901639344262e+00 5.76743805212674e-02 3.29563886276523e-04
2.25049180327869e+00 5.73491576623280e-02 3.30021634127795e-04
2.28196721311475e+00 5.70257687183066e-02 3.30447686707094e-04
2.31344262295082e+00 5.67042033478520e-02 3.30842806709674e-04
2.34491803278689e+00 5.63844512679279e-02 3.31207733907986e-04
2.37639344262295e+00 5.60665022534830e-02 3.31543186125536e-04
2.40786885245902e+00 5.57503461371247e-02 3.31849860155770e-04
2.43934426229508e+00 5.54359728087937e-02 3.32128432629958e-04
2.47081967213115e+00 5.51233722154410e-02 3.32379560837581e-04
2.50229508196721e+00 5.48125343607060e-02 3.32603883502288e-04
2.53377049180328e+00 5.45034493045969e-02 3.32802021516427e-04
2.56524590163934e+00 5.41961071631734e-02 3.32974578637073e-04
2.59672131147541e+00 5.38904981082298e-02 3.33122142145831e-04
2.62819672131148e+00 5.35866123669813e-02 3.33245283474828e-04
2.65967213114754e+00 5.32844402217513e-02 3.33344558801130e-04
2.69114754098361e+00 5.29839720096607e-02 3.33420509611374e-04
2.72262295081967e+00 5.26851981223188e-02 3.33473663238625e-04
2.75409836065574e+00 5.23881090055160e-02 3.33504533373109e-04
2.78557377049180e+00 5.20926951589187e-02 3.33513620548392e-04
2.81704918032787e+00 5.17989471357647e-02 3.33501412604416e-04
2.84852459016393e+00 5.15068555425621e-02 3.33468385128893e-04
2.88000000000000e+00 5.12164110387881e-02 3.33415001595439e-04
2.91147540983607e+00 5.09276043375807e-02 3.33341714618180e-04
2.94295081967213e+00 5.06404262024500e-02 3.33248965763512e-04
2.97442622950820e+00 5.03548674499966e-02 3.33137185341138e-04
3.00590163934426e+00 5.00709189486056e-02 3.33006793621718e-04
3.03737704918033e+00 4.97885716181551e-02 3.32858200880943e-04
3.06885245901639e+00 4.95078164297252e-02 3.32691807719801e-04
3.10032786885246e+00 4.92286444053097e-02 3.32508005371264e-04
3.13180327868852e+00 4.89510466175290e-02 3.32307175994038e-04
3.16327868852459e+00 4.86750141893444e-02 3.32089692953949e-04
3.19475409836066e+00 4.84005382937744e-02 3.31855921093754e-04
3.22622950819672e+00 4.81276101536123e-02 3.31606216991907e-04
3.25770491803279e+00 4.78562210411458e-02 3.31340929210925e-04
3.28918032786885e+00 4.75863622778774e-02 3.31060398535750e-04
3.32065573770492e+00 4.73180252342474e-02 3.30764958202618e-04
3.35213114754098e+00 4.70512013293576e-02 3.30454934119093e-04
3.38360655737705e+00 4.67858820306971e-02 3.30130645075490e-04
3.41508196721311e+00 4.65220588538695e-02 3.29792402948214e-04
3.44655737704918e+00 4.62597233623213e-02 3.29440512895376e-04
3.47803278688525e+00 4.59988671670722e-02 3.29075273545023e-04
3.50950819672131e+00 4.57394819264471e-02 3.28696977176405e-04
3.54098360655738e+00 4.54815593458091e-02 3.28305909894534e-04
3.57245901639344e+00 4.52250911772943e-02 3.27902351798369e-04
3.60393442622951e+00 4.49700692195481e-02 3.27486577142972e-04
3.63540983606557e+00 4.47164853174629e-02 3.27058854495778e-04
3.66688524590164e+00 4.44643313619172e-02 3.26619446887383e-04
3.69836065573771e+00 4.42135992895166e-02 3.26168611957041e-04
3.72983606557377e+00 4.39642810823357e-02 3.25706602093067e-04
3.76131147540984e+00 4.37163687676616e-02 3.25233664568438e-04
3.79278688524590e+00 4.34698544177393e-02 3.24750041671768e-04
3.82426229508197e+00 4.32247301495180e-02 3.24255970833827e-04
3.85573770491803e+00 4.29809881243988e-02 3.23751684749849e-04
3.88721311475410e+00 4.27386205479843e-02 3.23237411497689e-04
3.91868852459016e+00 4.24976196698295e-02 3.22713374652185e-04
3.95016393442623e+00 4.22579777831936e-02 3.22179793395840e-04
3.98163934426230e+00 4.20196872247937e-02 3.21636882625808e-04
4.01311475409836e+00 4.17827403745597e-02 3.21084853057501e-04
4.04459016393443e+00 4.15471296553909e-02 3.20523911324862e-04
4.07606557377049e+00 4.13128475329134e-02 3.19954260077599e-04
4.10754098360656e+00 4.10798865152390e-02 3.19376098075267e-04
4.13901639344262e+00 4.08482391527262e-02 3.18789620278464e-04
4.17049180327869e+00 4.06178980377414e-02 3.18195017937267e-04
4.20196721311475e+00 4.03888558044223e-02 3.17592478676904e-04
4.23344262295082e+00 4.01611051284425e-02 3.16982186580935e-04
4.26491803278688e+00 3.99346387267769e-02 3.16364322271885e-04
4.29639344262295e+00 3.97094493574691e-02 3.15739062989463e-04
4.32786885245902e+00 3.94855298193996e-02 3.15106582666541e-04
4.35934426229508e+00 3.92628729520556e-02 3.14467052002838e-04
4.39081967213115e+00 3.90414716353023e-02 3.13820638536498e-04
4.42229508196721e+00 3.88213187891547e-02 3.13167506713688e-04
4.45377049180328e+00 3.86024073735518e-02 3.12507817956107e-04
4.48524590163934e+00 3.83847303881307e-02 3.11841730726607e-04
4.51672131147541e+00 3.81682808720035e-02 3.11169400592976e-04
4.54819672131148e+00 3.79530519035343e-02 3.10490980289955e-04
4.57967213114754e+00 3.77390366001179e-02 3.09806619779594e-04
4.61114754098361e+00 3.75262281179598e-02 3.09116466309803e-04
4.64262295081967e+00 3.73146196518573e-02 3.08420664471449e-04
4.67409836065574e+00 3.71042044349819e-02 3.07719356253880e-04
4.70557377049180e+00 3.68949757386629e-02 3.07012681098880e-04
4.73704918032787e+00 3.66869268721721e-02 3.06300775953286e-04
4.76852459016393e+00 3.64800511825100e-02 3.05583775320127e-04
4.80000000000000e+00 3.62743420541932e-02 3.04861811153205e-04
4.83147540983607e+00 3.60697929094641e-02 3.04135013373773e-04
4.86295081967213e+00 3.58663972068086e-02 3.03403509604467e-04
4.89442622950820e+00 3.56641484420264e-02 3.02667424899468e-04
4.92590163934426e+00 3.54630401475941e-02 3.01926882265145e-04
4.95737704918033e+00 3.52630658924586e-02 3.01182002544475e-04
4.98885245901639e+00 3.50642192818308e-02 3.00432904459681e-04
5.02032786885246e+00 3.48664939569816e-02 2.99679704653812e-04
5.05180327868852e+00 3.46698835950385e-02 2.98922517731316e-04
5.08327868852459e+00 3.44743819087835e-02 2.98161456297623e-04
5.11475409836066e+00 3.42799826464515e-02 2.97396630997653e-04
5.14622950819672e+00 3.40866795915311e-02 2.96628150553493e-04
5.17770491803279e+00 3.38944665625653e-02 2.95856121801180e-04
5.20918032786885e+00 3.37033374129541e-02 2.95080649726475e-04
5.24065573770492e+00 3.35132860307580e-02 2.94301837499940e-04
5.27213114754098e+00 3.33243063385021e-02 2.93519786511069e-04
5.30360655737705e+00 3.31363922929823e-02 2.92734596401644e-04
5.33508196721311e+00 3.29495378850717e-02 2.91946365098336e-04
5.36655737704918e+00 3.27637371395286e-02 2.91155188844510e-04
5.39803278688525e+00 3.25789841148053e-02 2.90361162231336e-04
5.42950819672131e+00 3.23952729028584e-02 2.89564378228176e-04
5.46098360655738e+00 3.22125976289594e-02 2.88764928212237e-04
5.49245901639344e+00 3.20309524515072e-02 2.87962901997577e-04
5.52393442622951e+00 3.18503315618411e-02 2.87158387863487e-04
5.55540983606557e+00 3.16707291840553e-02 2.86351472582198e-04
5.58688524590164e+00 3.14921395748138e-02 2.85542241445955e-04
5.61836065573771e+00 3.13145570231673e-02 2.84730778293551e-04
5.64983606557377e+00 3.11379758503699e-02 2.83917165536267e-04
5.68131147540984e+00 3.09623904096981e-02 2.83101484183178e-04
5.71278688524590e+00 3.07877950862699e-02 2.82283813865939e-04
5.74426229508197e+00 3.06141842968652e-02 2.81464232863084e-04
5.77573770491803e+00 3.04415524897475e-02 2.80642818123767e-04
5.80721311475410e+00 3.02698941444864e-02 2.79819645290960e-04
5.83868852459016e+00 3.00992037717806e-02 2.78994788724210e-04
5.87016393442623e+00 2.99294759132830e-02 2.78168321521855e-04
5.90163934426230e+00 2.97607051414256e-02 2.77340315542890e-04
5.93311475409836e+00 2.95928860592463e-02 2.76510841428301e-04
5.96459016393443e+00 2.94260133002162e-02 2.75679968621847e-04
5.99606557377049e+00 2.92600815280679e-02 2.74847765390580e-04
6.02754098360656e+00 2.90950854366250e-02 2.74014298844875e-04
6.05901639344262e+00 2.89310197496323e-02 2.73179634958058e-04
6.09049180327869e+00 2.87678792205872e-02 2.72343838585615e-04
6.12196721311475e+00 2.86056586325718e-02 2.71506973484030e-04
6.15344262295082e+00 2.84443527980861e-02 2.70669102329251e-04
6.18491803278688e+00 2.82839565588822e-02 2.69830286734761e-04
6.21639344262295e+00 2.81244647857993e-02 2.68990587269318e-04
6.24786885245902e+00 2.79658723785996e-02 2.68150063474281e-04
6.27934426229508e+00 2.78081742658055e-02 2.67308773880661e-04
6.31081967213115e+00 2.76513654045368e-02 2.66466776025860e-04
6.34229508196721e+00 2.74954407803501e-02 2.65624126469970e-04
6.37377049180328e+00 2.73403954070782e-02 2.64780880811804e-04
6.40524590163934e+00 2.71862243266707e-02 2.63937093704711e-04
6.43672131147541e+00 2.70329226090351e-02 2.63092818871976e-04
6.46819672131148e+00 2.68804853518797e-02 2.62248109121929e-04
6.49967213114754e+00 2.67289076805565e-02 2.61403016362823e-04
6.53114754098361e+00 2.65781847479053e-02 2.60557591617377e-04
6.56262295081967e+00 2.64283117340989e-02 2.59711885037085e-04
6.59409836065574e+00 2.62792838464888e-02 2.58865945916203e-04
6.62557377049180e+00 2.61310963194521e-02 2.58019822705552e-04
6.65704918032787e+00 2.59837444142388e-02 2.57173563025993e-04
6.68852459016393e+00 2.58372234188206e-02 2.56327213681667e-04
6.72000000000000e+00 2.56915286477401e-02 2.55480820580016e-04
6.75147540983607e+00 2.55466554421743e-02 2.54634429024775e-04
6.78295081967213e+00 2.54025991691421e-02 2.53788083541063e-04
6.81442622950820e+00 2.52593552220032e-02 2.52941827698518e-04
6.84590163934426e+00 2.51169190200937e-02 2.52095704408084e-04
6.87737704918033e+00 2.49752860085800e-02 2.51249755838514e-04
6.90885245901639e+00 2.48344516583131e-02 2.50404023428056e-04
6.94032786885246e+00 2.46944114656833e-02 2.49558547895841e-04
6.97180327868852e+00 2.45551609524767e-02 2.48713369253148e-04
7.00327868852459e+00 2.44166956657320e-02 2.47868526814443e-04
7.03475409836066e+00 2.42790111775975e-02 2.47024059208172e-04
7.06622950819672e+00 2.41421030851903e-02 2.46180004387437e-04
7.09770491803279e+00 2.40059670104549e-02 2.45336399640470e-04
7.12918032786885e+00 2.38705986000236e-02 2.44493281600872e-04
7.16065573770492e+00 2.37359935250770e-02 2.43650686257700e-04
7.19213114754098e+00 2.36021474812057e-02 2.42808648965434e-04
7.22360655737705e+00 2.34690561882727e-02 2.41967204453713e-04
7.25508196721311e+00 2.33367153902764e-02 2.41126386836873e-04
7.28655737704918e+00 2.32051208552147e-02 2.40286229623402e-04
7.31803278688525e+00 2.30742683749492e-02 2.39446765725185e-04
7.34950819672131e+00 2.29441537650714e-02 2.38608027466579e-04
7.38098360655738e+00 2.28147728647683e-02 2.37770046593377e-04
7.41245901639344e+00 2.26861215366894e-02 2.36932854281611e-04
7.44393442622951e+00 2.25581956668147e-02 2.36096481146165e-04
7.47540983606557e+00 2.24309911643227e-02 2.35260957249262e-04
7.50688524590164e+00 2.23045039614601e-02 2.34426312108869e-04
7.53836065573770e+00 2.21787300134113e-02 2.33592574706867e-04
7.56983606557377e+00 2.20536652981691e-02 2.32759773497122e-04
7.60131147540984e+00 2.19293058164065e-02 2.31927936413496e-04
7.63278688524590e+00 2.18056475913482e-02 2.31097090877610e-04
7.66426229508197e+00 2.16826866686439e-02 2.30267263806487e-04
7.69573770491803e+00 2.15604191162416e-02 2.29438481620207e-04
7.72721311475410e+00 2.14388410242620e-02 2.28610770249270e-04
7.75868852459016e+00 2.13179485048732e-02 2.27784155141911e-04
7.79016393442623e+00 2.11977376921670e-02 2.26958661271344e-04
7.82163934426230e+00 2.10782047420344e-02 2.26134313142806e-04
7.85311475409836e+00 2.09593458320434e-02 2.25311134800519e-04
7.88459016393443e+00 2.08411571613164e-02 2.24489149834561e-04
7.91606557377049e+00 2.07236349504089e-02 2.23668381387604e-04
7.94754098360656e+00 2.06067754411882e-02 2.22848852161522e-04
7.97901639344262e+00 2.04905748967139e-02 2.22030584423963e-04
8.01049180327869e+00 2.03750296011177e-02 2.21213600014748e-04
8.04196721311475e+00 2.02601358594850e-02 2.20397920352183e-04
8.07344262295082e+00 2.01458899977366e-02 2.19583566439313e-04
8.10491803278689e+00 2.00322883625113e-02 2.18770558870030e-04
8.13639344262295e+00 1.99193273210490e-02 2.17958917835118e-04
8.16786885245902e+00 1.98070032610746e-02 2.17148663128165e-04
8.19934426229508e+00 1.96953125906822e-02 2.16339814151397e-04
8.23081967213115e+00 1.95842517382208e-02 2.15532389921502e-04
8.26229508196721e+00 1.94738171521794e-02 2.14726409075218e-04
8.29377049180328e+00 1.93640053010742e-02 2.13921889874895e-04
8.32524590163934e+00 1.92548126733349e-02 2.13118850214054e-04
8.35672131147541e+00 1.91462357771929e-02 2.12317307622755e-04
8.38819672131148e+00 1.90382711405695e-02 2.11517279272918e-04
8.41967213114754e+00 1.89309153109649e-02 2.10718781983559e-04
8.45114754098361e+00 1.88241648553477e-02 2.09921832225962e-04
8.48262295081967e+00 1.87180163600454e-02 2.09126446128774e-04
8.51409836065574e+00 1.86124664306346e-02 2.08332639482982e-04
8.54557377049180e+00 1.85075116918332e-02 2.07540427746832e-04
8.57704918032787e+00 1.84031487873922e-02 2.06749826050718e-04
8.60852459016393e+00 1.82993743799880e-02 2.05960849201932e-04
8.64000000000000e+00 1.81961851511163e-02 2.05173511631309e-04
8.67147540983606e+00 1.80935778011031e-02 2.04387827572913e-04
8.70295081967213e+00 1.79915490486449e-02 2.03603810951513e-04
8.73442622950820e+00 1.78900956310600e-02 2.02821475268922e-04
8.76590163934426e+00 1.77892143040646e-02 2.02040833786269e-04
8.79737704918033e+00 1.76889018416695e-02 2.01261899468804e-04
8.82885245901639e+00 1.75891550360766e-02 2.00484684990227e-04
8.86032786885246e+00 1.74899706975763e-02 1.99709202736919e-04
8.89180327868852e+00 1.73913456544457e-02 1.98935464812112e-04
8.92327868852459e+00 1.72932767528471e-02 1.98163483040014e-04
8.95475409836066e+00 1.71957608567272e-02 1.97393268969860e-04
8.98622950819672e+00 1.70987948477166e-02 1.96624833879923e-04
9.01770491803279e+00 1.70023756250302e-02 1.95858188781424e-04
9.04918032786885e+00 1.69065001053682e-02 1.95093344422420e-04
9.08065573770492e+00 1.68111652228173e-02 1.94330311291671e-04
9.11213114754098e+00 1.67163679287527e-02 1.93569099622374e-04
9.14360655737705e+00 1.66221051917407e-02 1.92809719395843e-04
9.17508196721312e+00 1.65283739974417e-02 1.92052180345221e-04
9.20655737704918e+00 1.64351713485137e-02 1.91296491959082e-04
9.23803278688525e+00 1.63424942645167e-02 1.90542663484951e-04
9.26950819672131e+00 1.62503397818171e-02 1.89790703932856e-04
9.30098360655738e+00 1.61587049534933e-02 1.89040622078753e-04
9.33245901639344e+00 1.60675868492409e-02 1.88292426467929e-04
9.36393442622951e+00 1.59769825552797e-02 1.87546125418399e-04
9.39540983606557e+00 1.58868891742599e-02 1.86801727024155e-04
9.42688524590164e+00 1.57973038251698e-02 1.86059239158448e-04
9.45836065573770e+00 1.57082236432435e-02 1.85318669477045e-04
9.48983606557377e+00 1.56196457798696e-02 1.84580025421338e-04
9.52131147540984e+00 1.55315674024996e-02 1.83843314221495e-04
9.55278688524590e+00 1.54439856945576e-02 1.83108542899551e-04
9.58426229508197e+00 1.53568978553505e-02 1.82375718272434e-04
9.61573770491803e+00 1.52703010999779e-02 1.81644846954944e-04
9.64721311475410e+00 1.51841926592434e-02 1.80915935362743e-04
9.67868852459016e+00 1.50985697795660e-02 1.80188989715243e-04
9.71016393442623e+00 1.50134297228919e-02 1.79464016038455e-04
9.74163934426229e+00 1.49287697666071e-02 1.78741020167859e-04
9.77311475409836e+00 1.48445872034503e-02 1.78020007751167e-04
9.80459016393443e+00 1.47608793414263e-02 1.77300984251101e-04
9.83606557377049e+00 1.46776435037199e-02 1.76583954948084e-04
9.86754098360656e+00 1.45948770286103e-02 1.75868924942914e-04
9.89901639344262e+00 1.45125772693860e-02 1.75155899159418e-04
9.93049180327869e+00 1.44307415942603e-02 1.74444882347036e-04
