Energy (eV)          EEDF (eV^-(3/2))     First Anisotropy
9.39655172413793e-03 2.01971947554238e-01 9.94792165136674e-05
2.81896551724138e-02 2.00767585279067e-01 1.64331142817341e-04
4.69827586206897e-02 1.99570404635910e-01 2.17101847035311e-04
6.57758620689655e-02 1.98380362803058e-01 2.57293445629749e-04
8.45689655172414e-02 1.97197417209761e-01 2.90897686212158e-04
1.03362068965517e-01 1.96021525542456e-01 3.20176953221716e-04
1.22155172413793e-01 1.94852645733776e-01 3.46300552729005e-04
1.40948275862069e-01 1.93690735980702e-01 3.69973723932804e-04
1.59741379310345e-01 1.92535754711371e-01 3.91663622926694e-04
1.78534482758621e-01 1.91387660619358e-01 4.11700024541332e-04
1.97327586206897e-01 1.90246412635101e-01 4.30326751373955e-04
2.16120689655172e-01 1.89111969929553e-01 4.47730551385171e-04
2.34913793103448e-01 1.87984291927984e-01 4.64058504610641e-04
2.53706896551724e-01 1.86863338287582e-01 4.79429099422974e-04
2.72500000000000e-01 1.85749068915384e-01 4.93939596405225e-04
2.91293103448276e-01 1.84641443948830e-01 5.07671102431616e-04
3.10086206896552e-01 1.83540423771162e-01 5.20692172567543e-04
3.28879310344828e-01 1.82445968994242e-01 5.33061432965215e-04
3.47672413793103e-01 1.81358040471965e-01 5.44829532587957e-04
3.66465517241379e-01 1.80276599284888e-01 5.56040623686363e-04
3.85258620689655e-01 1.79201606752038e-01 5.66733502968311e-04
4.04051724137931e-01 1.78133024419744e-01 5.76942506637454e-04
4.22844827586207e-01 1.77070814061262e-01 5.86698216731041e-04
4.41637931034483e-01 1.76014937682922e-01 5.96028031162507e-04
4.60431034482759e-01 1.74965357512701e-01 6.04956624575166e-04
4.79224137931035e-01 1.73922036008513e-01 6.13506325945972e-04
4.98017241379310e-01 1.72884935847621e-01 6.21697430699402e-04
5.16810344827586e-01 1.71854019934180e-01 6.29548460556561e-04
5.35603448275862e-01 1.70829251389376e-01 6.37076381710506e-04
5.54396551724138e-01 1.69810593558319e-01 6.44296788773401e-04
5.73189655172414e-01 1.68798010002604e-01 6.51224062670753e-04
5.91982758620690e-01 1.67791464499487e-01 6.57871502939726e-04
6.10775862068966e-01 1.66790921045646e-01 6.64251444149740e-04
6.29568965517241e-01 1.65796343849131e-01 6.70375355311772e-04
6.48362068965517e-01 1.64807697334631e-01 6.76253926396715e-04
6.67155172413793e-01 1.63824946135859e-01 6.81897143914572e-04
6.85948275862069e-01 1.62848055100434e-01 6.87314357052399e-04
7.04741379310345e-01 1.61876989282661e-01 6.92514335941821e-04
7.23534482758621e-01 1.60911713948071e-01 6.97505322794164e-04
7.42327586206897e-01 1.59952194567848e-01 7.02295078435664e-04
7.61120689655172e-01 1.58998396817867e-01 7.06890921378229e-04
7.79913793103448e-01 1.58050286581189e-01 7.11299764889444e-04
7.98706896551724e-01 1.57107829941870e-01 7.15528149108023e-04
8.17500000000000e-01 1.56170993188588e-01 7.19582270007778e-04
8.36293103448276e-01 1.55239742808722e-01 7.23468005522771e-04
8.55086206896552e-01 1.54314045491748e-01 7.27190939045224e-04
8.73879310344828e-01 1.53393868123571e-01 7.30756380737930e-04
8.92672413793103e-01 1.52479177789701e-01 7.34169386786481e-04
9.11465517241379e-01 1.51569941769825e-01 7.37434776951643e-04
9.30258620689655e-01 1.50666127540784e-01 7.40557150292294e-04
9.49051724137931e-01 1.49767702772309e-01 7.43540900521413e-04
9.67844827586207e-01 1.48874635326018e-01 7.46390228117173e-04
9.86637931034483e-01 1.47986893257023e-01 7.49109153281482e-04
1.00543103448276e+00 1.47104444809112e-01 7.51701527672677e-04
1.02422413793103e+00 1.46227258413746e-01 7.54171041713985e-04
1.04301724137931e+00 1.45355302699282e-01 7.56521237223759e-04
1.06181034482759e+00 1.44488546474867e-01 7.58755518740161e-04
1.08060344827586e+00 1.43626958727792e-01 7.60877153171640e-04
1.09939655172414e+00 1.42770508646388e-01 7.62889282145261e-04
1.11818965517241e+00 1.41919165594471e-01 7.64794934015606e-04
1.13698275862069e+00 1.41072899111230e-01 7.66597019945950e-04
1.15577586206897e+00 1.40231678932495e-01 7.68298345060669e-04
1.17456896551724e+00 1.39395474966896e-01 7.69901618865889e-04
1.19336206896552e+00 1.38564257295655e-01 7.71409450530598e-04
1.21215517241379e+00 1.37737996192411e-01 7.72824358660781e-04
1.23094827586207e+00 1.36916662100917e-01 7.74148780475385e-04
1.24974137931034e+00 1.36100225634750e-01 7.75385066544046e-04
1.26853448275862e+00 1.35288657595833e-01 7.76535489462251e-04
1.28732758620690e+00 1.34481928953525e-01 7.77602252031355e-04
1.30612068965517e+00 1.33680010844254e-01 7.78587481637936e-04
1.32491379310345e+00 1.32882874588872e-01 7.79493238038582e-04
1.34370689655172e+00 1.32090491672991e-01 7.80321520730826e-04
1.36250000000000e+00 1.31302833746568e-01 7.81074263107654e-04
1.38129310344828e+00 1.30519872640182e-01 7.81753340880576e-04
1.40008620689655e+00 1.29741580340984e-01 7.82360573294922e-04
1.41887931034483e+00 1.28967929014400e-01 7.82897724015905e-04
1.43767241379310e+00 1.28198890986132e-01 7.83366508939638e-04
1.45646551724138e+00 1.27434438741699e-01 7.83768590092338e-04
1.47525862068966e+00 1.26674544941277e-01 7.84105581772777e-04
1.49405172413793e+00 1.25919182402692e-01 7.84379056403592e-04
1.51284482758621e+00 1.25168324100946e-01 7.84590538417420e-04
1.53163793103448e+00 1.24421943182187e-01 7.84741509941220e-04
1.55043103448276e+00 1.23680012947615e-01 7.84833416213935e-04
1.56922413793103e+00 1.22942506852991e-01 7.84867659501576e-04
1.58801724137931e+00 1.22209398521814e-01 7.84845604387788e-04
1.60681034482759e+00 1.21480661730058e-01 7.84768582817582e-04
1.62560344827586e+00 1.20756270405681e-01 7.84637888072250e-04
1.64439655172414e+00 1.20036198641056e-01 7.84454779717991e-04
1.66318965517241e+00 1.19320420678493e-01 7.84220488324240e-04
1.68198275862069e+00 1.18608910909732e-01 7.83936209521455e-04
1.70077586206897e+00 1.17901643887697e-01 7.83603108647203e-04
1.71956896551724e+00 1.17198594312743e-01 7.83222325182160e-04
1.73836206896552e+00 1.16499737032130e-01 7.82794966906797e-04
1.75715517241379e+00 1.15805047051156e-01 7.82322114276803e-04
1.77594827586207e+00 1.15114499520077e-01 7.81804824611378e-04
1.79474137931034e+00 1.14428069733561e-01 7.81244126359617e-04
1.81353448275862e+00 1.13745733141245e-01 7.80641023234816e-04
1.83232758620690e+00 1.13067465335285e-01 7.79996498181742e-04
1.85112068965517e+00 1.12393242049792e-01 7.79311507760648e-04
1.86991379310345e+00 1.11723039170853e-01 7.78586986065007e-04
1.88870689655172e+00 1.11056832724662e-01 7.77823848490135e-04
1.90750000000000e+00 1.10394598876950e-01 7.77022986240025e-04
1.92629310344828e+00 1.09736313942502e-01 7.76185271025836e-04
1.94508620689655e+00 1.09081954370491e-01 7.75311554743163e-04
1.96387931034483e+00 1.08431496757286e-01 7.74402668992866e-04
1.98267241379310e+00 1.07784917835395e-01 7.73459429605913e-04
2.00146551724138e+00 1.07142194472882e-01 7.72482631318065e-04
2.02025862068966e+00 1.06503303682199e-01 7.71473051231221e-04
2.03905172413793e+00 1.05868222609608e-01 7.70431452150792e-04
2.05784482758621e+00 1.05236928534614e-01 7.69358577390936e-04
2.07663793103448e+00 1.04609398878355e-01 7.68255154085209e-04
2.09543103448276e+00 1.03985611193493e-01 7.67121896377192e-04
2.11422413793103e+00 1.03365543163647e-01 7.65959500355742e-04
2.13301724137931e+00 1.02749172611383e-01 7.64768647226898e-04
2.15181034482759e+00 1.02136477488535e-01 7.63550006369183e-04
2.17060344827586e+00 1.01527435875645e-01 7.62304230397749e-04
2.18939655172414e+00 1.00922025989572e-01 7.61031958207594e-04
2.20818965517241e+00 1.00320226174227e-01 7.59733817903669e-04
2.22698275862069e+00 9.97220149000067e-02 7.58410421992693e-04
2.24577586206897e+00 9.91273707710607e-02 7.57062370305310e-04
2.26456896551724e+00 9.85362725164028e-02 7.55690252811511e-04
2.28336206896552e+00 9.79486989893491e-02 7.54294644937784e-04
2.30215517241379e+00 9.73646291744550e-02 7.52876110374803e-04
2.32094827586207e+00 9.67840421789900e-02 7.51435203787245e-04
2.33974137931034e+00 9.62069172323760e-02 7.49972466253638e-04
2.35853448275862e+00 9.56332336928136e-02 7.48488427966717e-04
2.37732758620690e+00 9.50629710391020e-02 7.46983610844471e-04
2.39612068965517e+00 9.44961088700760e-02 7.45458524089917e-04
2.41491379310345e+00 9.39326269109418e-02 7.43913666790963e-04
2.43370689655172e+00 9.33725050054209e-02 7.42349530438715e-04
2.45250000000000e+00 9.28157231151883e-02 7.40766594604169e-04
2.47129310344828e+00 9.22622613259333e-02 7.39165330169008e-04
2.49008620689655e+00 9.17120998376175e-02 7.37546198851254e-04
2.50887931034483e+00 9.11652189726991e-02 7.35909652626472e-04
2.52767241379310e+00 9.06215991687374e-02 7.34256136874892e-04
2.54646551724138e+00 9.00812209778410e-02 7.32586086221578e-04
2.56525862068966e+00 8.95440650723357e-02 7.30899926912273e-04
2.58405172413793e+00 8.90101122376525e-02 7.29198079117039e-04
2.60284482758621e+00 8.84793433717808e-02 7.27480952881147e-04
2.62163793103448e+00 8.79517394906964e-02 7.25748950421440e-04
2.64043103448276e+00 8.74272817215152e-02 7.24002468351795e-04
2.65922413793103e+00 8.69059513019546e-02 7.22241893741671e-04
2.67801724137931e+00 8.63877295855318e-02 7.20467606337114e-04
2.69681034482759e+00 8.58725980349716e-02 7.18679980712001e-04
2.71560344827586e+00 8.53605382216753e-02 7.16879382431160e-04
2.73439655172414e+00 8.48515318307018e-02 7.15066170199769e-04
2.75318965517241e+00 8.43455606544170e-02 7.13240697944330e-04
2.77198275862069e+00 8.38426065919698e-02 7.11403311077482e-04
2.79077586206897e+00 8.33426516540668e-02 7.09554348578302e-04
2.80956896551724e+00 8.28456779568544e-02 7.07694145007422e-04
2.82836206896552e+00 8.23516677213980e-02 7.05823026870749e-04
2.84715517241379e+00 8.18606032782635e-02 7.03941314633035e-04
2.86594827586207e+00 8.13724670616199e-02 7.02049324670753e-04
2.88474137931034e+00 8.08872416087223e-02 7.00147365731578e-04
2.90353448275862e+00 8.04049095643103e-02 6.98235740884479e-04
2.92232758620690e+00 7.99254536749202e-02 6.96314749413230e-04
2.94112068965517e+00 7.94488567883722e-02 6.94384683368809e-04
2.95991379310345e+00 7.89751018579945e-02 6.92445829458635e-04
2.97870689655172e+00 7.85041719371360e-02 6.90498470883527e-04
2.99750000000000e+00 7.80360501786577e-02 6.88542883980297e-04
3.01629310344828e+00 7.75707198389908e-02 6.86579340604863e-04
3.03508620689655e+00 7.71081642713291e-02 6.84608107703340e-04
3.05387931034483e+00 7.66483669311803e-02 6.82629446805953e-04
3.07267241379310e+00 7.61913113711698e-02 6.80643616359641e-04
3.09146551724138e+00 7.57369812405433e-02 6.78650868499628e-04
3.11025862068966e+00 7.52853602889845e-02 6.76651450798769e-04
3.12905172413793e+00 7.48364323615958e-02 6.74645607969653e-04
3.14784482758621e+00 7.43901813984087e-02 6.72633578720274e-04
3.16663793103448e+00 7.39465914380532e-02 6.70615597452630e-04
3.18543103448276e+00 7.35056466129077e-02 6.68591895914488e-04
3.20422413793103e+00 7.30673311486171e-02 6.66562700136544e-04
3.22301724137931e+00 7.26316293676209e-02 6.64528232082302e-04
3.24181034482759e+00 7.21985256844649e-02 6.62488711251453e-04
3.26060344827586e+00 7.17680046053273e-02 6.60444351696360e-04
3.27939655172414e+00 7.13400507314112e-02 6.58395363624881e-04
3.29818965517241e+00 7.09146487544125e-02 6.56341954957372e-04
3.31698275862069e+00 7.04917834560526e-02 6.54284328420202e-04
3.33577586206897e+00 7.00714397113423e-02 6.52222683102836e-04
3.35456896551724e+00 6.96536024841995e-02 6.50157215970929e-04
3.37336206896552e+00 6.92382568269875e-02 6.48088119034545e-04
3.39215517241379e+00 6.88253878836567e-02 6.46015580860537e-04
3.41094827586207e+00 6.84149808855065e-02 6.43939788043898e-04
3.42974137931034e+00 6.80070211507281e-02 6.41860922448375e-04
3.44853448275862e+00 6.76014940874305e-02 6.39779162675960e-04
3.46732758620690e+00 6.71983851895394e-02 6.37694685497889e-04
3.48612068965517e+00 6.67976800363460e-02 6.35607663165374e-04
3.50491379310345e+00 6.63993642954213e-02 6.33518264837954e-04
3.52370689655172e+00 6.60034237186474e-02 6.31426657975617e-04
3.54250000000000e+00 6.56098441417712e-02 6.29333005717708e-04
3.56129310344828e+00 6.52186114872131e-02 6.27237468698541e-04
3.58008620689655e+00 6.48297117591472e-02 6.25140204690536e-04
3.59887931034483e+00 6.44431310473753e-02 6.23041368188257e-04
3.61767241379310e+00 6.40588555235524e-02 6.20941112190180e-04
3.63646551724138e+00 6.36768714407522e-02 6.18839585676803e-04
3.65525862068966e+00 6.32971651361187e-02 6.16736934941816e-04
3.67405172413793e+00 6.29197230272110e-02 6.14633304890684e-04
3.69284482758621e+00 6.25445316115749e-02 6.12528836582169e-04
3.71163793103448e+00 6.21715774692996e-02 6.10423668524106e-04
3.73043103448276e+00 6.18008472594749e-02 6.08317937936512e-04
3.74922413793103e+00 6.14323277197712e-02 6.06211778354926e-04
3.76801724137931e+00 6.10660056689029e-02 6.04105320891832e-04
3.78681034482759e+00 6.07018680031959e-02 6.01998695465659e-04
3.80560344827586e+00 6.03399016961739e-02 5.99892028464013e-04
3.82439655172414e+00 5.99800938009343e-02 5.97785443971922e-04
3.84318965517241e+00 5.96224314468202e-02 5.95679064967864e-04
3.86198275862069e+00 5.92669018390141e-02 5.93573011045344e-04
3.88077586206897e+00 5.89134922608287e-02 5.91467399608662e-04
3.89956896551724e+00 5.85621900704812e-02 5.89362347037503e-04
3.91836206896552e+00 5.82129827006923e-02 5.87257966465134e-04
3.93715517241379e+00 5.78658576608970e-02 5.85154368942296e-04
3.95594827586207e+00 5.75208025341166e-02 5.83051664571856e-04
3.97474137931035e+00 5.71778049765633e-02 5.80949960341816e-04
3.99353448275862e+00 5.68368527197737e-02 5.78849361258472e-04
4.01232758620690e+00 5.64979335675757e-02 5.76749971452012e-04
4.03112068965517e+00 5.61610353956982e-02 5.74651892062852e-04
4.04991379310345e+00 5.58261461538304e-02 5.72555222344966e-04
4.06870689655172e+00 5.54932538626804e-02 5.70460060743250e-04
4.08750000000000e+00 5.51623466135894e-02 5.68366502831927e-04
4.10629310344828e+00 5.48334125705209e-02 5.66274642723516e-04
4.12508620689655e+00 5.45064399664204e-02 5.64184572778418e-04
4.14387931034483e+00 5.41814171059829e-02 5.62096383268849e-04
4.16267241379310e+00 5.38583323628457e-02 5.60010163763768e-04
4.18146551724138e+00 5.35371741792142e-02 5.57926001143577e-04
4.20025862068966e+00 5.32179310677453e-02 5.55843980632669e-04
4.21905172413793e+00 5.29005916088233e-02 5.53764186808071e-04
4.23784482758621e+00 5.25851444501915e-02 5.51686701662749e-04
4.25663793103448e+00 5.22715783087714e-02 5.49611605611984e-04
4.27543103448276e+00 5.19598819680175e-02 5.47538978476205e-04
4.29422413793103e+00 5.16500442775559e-02 5.45468897591401e-04
4.31301724137931e+00 5.13420541549404e-02 5.43401438790123e-04
4.33181034482759e+00 5.10359005830849e-02 5.41336677359288e-04
4.35060344827586e+00 5.07315726099074e-02 5.39274686196314e-04
4.36939655172414e+00 5.04290593500272e-02 5.37215536765777e-04
4.38818965517241e+00 5.01283499822705e-02 5.35159300032822e-04
4.40698275862069e+00 4.98294337493207e-02 5.33106044663781e-04
4.42577586206897e+00 4.95322999593584e-02 5.31055837958863e-04
4.44456896551724e+00 4.92369379836385e-02 5.29008746762313e-04
4.46336206896552e+00 4.89433372561460e-02 5.26964835706320e-04
4.48215517241379e+00 4.86514872751810e-02 5.24924168120186e-04
4.50094827586207e+00 4.83613776010055e-02 5.22886806918084e-04
4.51974137931034e+00 4.80729978555037e-02 5.20852812885174e-04
4.53853448275862e+00 4.77863377237149e-02 5.18822245563727e-04
4.55732758620690e+00 4.75013869515468e-02 5.16795164119174e-04
4.57612068965517e+00 4.72181353454415e-02 5.14771625667283e-04
4.59491379310345e+00 4.69365727738567e-02 5.12751686138041e-04
4.61370689655172e+00 4.66566891650451e-02 5.10735401120596e-04
4.63250000000000e+00 4.63784745067239e-02 5.08722824230340e-04
4.65129310344828e+00 4.61019188475086e-02 5.06714008215556e-04
4.67008620689655e+00 4.58270122941703e-02 5.04709004722805e-04
4.68887931034483e+00 4.55537450136478e-02 5.02707864026230e-04
4.70767241379310e+00 4.52821072309240e-02 5.00710636116608e-04
4.72646551724138e+00 4.50120892287045e-02 4.98717369127767e-04
4.74525862068965e+00 4.47436813487783e-02 4.96728110147328e-04
4.76405172413793e+00 4.44768739899534e-02 4.94742906009687e-04
4.78284482758621e+00 4.42116576077409e-02 4.92761801759794e-04
4.80163793103448e+00 4.39480227156713e-02 4.90784841444344e-04
4.82043103448276e+00 4.36859598832864e-02 4.88812068885233e-04
4.83922413793103e+00 4.34254597358299e-02 4.86843526179652e-04
4.85801724137931e+00 4.31665129555197e-02 4.84879254472092e-04
4.87681034482759e+00 4.29091102795956e-02 4.82919294709011e-04
4.89560344827586e+00 4.26532425000151e-02 4.80963686174187e-04
4.91439655172414e+00 4.23989004646842e-02 4.79012467242210e-04
4.93318965517241e+00 4.21460750755586e-02 4.77065676114707e-04
4.95198275862069e+00 4.18947572883447e-02 4.75123349390160e-04
4.97077586206897e+00 4.16449381136904e-02 4.73185522799223e-04
4.98956896551724e+00 4.13966086153385e-02 4.71252231923233e-04
5.00836206896552e+00 4.11497599098320e-02 4.69323510797597e-04
5.02715517241379e+00 4.09043831676670e-02 4.67399392629219e-04
5.04594827586207e+00 4.06604696114963e-02 4.65479910497951e-04
5.06474137931034e+00 4.04180105158392e-02 4.63565095992621e-04
5.08353448275862e+00 4.01769972081978e-02 4.61654979911068e-04
5.10232758620690e+00 3.99374210673090e-02 4.59749592944998e-04
5.12112068965517e+00 3.96992735228591e-02 4.57848964347826e-04
5.13991379310345e+00 3.94625460565644e-02 4.55953122617772e-04
5.15870689655172e+00 3.92272302004701e-02 4.54062096166579e-04
5.17750000000000e+00 3.89933175366702e-02 4.52175912018365e-04
5.19629310344828e+00 3.87607996983529e-02 4.50294596686503e-04
5.21508620689655e+00 3.85296683677068e-02 4.48418175984190e-04
5.23387931034483e+00 3.82999152774036e-02 4.46546674806257e-04
5.25267241379310e+00 3.80715322089684e-02 4.44680117992847e-04
5.27146551724138e+00 3.78445109925070e-02 4.42818529074755e-04
5.29025862068966e+00 3.76188435077008e-02 4.40961930915568e-04
5.30905172413793e+00 3.73945216822208e-02 4.39110346340703e-04
5.32784482758621e+00 3.71715374914593e-02 4.37263796911734e-04
5.34663793103448e+00 3.69498829594934e-02 4.35422303553477e-04
5.36543103448276e+00 3.67295501575410e-02 4.33585887167973e-04
5.38422413793103e+00 3.65105312036973e-02 4.31754567437235e-04
5.40301724137931e+00 3.62928182638675e-02 4.29928363435660e-04
5.42181034482759e+00 3.60764035502638e-02 4.28107294229376e-04
5.44060344827586e+00 3.58612793211464e-02 4.26291377706503e-04
5.45939655172414e+00 3.56474378817269e-02 4.24480631175401e-04
5.47818965517241e+00 3.54348715827044e-02 4.22675071949856e-04
5.49698275862069e+00 3.52235728200116e-02 4.20874716206144e-04
5.51577586206897e+00 3.50135340356891e-02 4.19079579567294e-04
5.53456896551724e+00 3.48047477164606e-02 4.17289677674543e-04
5.55336206896552e+00 3.45972063934826e-02 4.15505025070743e-04
5.57215517241379e+00 3.43909026431920e-02 4.13725635770748e-04
5.59094827586207e+00 3.41858290859182e-02 4.11951523819718e-04
5.60974137931035e+00 3.39819783856367e-02 4.10182702202078e-04
5.62853448275862e+00 3.37793432507908e-02 4.08419183398348e-04
5.64732758620690e+00 3.35779164329396e-02 4.06660979930706e-04
5.66612068965517e+00 3.33776907265160e-02 4.04908103296776e-04
5.68491379310345e+00 3.31786589696222e-02 4.03160564513455e-04
5.70370689655172e+00 3.29808140427136e-02 4.01418374649866e-04
5.72250000000000e+00 3.27841488683601e-02 3.99681543785499e-04
5.74129310344828e+00 3.25886564120176e-02 3.97950081709499e-04
5.76008620689655e+00 3.23943296804115e-02 3.96223997767383e-04
5.77887931034483e+00 3.22011617226402e-02 3.94503300685162e-04
5.79767241379310e+00 3.20091456289126e-02 3.92787999258447e-04
5.81646551724138e+00 3.18182745303158e-02 3.91078101347141e-04
5.83525862068966e+00 3.16285415995502e-02 3.89373614387653e-04
5.85405172413793e+00 3.14399400496985e-02 3.87674545894775e-04
5.87284482758621e+00 3.12524631339983e-02 3.85980902479171e-04
5.89163793103448e+00 3.10661041465537e-02 3.84292690347824e-04
5.91043103448276e+00 3.08808564211366e-02 3.82609915794345e-04
5.92922413793104e+00 3.06967133309624e-02 3.80932584238612e-04
