Energy (eV)          EEDF (eV^-(3/2))     First Anisotropy
2.71052631578947e-03 6.82338972936816e+00 5.57848751492298e-03
8.13157894736842e-03 6.70096825948317e+00 9.15982669684961e-03
1.35526315789474e-02 6.58074320700812e+00 1.19554448597051e-02
1.89736842105263e-02 6.46267516623759e+00 1.39979934504201e-02
2.43947368421053e-02 6.34672543685289e+00 1.56355142995271e-02
2.98157894736842e-02 6.23285601283627e+00 1.70018747550218e-02
3.52368421052632e-02 6.12102957095200e+00 1.81674833435006e-02
4.06578947368421e-02 6.01120945708489e+00 1.91755269808467e-02
4.60789473684211e-02 5.90335967455650e+00 2.00550849094851e-02
5.15000000000000e-02 5.79744487302761e+00 2.08270136935350e-02
5.69210526315790e-02 5.69343033611897e+00 2.15069732796707e-02
6.23421052631579e-02 5.59128197032173e+00 2.21071379657603e-02
6.77631578947368e-02 5.49096629368652e+00 2.26372344570179e-02
7.31842105263158e-02 5.39245042526613e+00 2.31052070179751e-02
7.86052631578947e-02 5.29570207389046e+00 2.35176627003220e-02
8.40263157894737e-02 5.20068952764109e+00 2.38801801661668e-02
8.94473684210526e-02 5.10738164377590e+00 2.41975304940340e-02
9.48684210526316e-02 5.01574783818157e+00 2.44738390853462e-02
1.00289473684211e-01 4.92575807538909e+00 2.47127069632581e-02
1.05710526315789e-01 4.83738285898217e+00 2.49173034968531e-02
1.11131578947368e-01 4.75059322136102e+00 2.50904383265761e-02
1.16552631578947e-01 4.66536071567868e+00 2.52346182564132e-02
1.21973684210526e-01 4.58165740404720e+00 2.53520925659530e-02
1.27394736842105e-01 4.49945585053445e+00 2.54448895247140e-02
1.32815789473684e-01 4.41872911203154e+00 2.55148466342291e-02
1.38236842105263e-01 4.33945072764707e+00 2.55636352000922e-02
1.43657894736842e-01 4.26159471233632e+00 2.55927809588659e-02
1.49078947368421e-01 4.18513554624295e+00 2.56036814306797e-02
1.54500000000000e-01 4.11004816788482e+00 2.55976203970186e-02
1.59921052631579e-01 4.03630796585371e+00 2.55757805822847e-02
1.65342105263158e-01 3.96389076943136e+00 2.55392542347321e-02
1.70763157894737e-01 3.89277284199466e+00 2.54890522417128e-02
1.76184210526316e-01 3.82293087316480e+00 2.54261123194114e-02
1.81605263157895e-01 3.75434197002949e+00 2.53513058573867e-02
1.87026315789474e-01 3.68698365112035e+00 2.52654440420544e-02
1.92447368421053e-01 3.62083383764814e+00 2.51692832678401e-02
1.97868421052632e-01 3.55587084728664e+00 2.50635297676971e-02
2.03289473684211e-01 3.49207338701312e+00 2.49488439887495e-02
2.08710526315789e-01 3.42942054524487e+00 2.48258442627888e-02
2.14131578947368e-01 3.36789178587722e+00 2.46951100812310e-02
2.19552631578947e-01 3.30746694151105e+00 2.45571852515010e-02
2.24973684210526e-01 3.24812620606105e+00 2.44125805278722e-02
2.30394736842105e-01 3.18985012905224e+00 2.42617759806622e-02
2.35815789473684e-01 3.13261960920615e+00 2.41052233419014e-02
2.41236842105263e-01 3.07641588749022e+00 2.39433479209379e-02
2.46657894736842e-01 3.02122054187327e+00 2.37765504409362e-02
2.52078947368421e-01 2.96701548042602e+00 2.36052087278358e-02
2.57500000000000e-01 2.91378293602349e+00 2.34296791454425e-02
2.62921052631579e-01 2.86150546049302e+00 2.32502981036273e-02
2.68342105263158e-01 2.81016591833601e+00 2.30673832767348e-02
2.73763157894737e-01 2.75974748167594e+00 2.28812347214024e-02
2.79184210526316e-01 2.71023362471769e+00 2.26921360664410e-02
2.84605263157895e-01 2.66160811783021e+00 2.25003554417869e-02
2.90026315789474e-01 2.61385502288375e+00 2.23061464129059e-02
2.95447368421053e-01 2.56695868739712e+00 2.21097488570377e-02
3.00868421052632e-01 2.52090373987067e+00 2.19113896899240e-02
3.06289473684211e-01 2.47567508472750e+00 2.17112836959294e-02
3.11710526315789e-01 2.43125789695308e+00 2.15096341669311e-02
3.17131578947368e-01 2.38763761765259e+00 2.13066334958903e-02
3.22552631578947e-01 2.34479994926194e+00 2.11024638589307e-02
3.27973684210526e-01 2.30273085048835e+00 2.08972977285479e-02
3.33394736842105e-01 2.26141653208470e+00 2.06912983521404e-02
3.38815789473684e-01 2.22084345231376e+00 2.04846203191351e-02
3.44236842105263e-01 2.18099831217268e+00 2.02774099655841e-02
3.49657894736842e-01 2.14186805147738e+00 2.00698058108558e-02
3.55078947368421e-01 2.10343984415539e+00 1.98619389754092e-02
3.60500000000000e-01 2.06570109435662e+00 1.96539335091236e-02
3.65921052631579e-01 2.02863943231202e+00 1.94459068168284e-02
3.71342105263158e-01 1.99224270999605e+00 1.92379699583391e-02
3.76763157894737e-01 1.95649899743086e+00 1.90302279303947e-02
3.82184210526316e-01 1.92139657876443e+00 1.88227800294079e-02
3.87605263157895e-01 1.88692394817303e+00 1.86157200905931e-02
3.93026315789474e-01 1.85306980642885e+00 1.84091367605259e-02
3.98447368421053e-01 1.81982305686975e+00 1.82031137608945e-02
4.03868421052632e-01 1.78717280200377e+00 1.79977300856974e-02
4.09289473684211e-01 1.75510833992749e+00 1.77930602831092e-02
4.14710526315790e-01 1.72361916060023e+00 1.75891746400836e-02
4.20131578947368e-01 1.69269494261943e+00 1.73861393567829e-02
4.25552631578947e-01 1.66232554982916e+00 1.71840167911976e-02
4.30973684210526e-01 1.63250102779836e+00 1.69828656144460e-02
4.36394736842105e-01 1.60321160075950e+00 1.67827409577426e-02
4.41815789473684e-01 1.57444766839641e+00 1.65836946258433e-02
4.47236842105263e-01 1.54619980251536e+00 1.63857752208818e-02
4.52657894736842e-01 1.51845874419511e+00 1.61890282959952e-02
4.58078947368421e-01 1.49121540051980e+00 1.59934965059630e-02
4.63500000000000e-01 1.46446084177052e+00 1.57992197105574e-02
4.68921052631579e-01 1.43818629849183e+00 1.56062351459454e-02
4.74342105263158e-01 1.41238315846134e+00 1.54145775246495e-02
4.79763157894737e-01 1.38704296402452e+00 1.52242791304769e-02
4.85184210526316e-01 1.36215740931656e+00 1.50353699698227e-02
4.90605263157895e-01 1.33771833739672e+00 1.48478778507935e-02
4.96026315789474e-01 1.31371773776361e+00 1.46618284883008e-02
5.01447368421053e-01 1.29014774354678e+00 1.44772456079848e-02
5.06868421052632e-01 1.26700062906367e+00 1.42941510124411e-02
5.12289473684211e-01 1.24426880728219e+00 1.41125647047468e-02
5.17710526315790e-01 1.22194482721071e+00 1.39325049540717e-02
5.23131578947369e-01 1.20002137158033e+00 1.37539883581306e-02
5.28552631578947e-01 1.17849125444192e+00 1.35770299531688e-02
5.33973684210526e-01 1.15734741869730e+00 1.34016432701255e-02
5.39394736842105e-01 1.13658293390079e+00 1.32278403881211e-02
5.44815789473684e-01 1.11619099398328e+00 1.30556320326469e-02
5.50236842105263e-01 1.09616491491696e+00 1.28850276189929e-02
5.55657894736842e-01 1.07649813266244e+00 1.27160353168125e-02
5.61078947368421e-01 1.05718420088351e+00 1.25486621146671e-02
5.66500000000000e-01 1.03821678893335e+00 1.23829138562342e-02
5.71921052631579e-01 1.01958967977589e+00 1.22187953217712e-02
5.77342105263158e-01 1.00129676785759e+00 1.20563102654228e-02
5.82763157894737e-01 9.83332057197600e-01 1.18954614507884e-02
5.88184210526316e-01 9.65689659419123e-01 1.17362507240705e-02
5.93605263157895e-01 9.48363791735882e-01 1.15786790421649e-02
5.99026315789474e-01 9.31348775166962e-01 1.14227465187139e-02
6.04447368421053e-01 9.14639032568364e-01 1.12684524704979e-02
6.09868421052632e-01 8.98229086884428e-01 1.11157954406395e-02
6.15289473684211e-01 8.82113559349685e-01 1.09647732597985e-02
6.20710526315789e-01 8.66287167653253e-01 1.08153830709181e-02
6.26131578947368e-01 8.50744724280809e-01 1.06676213528203e-02
6.31552631578947e-01 8.35481134811673e-01 1.05214839753943e-02
6.36973684210526e-01 8.20491396181811e-01 1.03769662207420e-02
6.42394736842105e-01 8.05770595111865e-01 1.02340628033316e-02
6.47815789473684e-01 7.91313906494245e-01 1.00927679198377e-02
6.53236842105263e-01 7.77116591749488e-01 9.95307526411918e-03
6.58657894736842e-01 7.63173997355194e-01 9.81497805656802e-03
6.64078947368421e-01 7.49481553240952e-01 9.67846907399978e-03
6.69500000000000e-01 7.36034771349622e-01 9.54354066169326e-03
6.74921052631579e-01 7.22829244164170e-01 9.41018477542683e-03
6.80342105263158e-01 7.09860643208731e-01 9.27839299524337e-03
6.85763157894737e-01 6.97124717684706e-01 9.14815653855258e-03
6.91184210526316e-01 6.84617293075520e-01 9.01946629820445e-03
6.96605263157895e-01 6.72334269728052e-01 8.89231285156982e-03
7.02026315789474e-01 6.60271621575350e-01 8.76668648177662e-03
7.07447368421053e-01 6.48425394752368e-01 8.64257719952391e-03
7.12868421052632e-01 6.36791706348016e-01 8.51997475009977e-03
7.18289473684211e-01 6.25366743130739e-01 8.39886864562758e-03
7.23710526315790e-01 6.14146760254605e-01 8.27924817375329e-03
7.29131578947368e-01 6.03128080076353e-01 8.16110240588879e-03
7.34552631578947e-01 5.92307090948432e-01 8.04442022648199e-03
7.39973684210526e-01 5.81680245994304e-01 7.92919034022184e-03
7.45394736842105e-01 5.71244061987207e-01 7.81540127885986e-03
7.50815789473684e-01 5.60995118206978e-01 7.70304142779640e-03
7.56236842105263e-01 5.50930055280914e-01 7.59209902998863e-03
7.61657894736842e-01 5.41045574132836e-01 7.48256219955533e-03
7.67078947368421e-01 5.31338434852912e-01 7.37441893594268e-03
7.72500000000000e-01 5.21805455671987e-01 7.26765712655061e-03
7.77921052631579e-01 5.12443511917423e-01 7.16226456933735e-03
7.83342105263158e-01 5.03249534955571e-01 7.05822897696908e-03
7.88763157894737e-01 4.94220511219660e-01 6.95553798071456e-03
7.94184210526316e-01 4.85353481220863e-01 6.85417915100417e-03
7.99605263157895e-01 4.76645538547273e-01 6.75413999900430e-03
8.05026315789474e-01 4.68093828952246e-01 6.65540798639552e-03
8.10447368421053e-01 4.59695549378953e-01 6.55797053567409e-03
8.15868421052632e-01 4.51447947071281e-01 6.46181503081522e-03
8.21289473684211e-01 4.43348318670523e-01 6.36692883478363e-03
8.26710526315790e-01 4.35394009302001e-01 6.27329929157351e-03
8.32131578947369e-01 4.27582411732456e-01 6.18091372808175e-03
8.37552631578947e-01 4.19910965514522e-01 6.08975947004748e-03
8.42973684210526e-01 4.12377156122093e-01 5.99982384347677e-03
8.48394736842105e-01 4.04978514151793e-01 5.91109417592608e-03
8.53815789473684e-01 3.97712614512681e-01 5.82355781101473e-03
8.59236842105263e-01 3.90577075607761e-01 5.73720210798333e-03
8.64657894736842e-01 3.83569558584610e-01 5.65201444780054e-03
8.70078947368421e-01 3.76687766538321e-01 5.56798223973095e-03
8.75500000000000e-01 3.69929443781274e-01 5.48509292032645e-03
8.80921052631579e-01 3.63292375103014e-01 5.40333396580083e-03
8.86342105263158e-01 3.56774385023303e-01 5.32269289220628e-03
8.91763157894737e-01 3.50373337100144e-01 5.24315725552170e-03
8.97184210526316e-01 3.44087133228791e-01 5.16471466292262e-03
9.02605263157895e-01 3.37913712934622e-01 5.08735277147614e-03
9.08026315789474e-01 3.31851052723481e-01 5.01105929238286e-03
9.13447368421053e-01 3.25897165393373e-01 4.93582199563234e-03
9.18868421052632e-01 3.20050099401753e-01 4.86162870829917e-03
9.24289473684211e-01 3.14307938225222e-01 4.78846732415224e-03
9.29710526315790e-01 3.08668799714169e-01 4.71632580299634e-03
9.35131578947369e-01 3.03130835493211e-01 4.64519216996257e-03
9.40552631578948e-01 2.97692230354769e-01 4.57505452425863e-03
9.45973684210526e-01 2.92351201648067e-01 4.50590103827370e-03
9.51394736842105e-01 2.87105998711024e-01 4.43771995664282e-03
9.56815789473684e-01 2.81954902295878e-01 4.37049960421409e-03
9.62236842105263e-01 2.76896223990735e-01 4.30422838406062e-03
9.67657894736842e-01 2.71928305685923e-01 4.23889477992783e-03
9.73078947368421e-01 2.67049519011228e-01 4.17448735903252e-03
9.78500000000000e-01 2.62258264816502e-01 4.11099476983515e-03
9.83921052631579e-01 2.57552972647013e-01 4.04840574882562e-03
9.89342105263158e-01 2.52932100215469e-01 3.98670911917497e-03
9.94763157894737e-01 2.48394132909868e-01 3.92589378936906e-03
1.00018421052632e+00 2.43937583296599e-01 3.86594876169287e-03
1.00560526315789e+00 2.39560990608656e-01 3.80686312147336e-03
1.01102631578947e+00 2.35262920327147e-01 3.74862604571350e-03
1.01644736842105e+00 2.31041963646110e-01 3.69122681132435e-03
1.02186842105263e+00 2.26896737035667e-01 3.63465478980103e-03
1.02728947368421e+00 2.22825881752589e-01 3.57889943153651e-03
1.03271052631579e+00 2.18828063504200e-01 3.52395028082410e-03
1.03813157894737e+00 2.14901971900072e-01 3.46979699802718e-03
1.04355263157895e+00 2.11046320026629e-01 3.41642931722946e-03
1.04897368421053e+00 2.07259844127309e-01 3.36383706788171e-03
1.05439473684211e+00 2.03541303084772e-01 3.31201018928759e-03
1.05981578947368e+00 1.99889478049097e-01 3.26093871564953e-03
1.06523684210526e+00 1.96303172007812e-01 3.21061276497780e-03
1.07065789473684e+00 1.92781209486441e-01 3.16102255175335e-03
1.07607894736842e+00 1.89322436068884e-01 3.11215840006245e-03
1.08150000000000e+00 1.85925718050937e-01 3.06401072965624e-03
1.08692105263158e+00 1.82589942040905e-01 3.01657004556333e-03
1.09234210526316e+00 1.79314014679312e-01 2.96982694956036e-03
1.09776315789474e+00 1.76096862194574e-01 2.92377215208524e-03
1.10318421052632e+00 1.72937430080143e-01 2.87839645924339e-03
1.10860526315789e+00 1.69834682723506e-01 2.83369076308301e-03
1.11402631578947e+00 1.66787603143911e-01 2.78964605198815e-03
1.11944736842105e+00 1.63795192580671e-01 2.74625342148684e-03
1.12486842105263e+00 1.60856470192350e-01 2.70350406214138e-03
1.13028947368421e+00 1.57970472712110e-01 2.66138925044710e-03
1.13571052631579e+00 1.55136254202358e-01 2.61990035825116e-03
1.14113157894737e+00 1.52352885673239e-01 2.57902886704503e-03
1.14655263157895e+00 1.49619454780738e-01 2.53876633865865e-03
1.15197368421053e+00 1.46935065593416e-01 2.49910442922381e-03
1.15739473684211e+00 1.44298838231964e-01 2.46003489832529e-03
1.16281578947368e+00 1.41709908603364e-01 2.42154959826492e-03
1.16823684210526e+00 1.39167428097977e-01 2.38364046593300e-03
1.17365789473684e+00 1.36670563371415e-01 2.34629953077291e-03
1.17907894736842e+00 1.34218496010455e-01 2.30951892308801e-03
1.18450000000000e+00 1.31810422285392e-01 2.27329086404008e-03
1.18992105263158e+00 1.29445552868601e-01 2.23760765804826e-03
1.19534210526316e+00 1.27123112630620e-01 2.20246170001098e-03
1.20076315789474e+00 1.24842340330450e-01 2.16784548284779e-03
1.20618421052632e+00 1.22602488384871e-01 2.13375158818241e-03
1.21160526315789e+00 1.20402822606950e-01 2.10017267923676e-03
1.21702631578947e+00 1.18242622015443e-01 2.06710150738027e-03
1.22244736842105e+00 1.16121178547672e-01 2.03453091897813e-03
1.22786842105263e+00 1.14037796844653e-01 2.00245384671273e-03
1.23328947368421e+00 1.11991794008127e-01 1.97086330294199e-03
1.23871052631579e+00 1.09982499422444e-01 1.93975238563919e-03
1.24413157894737e+00 1.08009254488350e-01 1.90911428765755e-03
1.24955263157895e+00 1.06071412408775e-01 1.87894227641004e-03
1.25497368421053e+00 1.04168338019605e-01 1.84922970292541e-03
1.26039473684211e+00 1.02299407538072e-01 1.81997000765394e-03
1.26581578947368e+00 1.00464008372969e-01 1.79115671278267e-03
1.27123684210526e+00 9.86615389110209e-02 1.76278341631818e-03
1.27665789473684e+00 9.68914083587965e-02 1.73484379711479e-03
1.28207894736842e+00 9.51530365093753e-02 1.70733162014815e-03
1.28750000000000e+00 9.34458535655892e-02 1.68024072935837e-03
1.29292105263158e+00 9.17692999415155e-02 1.65356504212258e-03
1.29834210526316e+00 9.01228261148077e-02 1.62729855381636e-03
1.30376315789474e+00 8.85058924102955e-02 1.60143534260443e-03
1.30918421052632e+00 8.69179688353703e-02 1.57596956277581e-03
1.31460526315789e+00 8.53585348955175e-02 1.55089543958101e-03
1.32002631578947e+00 8.38270794564060e-02 1.52620727337022e-03
1.32544736842105e+00 8.23231005431730e-02 1.50189944394579e-03
1.33086842105263e+00 8.08461051871252e-02 1.47796640435573e-03
1.33628947368421e+00 7.93956092543127e-02 1.45440267607204e-03
1.34171052631579e+00 7.79711373167519e-02 1.43120285274528e-03
1.34713157894737e+00 7.65722224662418e-02 1.40836160623366e-03
1.35255263157895e+00 7.51984061623946e-02 1.38587367248621e-03
1.35797368421053e+00 7.38492381103473e-02 1.36373385743924e-03
1.36339473684211e+00 7.25242760847428e-02 1.34193704070837e-03
1.36881578947368e+00 7.12230857943814e-02 1.32047817009685e-03
1.37423684210526e+00 6.99452407314577e-02 1.29935225730724e-03
1.37965789473684e+00 6.86903220573972e-02 1.27855438112074e-03
1.38507894736842e+00 6.74579184395586e-02 1.25807969075210e-03
1.39050000000000e+00 6.62476259252041e-02 1.23792340073614e-03
1.39592105263158e+00 6.50590478013834e-02 1.21808078692425e-03
1.40134210526316e+00 6.38917944883697e-02 1.19854718936913e-03
1.40676315789474e+00 6.27454833881531e-02 1.17931801537315e-03
1.41218421052632e+00 6.16197387670903e-02 1.16038873472717e-03
1.41760526315789e+00 6.05141916256824e-02 1.14175487597334e-03
1.42302631578947e+00 5.94284795991161e-02 1.12341202902238e-03
1.42844736842105e+00 5.83622468166857e-02 1.10535584792359e-03
1.43386842105263e+00 5.73151437925294e-02 1.08758204643167e-03
1.43928947368421e+00 5.62868273045985e-02 1.07008639451832e-03
1.44471052631579e+00 5.52769603018413e-02 1.05286472074696e-03
1.45013157894737e+00 5.42852117737563e-02 1.03591291620741e-03
1.45555263157895e+00 5.33112566425916e-02 1.01922692469093e-03
1.46097368421053e+00 5.23547756752402e-02 1.00280274654022e-03
1.46639473684211e+00 5.14154553598865e-02 9.86636440999520e-04
1.47181578947368e+00 5.04929878095675e-02 9.70724122293826e-04
1.47723684210526e+00 4.95870706557055e-02 9.55061956529978e-04
1.48265789473684e+00 4.86974069659029e-02 9.39646163707312e-04
1.48807894736842e+00 4.78237051294661e-02 9.24473019853052e-04
1.49350000000000e+00 4.69656787676194e-02 9.09538853371879e-04
1.49892105263158e+00 4.61230466345472e-02 8.94840042154182e-04
1.50434210526316e+00 4.52955325406999e-02 8.80373015399964e-04
1.50976315789474e+00 4.44828652465505e-02 8.66134255559077e-04
1.51518421052632e+00 4.36847783790041e-02 8.52120294932532e-04
1.52060526315790e+00 4.29010103394181e-02 8.38327712974194e-04
1.52602631578947e+00 4.21313042320574e-02 8.24753137945169e-04
1.53144736842105e+00 4.13754077654842e-02 8.11393248676600e-04
1.53686842105263e+00 4.06330731747395e-02 7.98244771405433e-04
1.54228947368421e+00 3.99040571358464e-02 7.85304477256681e-04
1.54771052631579e+00 3.91881206990749e-02 7.72569183743910e-04
1.55313157894737e+00 3.84850291974126e-02 7.60035757342090e-04
1.55855263157895e+00 3.77945521701019e-02 7.47701106638516e-04
1.56397368421053e+00 3.71164632993125e-02 7.35562184851534e-04
1.56939473684211e+00 3.64505403235724e-02 7.23615991325771e-04
1.57481578947368e+00 3.57965649690997e-02 7.11859568734427e-04
1.58023684210526e+00 3.51543228745807e-02 7.00290000844578e-04
1.58565789473684e+00 3.45236035321076e-02 6.88904413786772e-04
1.59107894736842e+00 3.39042002068178e-02 6.77699977413338e-04
1.59650000000000e+00 3.32959098729717e-02 6.66673902693666e-04
1.60192105263158e+00 3.26985331440286e-02 6.55823439629498e-04
1.60734210526316e+00 3.21118742175681e-02 6.45145878406092e-04
1.61276315789474e+00 3.15357408006889e-02 6.34638550625957e-04
1.61818421052632e+00 3.09699440505042e-02 6.24298826883837e-04
1.62360526315789e+00 3.04142985091433e-02 6.14124114822037e-04
1.62902631578947e+00 2.98686220523908e-02 6.04111860173976e-04
1.63444736842105e+00 2.93327358204283e-02 5.94259547884696e-04
1.63986842105263e+00 2.88064641624446e-02 5.84564699853159e-04
1.64528947368421e+00 2.82896345762141e-02 5.75024873118178e-04
1.65071052631579e+00 2.77820776602064e-02 5.65637660804346e-04
1.65613157894737e+00 2.72836270492860e-02 5.56400693806462e-04
1.66155263157895e+00 2.67941193604814e-02 5.47311636007838e-04
1.66697368421053e+00 2.63133941475514e-02 5.38368185930223e-04
1.67239473684211e+00 2.58412938401599e-02 5.29568077683507e-04
1.67781578947368e+00 2.53776636950094e-02 5.20909078969995e-04
1.68323684210526e+00 2.49223517426719e-02 5.12388989475347e-04
1.68865789473684e+00 2.44752087452308e-02 5.04005641667954e-04
1.69407894736842e+00 2.40360881398048e-02 4.95756901661240e-04
1.69950000000000e+00 2.36048459930626e-02 4.87640667355615e-04
1.70492105263158e+00 2.31813409517962e-02 4.79654866937721e-04
1.71034210526316e+00 2.27654342034322e-02 4.71797459604655e-04
