Energy (eV)          EEDF (eV^-(3/2))     First Anisotropy
4.76190476190476e-03 6.13527817039896e-01 1.38005923333060e-07
1.42857142857143e-02 6.13527613979077e-01 4.44255506630259e-07
2.38095238095238e-02 6.13527059643301e-01 1.07018276354232e-06
3.33333333333333e-02 6.13526196069529e-01 1.79245601844764e-06
4.28571428571429e-02 6.13525045967772e-01 2.63125939230729e-06
5.23809523809524e-02 6.13523580446020e-01 3.61158125391271e-06
6.19047619047619e-02 6.13521787556342e-01 4.73004151203936e-06
7.14285714285714e-02 6.13519641737073e-01 5.97942813382214e-06
8.09523809523810e-02 6.13517137123554e-01 7.34470465226575e-06
9.04761904761905e-02 6.13514259278505e-01 8.85696128015636e-06
1.00000000000000e-01 6.13510978562496e-01 1.05041299566602e-05
1.09523809523810e-01 6.13507290844966e-01 1.22321033917900e-05
1.19047619047619e-01 6.13503202725067e-01 1.40477325772640e-05
1.28571428571429e-01 6.13498702139924e-01 1.59783906397415e-05
1.38095238095238e-01 6.13493776583973e-01 1.80255234827547e-05
1.47619047619048e-01 6.13488413133568e-01 2.01906789127571e-05
1.57142857142857e-01 6.13482598502677e-01 2.24754241065469e-05
1.66666666666667e-01 6.13476319079349e-01 2.48813532738972e-05
1.76190476190476e-01 6.13469560949730e-01 2.74100703651688e-05
1.85714285714286e-01 6.13462309924760e-01 3.00623095586702e-05
1.95238095238095e-01 6.13454551991374e-01 3.28346910414163e-05
2.04761904761905e-01 6.13446274867092e-01 3.55407667919557e-05
2.14285714285714e-01 6.13437559309912e-01 3.81524184422834e-05
2.23809523809524e-01 6.13428402282796e-01 4.08263345229514e-05
2.33333333333333e-01 6.13418802226187e-01 4.35579940212719e-05
2.42857142857143e-01 6.13408757533687e-01 4.63461962784184e-05
2.52380952380952e-01 6.13398266538655e-01 4.91898895780840e-05
2.61904761904762e-01 6.13387327503695e-01 5.20881548230480e-05
2.71428571428571e-01 6.13375938612414e-01 5.50401887986029e-05
2.80952380952381e-01 6.13364097964120e-01 5.80451512715194e-05
2.90476190476190e-01 6.13351803627612e-01 6.11014620377076e-05
3.00000000000000e-01 6.13339053919794e-01 6.41344320870628e-05
3.09523809523810e-01 6.13325879133185e-01 6.72440265174324e-05
3.19047619047619e-01 6.13312239049543e-01 7.09951166108800e-05
3.28571428571429e-01 6.13297939811273e-01 7.58739342711340e-05
3.38095238095238e-01 6.13282758408973e-01 8.18915416082392e-05
3.47619047619048e-01 6.13266511506726e-01 8.88892092403210e-05
3.57142857142857e-01 6.13249049922667e-01 9.67250226776596e-05
3.66666666666667e-01 6.13230253919085e-01 1.05271924783946e-04
3.76190476190476e-01 6.13210029172836e-01 1.14416006200560e-04
3.85714285714286e-01 6.13188303321240e-01 1.24054866002524e-04
3.95238095238095e-01 6.13165023047117e-01 1.34095794420009e-04
4.04761904761905e-01 6.13140151704630e-01 1.44354985732211e-04
4.14285714285714e-01 6.13113714626082e-01 1.55328680917237e-04
4.23809523809524e-01 6.13085502465840e-01 1.67758550696096e-04
4.33333333333333e-01 6.13055275614384e-01 1.81640305818893e-04
4.42857142857143e-01 6.13022837996157e-01 1.96768502484705e-04
4.52380952380952e-01 6.12988031189039e-01 2.12960553091211e-04
4.61904761904762e-01 6.12950729282908e-01 2.30054441510439e-04
4.71428571428571e-01 6.12910834379024e-01 2.47906684488707e-04
4.80952380952381e-01 6.12868272646403e-01 2.66390469216651e-04
4.90476190476191e-01 6.12822990876705e-01 2.85393815802598e-04
5.00000000000000e-01 6.12774953517157e-01 3.04637398423971e-04
5.09523809523810e-01 6.12724203317406e-01 3.23923029900038e-04
5.19047619047619e-01 6.12670772824487e-01 3.43476428058737e-04
5.28571428571429e-01 6.12614626322817e-01 3.63432250680220e-04
5.38095238095238e-01 6.12555747986798e-01 3.83675341891445e-04
5.47619047619048e-01 6.12494138273862e-01 4.04106030134396e-04
5.57142857142857e-01 6.12429811615453e-01 4.24635918682295e-04
5.66666666666667e-01 6.12362794362869e-01 4.45186914339863e-04
5.76190476190476e-01 6.12293122959672e-01 4.65690339375667e-04
5.85714285714286e-01 6.12220842316569e-01 4.86086056321001e-04
5.95238095238095e-01 6.12146004386349e-01 5.06321548923515e-04
6.04761904761905e-01 6.12068666932877e-01 5.27471529168997e-04
6.14285714285714e-01 6.11988558010569e-01 5.52621620099129e-04
6.23809523809524e-01 6.11904824071522e-01 5.84383928174166e-04
6.33333333333333e-01 6.11816445388879e-01 6.22904891186238e-04
6.42857142857143e-01 6.11722561161934e-01 6.67273410400082e-04
6.52380952380952e-01 6.11622451368975e-01 7.16668698017980e-04
6.61904761904762e-01 6.11515520608695e-01 7.70351598004242e-04
6.71428571428571e-01 6.11401283711962e-01 8.27656728919572e-04
6.80952380952381e-01 6.11279352930979e-01 8.87985346041094e-04
6.90476190476191e-01 6.11149426540911e-01 9.50798781669946e-04
7.00000000000000e-01 6.11011278722391e-01 1.01548470684886e-03
7.09523809523810e-01 6.10864790989418e-01 1.08312270138148e-03
7.19047619047619e-01 6.10709446255105e-01 1.15857295101536e-03
7.28571428571429e-01 6.10543784894073e-01 1.24650594808967e-03
7.38095238095238e-01 6.10366029904049e-01 1.34727229726773e-03
7.47619047619048e-01 6.10174677364498e-01 1.45915345377983e-03
7.57142857142857e-01 6.09968469888599e-01 1.58057331617485e-03
7.66666666666667e-01 6.09746372487735e-01 1.71008707156905e-03
7.76190476190476e-01 6.09507550637487e-01 1.84637083744809e-03
7.85714285714286e-01 6.09251350354524e-01 1.98821198161102e-03
7.95238095238095e-01 6.08977280127162e-01 2.13450006425715e-03
8.04761904761905e-01 6.08684994539939e-01 2.28392003544130e-03
8.14285714285714e-01 6.08374358211830e-01 2.43342978985893e-03
8.23809523809524e-01 6.08045828224384e-01 2.57913260766116e-03
8.33333333333333e-01 6.07700279120564e-01 2.71943131824122e-03
8.42857142857143e-01 6.07338560229297e-01 2.85441182436246e-03
8.52380952380952e-01 6.06961495506130e-01 2.98416688534763e-03
8.61904761904762e-01 6.06569883331316e-01 3.10879629737829e-03
8.71428571428572e-01 6.06164496282436e-01 3.22840696408057e-03
8.80952380952381e-01 6.05746080895323e-01 3.34311285755328e-03
8.90476190476191e-01 6.05315357429904e-01 3.45303484048239e-03
9.00000000000000e-01 6.04873019662453e-01 3.55829717844618e-03
9.09523809523810e-01 6.04419735512917e-01 3.66075755806198e-03
9.19047619047619e-01 6.03955713288679e-01 3.76376226295807e-03
9.28571428571429e-01 6.03480772902583e-01 3.86863089135950e-03
9.38095238095238e-01 6.02994793025412e-01 3.97499430134197e-03
9.47619047619048e-01 6.02497687308059e-01 4.08258342644501e-03
9.57142857142857e-01 6.01989401893475e-01 4.19114452197018e-03
9.66666666666667e-01 6.01469913002834e-01 4.30043903134601e-03
9.76190476190476e-01 6.00939224600823e-01 4.41024338025651e-03
9.85714285714286e-01 6.00397366146788e-01 4.52034856100085e-03
9.95238095238095e-01 5.99844390474863e-01 4.63055961956298e-03
1.00476190476190e+00 5.99280371773624e-01 4.75006353352675e-03
1.01428571428571e+00 5.98703066655379e-01 4.89960313509447e-03
1.02380952380952e+00 5.98107600772522e-01 5.09543241764157e-03
1.03333333333333e+00 5.97488016793045e-01 5.34008909113451e-03
1.04285714285714e+00 5.96838956537002e-01 5.62915425312380e-03
1.05238095238095e+00 5.96155630923301e-01 5.95838352161125e-03
1.06190476190476e+00 5.95433790142653e-01 6.32371113598240e-03
1.07142857142857e+00 5.94669694049208e-01 6.72125389443962e-03
1.08095238095238e+00 5.93860082776300e-01 7.14731483558329e-03
1.09047619047619e+00 5.93002147591674e-01 7.59838658833813e-03
1.10000000000000e+00 5.92093502015893e-01 8.07442142112621e-03
1.10952380952381e+00 5.91131249821853e-01 8.57656146300329e-03
1.11904761904762e+00 5.90112604445120e-01 9.10114393841242e-03
1.12857142857143e+00 5.89035667256708e-01 9.64457501426738e-03
1.13809523809524e+00 5.87898656477220e-01 1.02052464461854e-02
1.14761904761905e+00 5.86700066451802e-01 1.07809046442569e-02
1.15714285714286e+00 5.85438650512256e-01 1.13694155934199e-02
1.16666666666667e+00 5.84113404240628e-01 1.19687639529810e-02
1.17619047619048e+00 5.82723549167367e-01 1.25770517578195e-02
1.18571428571429e+00 5.81268516931113e-01 1.31924967717907e-02
1.19523809523810e+00 5.79747933921448e-01 1.38134305284493e-02
1.20476190476190e+00 5.78161606423655e-01 1.44523952135295e-02
1.21428571428571e+00 5.76505557431668e-01 1.51064021512147e-02
1.22380952380952e+00 5.74780174478862e-01 1.57613946767031e-02
1.23333333333333e+00 5.72985380317105e-01 1.64192770805875e-02
1.24285714285714e+00 5.71121125604959e-01 1.70797135821539e-02
1.25238095238095e+00 5.69187398322882e-01 1.77422848454059e-02
1.26190476190476e+00 5.67184232464836e-01 1.84064935847405e-02
1.27142857142857e+00 5.65111716036639e-01 1.90717700052404e-02
1.28095238095238e+00 5.62969998391665e-01 1.97374770667019e-02
1.29047619047619e+00 5.60759296934833e-01 2.04029155637312e-02
1.30000000000000e+00 5.58479903225437e-01 2.10635472940909e-02
1.30952380952381e+00 5.56133210178973e-01 2.17160425761863e-02
1.31904761904762e+00 5.53720436125059e-01 2.23700032406598e-02
1.32857142857143e+00 5.51240684379295e-01 2.30374655876760e-02
1.33809523809524e+00 5.48692346329322e-01 2.37210780665461e-02
1.34761904761905e+00 5.46073955843536e-01 2.44195416576775e-02
1.35714285714286e+00 5.43384197291443e-01 2.51314818631978e-02
1.36666666666667e+00 5.40621911264696e-01 2.58554692647323e-02
1.37619047619048e+00 5.37786098080139e-01 2.65900395352638e-02
1.38571428571429e+00 5.34875919157100e-01 2.73337127950805e-02
1.39523809523810e+00 5.31890696369584e-01 2.80850122219907e-02
1.40476190476190e+00 5.28829909480428e-01 2.88426063792562e-02
1.41428571428571e+00 5.25693165052111e-01 2.96060465025601e-02
1.42380952380952e+00 5.22480036043267e-01 3.03755073528180e-02
1.43333333333333e+00 5.19190087991184e-01 3.11503471298122e-02
1.44285714285714e+00 5.15823027670510e-01 3.19292309677984e-02
1.45238095238095e+00 5.12378701334638e-01 3.27108351479397e-02
1.46190476190476e+00 5.08857092152147e-01 3.34938545992040e-02
1.47142857142857e+00 5.05258316945083e-01 3.42770094949315e-02
1.48095238095238e+00 5.01582622327309e-01 3.50590510092126e-02
1.49047619047619e+00 4.97830380333165e-01 3.58387662819203e-02
1.50000000000000e+00 4.94002083621702e-01 3.66264213596798e-02
1.50952380952381e+00 4.90095260431157e-01 3.74365359882776e-02
1.51904761904762e+00 4.86106618314205e-01 3.82583101433063e-02
1.52857142857143e+00 4.82036576594375e-01 3.90712039747098e-02
1.53809523809524e+00 4.77886828458039e-01 3.98697761750159e-02
1.54761904761905e+00 4.73658920860418e-01 4.06552081291464e-02
1.55714285714286e+00 4.69354279675478e-01 4.14284574409374e-02
1.56666666666667e+00 4.64974233186198e-01 4.21902719902758e-02
1.57619047619048e+00 4.60520033953569e-01 4.29412037872320e-02
1.58571428571429e+00 4.55992879105491e-01 4.36816225822515e-02
1.59523809523810e+00 4.51393929090223e-01 4.44117291193476e-02
1.60476190476190e+00 4.46724324956947e-01 4.51924763130642e-02
1.61428571428571e+00 4.41969227490329e-01 4.60539389632092e-02
1.62380952380952e+00 4.37123353733733e-01 4.69762825586225e-02
1.63333333333333e+00 4.32179230155422e-01 4.79672681158820e-02
1.64285714285714e+00 4.27129960943026e-01 4.90213274383023e-02
1.65238095238095e+00 4.21969236443659e-01 5.01328240135770e-02
1.66190476190476e+00 4.16691336192994e-01 5.12961057932643e-02
1.67142857142857e+00 4.11291126604270e-01 5.25055571761231e-02
1.68095238095238e+00 4.05764053424267e-01 5.37556498555873e-02
1.69047619047619e+00 4.00106129093551e-01 5.50409922081571e-02
1.70000000000000e+00 3.94313915181031e-01 5.63843296093454e-02
1.70952380952381e+00 3.88376640102826e-01 5.77734344510221e-02
1.71904761904762e+00 3.82291155204555e-01 5.91100956780605e-02
1.72857142857143e+00 3.76068961677261e-01 6.03374567958737e-02
1.73809523809524e+00 3.69720808605835e-01 6.14609842830985e-02
1.74761904761905e+00 3.63257086210749e-01 6.24842905084361e-02
1.75714285714286e+00 3.56687819079516e-01 6.34110471387396e-02
1.76666666666667e+00 3.50022661010080e-01 6.42449691878786e-02
1.77619047619048e+00 3.43270891360829e-01 6.49898001341623e-02
1.78571428571429e+00 3.36441412803921e-01 6.56492980794986e-02
1.79523809523810e+00 3.29542750382241e-01 6.62272222977572e-02
1.80476190476191e+00 3.22583051903107e-01 6.71308837901381e-02
1.81428571428571e+00 3.15451485317723e-01 6.83270444614694e-02
1.82380952380952e+00 3.08161193519761e-01 6.93852560452668e-02
1.83333333333333e+00 3.00725311568712e-01 7.03077451986400e-02
1.84285714285714e+00 2.93156983014388e-01 7.10969139649201e-02
1.85238095238095e+00 2.85469298139624e-01 7.17556859203918e-02
1.86190476190476e+00 2.77675234446739e-01 7.22874706910143e-02
1.87142857142857e+00 2.69787599398390e-01 7.26961294591355e-02
1.88095238095238e+00 2.61818975418312e-01 7.29859414883051e-02
1.89047619047619e+00 2.53781667150913e-01 7.31615717896688e-02
1.90000000000000e+00 2.45687650952100e-01 7.31808281098877e-02
1.90952380952381e+00 2.37561647699439e-01 7.29725944197528e-02
1.91904761904762e+00 2.29434669310393e-01 7.25284344230674e-02
1.92857142857143e+00 2.21331391488670e-01 7.18699333628628e-02
1.93809523809524e+00 2.13276067597732e-01 7.10054051786979e-02
1.94761904761905e+00 2.05292180348738e-01 6.99449547148775e-02
1.95714285714286e+00 1.97402351759034e-01 6.86992419680546e-02
1.96666666666667e+00 1.89628266814219e-01 6.72793460776583e-02
1.97619047619048e+00 1.81990611307250e-01 6.56966294383576e-02
1.98571428571429e+00 1.74509024213138e-01 6.39626027289846e-02
1.99523809523810e+00 1.67202064932395e-01 6.20887922958869e-02
2.00476190476190e+00 1.60087195356498e-01 6.00945764974611e-02
2.01428571428571e+00 1.53183278227317e-01 5.80589185451780e-02
2.02380952380952e+00 1.46489225278526e-01 5.60463008762882e-02
2.03333333333333e+00 1.40004363716497e-01 5.40564753706512e-02
2.04285714285714e+00 1.33727615298627e-01 5.20925373625894e-02
2.05238095238095e+00 1.27657525153609e-01 5.01572914371219e-02
2.06190476190476e+00 1.21792289941634e-01 4.82532626333105e-02
2.07142857142857e+00 1.16129785309111e-01 4.63827077844078e-02
2.08095238095238e+00 1.10667592598182e-01 4.45476269414178e-02
2.09047619047619e+00 1.05403024776758e-01 4.27497749582484e-02
2.10000000000000e+00 1.00333151529058e-01 4.09548709532826e-02
2.10952380952381e+00 9.54709420352791e-02 3.91420406634245e-02
2.11904761904762e+00 9.08246703569879e-02 3.73716521720321e-02
2.12857142857143e+00 8.63839199175267e-02 3.56880957946484e-02
2.13809523809524e+00 8.21387141266538e-02 3.40876754912692e-02
2.14761904761905e+00 7.80794877383319e-02 3.25668957312536e-02
2.15714285714286e+00 7.41970688426014e-02 3.11224147102641e-02
2.16666666666667e+00 7.04826615022657e-02 2.97510387768997e-02
2.17619047619048e+00 6.69278290139486e-02 2.84497170294602e-02
2.18571428571429e+00 6.35244777738164e-02 2.72155360786829e-02
2.19523809523810e+00 6.02648417286562e-02 2.60457150529648e-02
2.20476190476190e+00 5.71414673739488e-02 2.49114854718803e-02
2.21428571428571e+00 5.41567692123733e-02 2.37926901487338e-02
2.22380952380952e+00 5.13077980313999e-02 2.26988888809706e-02
2.23333333333333e+00 4.85913240565343e-02 2.16315579078197e-02
2.24285714285714e+00 4.60040428834638e-02 2.05912541651768e-02
2.25238095238095e+00 4.35425945622523e-02 1.95783805103678e-02
2.26190476190476e+00 4.12035819000580e-02 1.85931921087392e-02
2.27142857142857e+00 3.89835879804697e-02 1.76358028155331e-02
2.28095238095238e+00 3.68791929064353e-02 1.67061914820401e-02
2.29047619047619e+00 3.48869897819523e-02 1.58042081184923e-02
2.30000000000000e+00 3.30035999557304e-02 1.49317192828528e-02
2.30952380952381e+00 3.12255691984753e-02 1.40965041646919e-02
2.31904761904762e+00 2.95479300640415e-02 1.33074984633527e-02
2.32857142857143e+00 2.79645524364999e-02 1.25664077878066e-02
2.33809523809524e+00 2.64696618440309e-02 1.18703817423658e-02
2.34761904761905e+00 2.50578431754322e-02 1.12166440593343e-02
2.35714285714286e+00 2.37240172876932e-02 1.06025974340477e-02
2.36666666666667e+00 2.24634191571039e-02 1.00258118570259e-02
2.37619047619048e+00 2.12715774696872e-02 9.48401372361257e-03
2.38571428571429e+00 2.01442955538765e-02 8.97507566891131e-03
2.39523809523810e+00 1.90776335649429e-02 8.49700709157618e-03
2.40476190476191e+00 1.80678918338797e-02 8.04411871976274e-03
2.41428571428571e+00 1.71129678794320e-02 7.61151158773098e-03
2.42380952380952e+00 1.62102959275397e-02 7.19884797891262e-03
2.43333333333333e+00 1.53574068201129e-02 6.80529195464393e-03
2.44285714285714e+00 1.45519514777606e-02 6.42992609199317e-03
2.45238095238095e+00 1.37916964681733e-02 6.07186517352944e-03
2.46190476190476e+00 1.30745197479854e-02 5.73025495203577e-03
2.47142857142857e+00 1.23984065767650e-02 5.40427091685097e-03
2.48095238095238e+00 1.17614456017570e-02 5.09311706230717e-03
2.49047619047619e+00 1.11618251119749e-02 4.79602465809625e-03
2.50000000000000e+00 1.05978294603687e-02 4.51281130027264e-03
2.50952380952381e+00 1.00677816892157e-02 4.24486839160193e-03
2.51904761904762e+00 9.56969990122292e-03 3.99389032954710e-03
2.52857142857143e+00 9.10140705409226e-03 3.75975388392006e-03
2.53809523809524e+00 8.66088257099161e-03 3.54126982767208e-03
2.54761904761905e+00 8.24624975526212e-03 3.33734090807163e-03
2.55714285714286e+00 7.85576490611169e-03 3.14695175080321e-03
2.56666666666667e+00 7.48780729350295e-03 2.96916248437089e-03
2.57619047619048e+00 7.14086992186407e-03 2.80310287965423e-03
2.58571428571429e+00 6.81355101821391e-03 2.64796696155242e-03
2.59523809523810e+00 6.50454618573247e-03 2.50300805623744e-03
2.60476190476190e+00 6.21264116808649e-03 2.36672022917517e-03
2.61428571428571e+00 5.93702921503552e-03 2.23813867580117e-03
2.62380952380952e+00 5.67671279250370e-03 2.11735936303007e-03
2.63333333333333e+00 5.43073430025554e-03 2.00399270473507e-03
2.64285714285714e+00 5.19819758135462e-03 1.89757451636648e-03
2.65238095238095e+00 4.97826361646991e-03 1.79767262763306e-03
2.66190476190476e+00 4.77014652889765e-03 1.70388461741309e-03
2.67142857142857e+00 4.57310987703086e-03 1.61583571504451e-03
2.68095238095238e+00 4.38646321285728e-03 1.53317685508243e-03
2.69047619047619e+00 4.20955888673374e-03 1.45558287714722e-03
2.70000000000000e+00 4.04178907941858e-03 1.38190748113091e-03
2.70952380952381e+00 3.88295795601765e-03 1.31096423848794e-03
2.71904761904762e+00 3.73288142119577e-03 1.24321725744495e-03
2.72857142857143e+00 3.59104885589210e-03 1.17921017186295e-03
2.73809523809524e+00 3.45698171814218e-03 1.11871869010078e-03
2.74761904761905e+00 3.33023123683219e-03 1.06153376661454e-03
2.75714285714286e+00 3.21037640445065e-03 1.00745998481639e-03
2.76666666666667e+00 3.09702211118172e-03 9.56314632396351e-04
2.77619047619048e+00 2.98979740995168e-03 9.07926842460596e-04
2.78571428571429e+00 2.88835390284094e-03 8.62136795585606e-04
2.79523809523810e+00 2.79236424000140e-03 8.18794981109692e-04
2.80476190476191e+00 2.70152072225015e-03 7.77147255589386e-04
2.81428571428571e+00 2.61585693081273e-03 7.37543498153188e-04
2.82380952380952e+00 2.53496220678267e-03 7.00974694393675e-04
2.83333333333333e+00 2.45846258385732e-03 6.67209324280198e-04
2.84285714285714e+00 2.38601097487034e-03 6.36064214005596e-04
2.85238095238095e+00 2.31728503966463e-03 6.07370239592049e-04
2.86190476190476e+00 2.25198525393495e-03 5.80971003649537e-04
2.87142857142857e+00 2.18983315998189e-03 5.56721630580736e-04
2.88095238095238e+00 2.13056978213875e-03 5.34487669388456e-04
2.89047619047619e+00 2.07395419126281e-03 5.14144094934906e-04
2.90000000000000e+00 2.01976220402151e-03 4.95328101144904e-04
2.90952380952381e+00 1.96785144645748e-03 4.77379957725338e-04
2.91904761904762e+00 1.91815569323235e-03 4.59853702917739e-04
2.92857142857143e+00 1.87061502475145e-03 4.42650852695425e-04
2.93809523809524e+00 1.82517224085579e-03 4.25757271838290e-04
2.94761904761905e+00 1.78177177258284e-03 4.09163888814382e-04
2.95714285714286e+00 1.74035963990662e-03 3.92861793898528e-04
2.96666666666667e+00 1.70088340806462e-03 3.76842258398302e-04
2.97619047619048e+00 1.66329214260178e-03 3.61096753391643e-04
2.98571428571429e+00 1.62753636326068e-03 3.45616967672677e-04
2.99523809523810e+00 1.59356799695258e-03 3.30394823171063e-04
3.00476190476191e+00 1.56134033019022e-03 3.16303595406953e-04
