Energy (eV)          EEDF (eV^-(3/2))     First Anisotropy
3.51562500000000e-02 6.72868191978098e-02 4.44647813760662e-05
1.05468750000000e-01 6.65659489132808e-02 7.32770251648304e-05
1.75781250000000e-01 6.58528015969188e-02 9.63454166479003e-05
2.46093750000000e-01 6.51472945095638e-02 1.13635977018645e-04
3.16406250000000e-01 6.44493457984326e-02 1.27863615516198e-04
3.86718750000000e-01 6.37588744876572e-02 1.40060724093727e-04
4.57031250000000e-01 6.30758004688941e-02 1.50764492749219e-04
5.27343750000000e-01 6.24000444920313e-02 1.60301044963227e-04
5.97656250000000e-01 6.17315281559945e-02 1.68887806693099e-04
6.67968750000000e-01 6.10701738996508e-02 1.76679246580927e-04
7.38281250000000e-01 6.04159049928103e-02 1.83790295899607e-04
8.08593750000000e-01 5.97686455273239e-02 1.90309535065530e-04
8.78906250000000e-01 5.91283204082765e-02 1.96307160328493e-04
9.49218750000000e-01 5.84948553452744e-02 2.01840066851385e-04
1.01953125000000e+00 5.78681768438261e-02 2.06955236570909e-04
1.08984375000000e+00 5.72482121968160e-02 2.11692078392497e-04
1.16015625000000e+00 5.66348894760683e-02 2.16084093725768e-04
1.23046875000000e+00 5.60281375240021e-02 2.20160092313958e-04
1.30078125000000e+00 5.54278859453759e-02 2.23945099365935e-04
1.37109375000000e+00 5.48340650991203e-02 2.27461045345317e-04
1.44140625000000e+00 5.42466060902581e-02 2.30727299315736e-04
1.51171875000000e+00 5.36654407619112e-02 2.33761087464551e-04
1.58203125000000e+00 5.30905016873932e-02 2.36577825885366e-04
1.65234375000000e+00 5.25217221623862e-02 2.39191388338639e-04
1.72265625000000e+00 5.19590361972021e-02 2.41614324013376e-04
1.79296875000000e+00 5.14023785091266e-02 2.43858036355870e-04
1.86328125000000e+00 5.08516845148448e-02 2.45932931234210e-04
1.93359375000000e+00 5.03068903229481e-02 2.47848540697954e-04
2.00390625000000e+00 4.97679327265223e-02 2.49613627127977e-04
2.07421875000000e+00 4.92347491958135e-02 2.51236271490181e-04
2.14453125000000e+00 4.87072778709738e-02 2.52723948598149e-04
2.21484375000000e+00 4.81854575548845e-02 2.54083591678726e-04
2.28515625000000e+00 4.76692277060556e-02 2.55321648067598e-04
2.35546875000000e+00 4.71585284316022e-02 2.56444127501569e-04
2.42578125000000e+00 4.66533004802953e-02 2.57456644194148e-04
2.49609375000000e+00 4.61534852356880e-02 2.58364453660890e-04
2.56640625000000e+00 4.56590247093143e-02 2.59172485086883e-04
2.63671875000000e+00 4.51698615339616e-02 2.59885369890201e-04
2.70703125000000e+00 4.46859389570152e-02 2.60507467023648e-04
2.77734375000000e+00 4.42072008338732e-02 2.61042885467401e-04
2.84765625000000e+00 4.37335916214334e-02 2.61495504292013e-04
2.91796875000000e+00 4.32650563716484e-02 2.61868990611585e-04
2.98828125000000e+00 4.28015407251512e-02 2.62166815697829e-04
3.05859375000000e+00 4.23429909049482e-02 2.62392269485209e-04
3.12890625000000e+00 4.18893537101798e-02 2.62548473663777e-04
3.19921875000000e+00 4.14405765099483e-02 2.62638393528023e-04
3.26953125000000e+00 4.09966072372118e-02 2.62664848726868e-04
3.33984375000000e+00 4.05573943827429e-02 2.62630523039941e-04
3.41015625000000e+00 4.01228869891531e-02 2.62537973288492e-04
3.48046875000000e+00 3.96930346449805e-02 2.62389637475380e-04
3.55078125000000e+00 3.92677874788411e-02 2.62187842236289e-04
3.62109375000000e+00 3.88470961536427e-02 2.61934809674102e-04
3.69140625000000e+00 3.84309118608609e-02 2.61632663639557e-04
3.76171875000000e+00 3.80191863148764e-02 2.61283435513633e-04
3.83203125000000e+00 3.76118717473727e-02 2.60889069540582e-04
3.90234375000000e+00 3.72089209017943e-02 2.60451427755025e-04
3.97265625000000e+00 3.68102870278635e-02 2.59972294541285e-04
4.04296875000000e+00 3.64159238761573e-02 2.59453380859120e-04
4.11328125000000e+00 3.60257856927406e-02 2.58896328166262e-04
4.18359375000000e+00 3.56398272138586e-02 2.58302712064737e-04
4.25390625000000e+00 3.52580036606849e-02 2.57674045695225e-04
4.32421875000000e+00 3.48802707341262e-02 2.57011782901160e-04
4.39453125000000e+00 3.45065846096832e-02 2.56317321182066e-04
4.46484375000000e+00 3.41369019323655e-02 2.55592004453643e-04
4.53515625000000e+00 3.37711798116619e-02 2.54837125630431e-04
4.60546875000000e+00 3.34093758165644e-02 2.54053929045275e-04
4.67578125000000e+00 3.30514479706450e-02 2.53243612718496e-04
4.74609375000000e+00 3.26973547471857e-02 2.52407330488496e-04
4.81640625000000e+00 3.23470550643607e-02 2.51546194014350e-04
4.88671875000000e+00 3.20005082804701e-02 2.50661274660069e-04
4.95703125000000e+00 3.16576741892244e-02 2.49753605269277e-04
5.02734375000000e+00 3.13185130150803e-02 2.48824181838264e-04
5.09765625000000e+00 3.09829854086253e-02 2.47873965094813e-04
5.16796875000000e+00 3.06510524420128e-02 2.46903881989388e-04
5.23828125000000e+00 3.03226756044457e-02 2.45914827104814e-04
5.30859375000000e+00 2.99978167977082e-02 2.44907663990036e-04
5.37890625000000e+00 2.96764383317458e-02 2.43883226423155e-04
5.44921875000000e+00 2.93585029202923e-02 2.42842319608377e-04
5.51953125000000e+00 2.90439736765442e-02 2.41785721311232e-04
5.58984375000000e+00 2.87328141088808e-02 2.40714182936166e-04
5.66015625000000e+00 2.84249881166305e-02 2.39628430550050e-04
5.73046875000000e+00 2.81204599858827e-02 2.38529165855108e-04
5.80078125000000e+00 2.78191943853436e-02 2.37417067114372e-04
5.87109375000000e+00 2.75211563622380e-02 2.36292790032589e-04
5.94140625000000e+00 2.72263113382534e-02 2.35156968595288e-04
6.01171875000000e+00 2.69346251055282e-02 2.34010215868475e-04
6.08203125000000e+00 2.66460638226835e-02 2.32853124761304e-04
6.15234375000000e+00 2.63605940108962e-02 2.31686268753876e-04
6.22265625000000e+00 2.60781825500152e-02 2.30510202592162e-04
6.29296875000000e+00 2.57987966747187e-02 2.29325462951907e-04
6.36328125000000e+00 2.55224039707126e-02 2.28132569073286e-04
6.43359375000000e+00 2.52489723709701e-02 2.26932023367900e-04
6.50390625000000e+00 2.49784701520109e-02 2.25724311999621e-04
6.57421875000000e+00 2.47108659302212e-02 2.24509905440720e-04
6.64453125000000e+00 2.44461286582120e-02 2.23289259004600e-04
6.71484375000000e+00 2.41842276212173e-02 2.22062813356329e-04
6.78515625000000e+00 2.39251324335306e-02 2.20830995002165e-04
6.85546875000000e+00 2.36688130349795e-02 2.19594216759171e-04
6.92578125000000e+00 2.34152396874379e-02 2.18352878205864e-04
6.99609375000000e+00 2.31643829713763e-02 2.17107366114923e-04
7.06640625000000e+00 2.29162137824480e-02 2.15858054868802e-04
7.13671875000000e+00 2.26707033281128e-02 2.14605306859137e-04
7.20703125000000e+00 2.24278231242963e-02 2.13349472870699e-04
7.27734375000000e+00 2.21875449920852e-02 2.12090892450618e-04
7.34765625000000e+00 2.19498410544582e-02 2.10829894263644e-04
7.41796875000000e+00 2.17146837330514e-02 2.09566796434051e-04
7.48828125000000e+00 2.14820457449589e-02 2.08301906874810e-04
7.55859375000000e+00 2.12519000995672e-02 2.07035523604648e-04
7.62890625000000e+00 2.10242200954241e-02 2.05767935053517e-04
7.69921875000000e+00 2.07989793171405e-02 2.04499420356998e-04
7.76953125000000e+00 2.05761516323258e-02 2.03230249640157e-04
7.83984375000000e+00 2.03557111885562e-02 2.01960684291311e-04
7.91015625000000e+00 2.01376324103748e-02 2.00690977226126e-04
7.98046875000000e+00 1.99218899963250e-02 1.99421373142469e-04
8.05078125000000e+00 1.97084589160145e-02 1.98152108766469e-04
8.12109375000000e+00 1.94973144072116e-02 1.96883413090071e-04
8.19140625000000e+00 1.92884319729720e-02 1.95615507600512e-04
8.26171875000000e+00 1.90817873787971e-02 1.94348606502019e-04
8.33203125000000e+00 1.88773566498220e-02 1.93082916930061e-04
8.40234375000000e+00 1.86751160680337e-02 1.91818639158465e-04
8.47265625000000e+00 1.84750421695201e-02 1.90555966799693e-04
8.54296875000000e+00 1.82771117417469e-02 1.89295086998526e-04
8.61328125000000e+00 1.80813018208651e-02 1.88036180619416e-04
8.68359375000000e+00 1.78875896890463e-02 1.86779422427842e-04
8.75390625000000e+00 1.76959528718473e-02 1.85524981265784e-04
8.82421875000000e+00 1.75063691356024e-02 1.84273020221582e-04
8.89453125000000e+00 1.73188164848441e-02 1.83023696794480e-04
8.96484375000000e+00 1.71332731597509e-02 1.81777163053956e-04
9.03515625000000e+00 1.69497176336228e-02 1.80533565794020e-04
9.10546875000000e+00 1.67681286103841e-02 1.79293046682786e-04
9.17578125000000e+00 1.65884850221121e-02 1.78055742407408e-04
9.24609375000000e+00 1.64107660265932e-02 1.76821784814546e-04
9.31640625000000e+00 1.62349510049047e-02 1.75591301046578e-04
9.38671875000000e+00 1.60610195590226e-02 1.74364413673652e-04
9.45703125000000e+00 1.58889515094549e-02 1.73141240821798e-04
9.52734375000000e+00 1.57187268929004e-02 1.71921896297154e-04
9.59765625000000e+00 1.55503259599329e-02 1.70706489706519e-04
9.66796875000000e+00 1.53837291727093e-02 1.69495126574348e-04
9.73828125000000e+00 1.52189172027033e-02 1.68287908456261e-04
9.80859375000000e+00 1.50558709284628e-02 1.67084933049268e-04
9.87890625000000e+00 1.48945714333913e-02 1.65886294298750e-04
9.94921875000000e+00 1.47350000035532e-02 1.64692082502338e-04
1.00195312500000e+01 1.45771381255027e-02 1.63502384410823e-04
1.00898437500000e+01 1.44209674841360e-02 1.62317283326142e-04
1.01601562500000e+01 1.42664699605662e-02 1.61136859196566e-04
1.02304687500000e+01 1.41136276300211e-02 1.59961188709197e-04
1.03007812500000e+01 1.39624227597637e-02 1.58790345379838e-04
1.03710937500000e+01 1.38128378070349e-02 1.57624399640331e-04
1.04414062500000e+01 1.36648554170180e-02 1.56463418923438e-04
1.05117187500000e+01 1.35184584208254e-02 1.55307467745370e-04
1.05820312500000e+01 1.33736298335065e-02 1.54156607786012e-04
1.06523437500000e+01 1.32303528520773e-02 1.53010897966921e-04
1.07226562500000e+01 1.30886108535706e-02 1.51870394527185e-04
1.07929687500000e+01 1.29483873931079e-02 1.50735151097193e-04
1.08632812500000e+01 1.28096662019910e-02 1.49605218770379e-04
1.09335937500000e+01 1.26724311858147e-02 1.48480646173035e-04
1.10039062500000e+01 1.25366664225995e-02 1.47361479532207e-04
1.10742187500000e+01 1.24023561609446e-02 1.46247762741761e-04
1.11445312500000e+01 1.22694848181997e-02 1.45139537426664e-04
1.12148437500000e+01 1.21380369786582e-02 1.44036843005565e-04
1.12851562500000e+01 1.20079973917674e-02 1.42939716751670e-04
1.13554687500000e+01 1.18793509703605e-02 1.41848193851999e-04
1.14257812500000e+01 1.17520827889048e-02 1.40762307465093e-04
1.14960937500000e+01 1.16261780817712e-02 1.39682088777157e-04
1.15664062500000e+01 1.15016222415205e-02 1.38607567056742e-04
1.16367187500000e+01 1.13784008172086e-02 1.37538769707985e-04
1.17070312500000e+01 1.12564995127103e-02 1.36475722322442e-04
1.17773437500000e+01 1.11359041850604e-02 1.35418448729574e-04
1.18476562500000e+01 1.10166008428127e-02 1.34366971045912e-04
1.19179687500000e+01 1.08985756444171e-02 1.33321309722947e-04
1.19882812500000e+01 1.07818148966134e-02 1.32281483593755e-04
1.20585937500000e+01 1.06663050528427e-02 1.31247509918432e-04
1.21289062500000e+01 1.05520327116758e-02 1.30219404428367e-04
1.21992187500000e+01 1.04389846152582e-02 1.29197181369350e-04
1.22695312500000e+01 1.03271476477721e-02 1.28180853543573e-04
1.23398437500000e+01 1.02165088339148e-02 1.27170432350584e-04
1.24101562500000e+01 1.01070553373927e-02 1.26165927827153e-04
1.24804687500000e+01 9.99877445943306e-03 1.25167348686132e-04
1.25507812500000e+01 9.89165363730965e-03 1.24174702354343e-04
1.26210937500000e+01 9.78568044288591e-03 1.23187995009484e-04
1.26914062500000e+01 9.68084258117277e-03 1.22207231616098e-04
1.27617187500000e+01 9.57712788890223e-03 1.21232415960636e-04
1.28320312500000e+01 9.47452433311621e-03 1.20263550685629e-04
1.29023437500000e+01 9.37302000977044e-03 1.19300637323004e-04
1.29726562500000e+01 9.27260314235339e-03 1.18343676326548e-04
1.30429687500000e+01 9.17326208051996e-03 1.17392667103562e-04
1.31132812500000e+01 9.07498529873977e-03 1.16447608045717e-04
1.31835937500000e+01 8.97776139496006e-03 1.15508496559134e-04
1.32539062500000e+01 8.88157908928270e-03 1.14575329093722e-04
1.33242187500000e+01 8.78642722265562e-03 1.13648101171756e-04
1.33945312500000e+01 8.69229475557805e-03 1.12726807415759e-04
1.34648437500000e+01 8.59917076681978e-03 1.11811441575687e-04
1.35351562500000e+01 8.50704445215404e-03 1.10901996555431e-04
1.36054687500000e+01 8.41590512310401e-03 1.09998464438657e-04
1.36757812500000e+01 8.32574220570275e-03 1.09100836513997e-04
1.37460937500000e+01 8.23654523926641e-03 1.08209103299627e-04
1.38164062500000e+01 8.14830387518057e-03 1.07323254567224e-04
1.38867187500000e+01 8.06100787569962e-03 1.06443279365328e-04
1.39570312500000e+01 7.97464711275894e-03 1.05569166042124e-04
1.40273437500000e+01 7.88921156679990e-03 1.04700902267663e-04
1.40976562500000e+01 7.80469132560735e-03 1.03838475055527e-04
1.41679687500000e+01 7.72107658315960e-03 1.02981870783954e-04
1.42382812500000e+01 7.63835763849076e-03 1.02131075216447e-04
1.43085937500000e+01 7.55652489456524e-03 1.01286073521866e-04
1.43789062500000e+01 7.47556885716424e-03 1.00446850294023e-04
1.44492187500000e+01 7.39548013378432e-03 9.96133895707919e-05
1.45195312500000e+01 7.31624943254763e-03 9.87856748527494e-05
1.45898437500000e+01 7.23786756112386e-03 9.79636891213451e-05
1.46601562500000e+01 7.16032542566379e-03 9.71474148566307e-05
1.47304687500000e+01 7.08361402974419e-03 9.63368340545448e-05
1.48007812500000e+01 7.00772447332406e-03 9.55319282437617e-05
1.48710937500000e+01 6.93264795171209e-03 9.47326785021417e-05
1.49414062500000e+01 6.85837575454505e-03 9.39390654727577e-05
1.50117187500000e+01 6.78489926477733e-03 9.31510693795230e-05
1.50820312500000e+01 6.71220995768111e-03 9.23686700424472e-05
1.51523437500000e+01 6.64029939985734e-03 9.15918468925038e-05
1.52226562500000e+01 6.56915924825732e-03 9.08205789861181e-05
1.52929687500000e+01 6.49878124921473e-03 9.00548450193066e-05
1.53632812500000e+01 6.42915723748803e-03 8.92946233414694e-05
1.54335937500000e+01 6.36027913531313e-03 8.85398919688177e-05
1.55039062500000e+01 6.29213895146625e-03 8.77906285974950e-05
1.55742187500000e+01 6.22472878033672e-03 8.70468106163560e-05
1.56445312500000e+01 6.15804080100981e-03 8.63084151194190e-05
1.57148437500000e+01 6.09206727635934e-03 8.55754189180158e-05
1.57851562500000e+01 6.02680055215003e-03 8.48477985526365e-05
1.58554687500000e+01 5.96223305614944e-03 8.41255303044820e-05
1.59257812500000e+01 5.89835729724943e-03 8.34085902067219e-05
1.59960937500000e+01 5.83516586459710e-03 8.26969540554591e-05
1.60664062500000e+01 5.77265142673490e-03 8.19905974204359e-05
1.61367187500000e+01 5.71080673075013e-03 8.12894956554637e-05
1.62070312500000e+01 5.64962460143338e-03 8.05936239085805e-05
1.62773437500000e+01 5.58909794044610e-03 7.99029571319694e-05
1.63476562500000e+01 5.52921972549705e-03 7.92174700916079e-05
1.64179687500000e+01 5.46998300952756e-03 7.85371373766801e-05
1.64882812500000e+01 5.41138091990556e-03 7.78619334087486e-05
1.65585937500000e+01 5.35340665762819e-03 7.71918324506888e-05
1.66289062500000e+01 5.29605349653301e-03 7.65268086154036e-05
1.66992187500000e+01 5.23931478251761e-03 7.58668358743132e-05
1.67695312500000e+01 5.18318393276758e-03 7.52118880656152e-05
1.68398437500000e+01 5.12765443499285e-03 7.45619389023350e-05
1.69101562500000e+01 5.07271984667206e-03 7.39169619801851e-05
1.69804687500000e+01 5.01837379430513e-03 7.32769307852079e-05
1.70507812500000e+01 4.96460997267381e-03 7.26418187012138e-05
1.71210937500000e+01 4.91142214411014e-03 7.20115990170411e-05
1.71914062500000e+01 4.85880413777277e-03 7.13862449336154e-05
1.72617187500000e+01 4.80674984893101e-03 7.07657295708308e-05
1.73320312500000e+01 4.75525323825654e-03 7.01500259742418e-05
1.74023437500000e+01 4.70430833112278e-03 6.95391071215850e-05
1.74726562500000e+01 4.65390921691167e-03 6.89329459291309e-05
1.75429687500000e+01 4.60405004832795e-03 6.83315152578606e-05
1.76132812500000e+01 4.55472504072074e-03 6.77347879194908e-05
1.76835937500000e+01 4.50592847141239e-03 6.71427366823170e-05
1.77539062500000e+01 4.45765467903460e-03 6.65553342769146e-05
1.78242187500000e+01 4.40989806287149e-03 6.59725534016841e-05
1.78945312500000e+01 4.36265308220991e-03 6.53943667282445e-05
1.79648437500000e+01 4.31591425569655e-03 6.48207469066897e-05
1.80351562500000e+01 4.26967616070199e-03 6.42516665706851e-05
1.81054687500000e+01 4.22393343269158e-03 6.36870983424310e-05
1.81757812500000e+01 4.17868076460307e-03 6.31270148374957e-05
1.82460937500000e+01 4.13391290623085e-03 6.25713886695123e-05
1.83164062500000e+01 4.08962466361684e-03 6.20201924547415e-05
1.83867187500000e+01 4.04581089844789e-03 6.14733988165078e-05
1.84570312500000e+01 4.00246652745963e-03 6.09309803895117e-05
1.85273437500000e+01 3.95958652184669e-03 6.03929098240259e-05
1.85976562500000e+01 3.91716590667930e-03 5.98591597899653e-05
1.86679687500000e+01 3.87519976032609e-03 5.93297029808415e-05
1.87382812500000e+01 3.83368321388303e-03 5.88045121176097e-05
1.88085937500000e+01 3.79261145060863e-03 5.82835599523993e-05
1.88789062500000e+01 3.75197970536503e-03 5.77668192721363e-05
1.89492187500000e+01 3.71178326406517e-03 5.72542629020620e-05
1.90195312500000e+01 3.67201746312588e-03 5.67458637091501e-05
1.90898437500000e+01 3.63267768892679e-03 5.62415946054189e-05
1.91601562500000e+01 3.59375937727509e-03 5.57414285511472e-05
1.92304687500000e+01 3.55525801287595e-03 5.52453385579952e-05
1.93007812500000e+01 3.51716912880867e-03 5.47532976920230e-05
1.93710937500000e+01 3.47948830600847e-03 5.42652790766266e-05
1.94414062500000e+01 3.44221117275372e-03 5.37812558953832e-05
1.95117187500000e+01 3.40533340415880e-03 5.33012013948027e-05
1.95820312500000e+01 3.36885072167228e-03 5.28250888869985e-05
1.96523437500000e+01 3.33275889258055e-03 5.23528917522682e-05
1.97226562500000e+01 3.29705372951673e-03 5.18845834416031e-05
1.97929687500000e+01 3.26173108997487e-03 5.14201374791103e-05
1.98632812500000e+01 3.22678687582931e-03 5.09595274643542e-05
1.99335937500000e+01 3.19221703285923e-03 5.05027270746286e-05
2.00039062500000e+01 3.15801755027828e-03 5.00497100671496e-05
2.00742187500000e+01 3.12418446026925e-03 4.96004502811787e-05
2.01445312500000e+01 3.09071383752372e-03 4.91549216400683e-05
2.02148437500000e+01 3.05760179878667e-03 4.87130981532482e-05
2.02851562500000e+01 3.02484450240591e-03 4.82749539181378e-05
2.03554687500000e+01 2.99243814788638e-03 4.78404631219866e-05
2.04257812500000e+01 2.96037897544923e-03 4.74096000436622e-05
2.04960937500000e+01 2.92866326559563e-03 4.69823390553678e-05
2.05664062500000e+01 2.89728733867518e-03 4.65586546242975e-05
2.06367187500000e+01 2.86624755445904e-03 4.61385213142331e-05
2.07070312500000e+01 2.83554031171758e-03 4.57219137870819e-05
2.07773437500000e+01 2.80516204780258e-03 4.53088068043550e-05
2.08476562500000e+01 2.77510923823385e-03 4.48991752285930e-05
2.09179687500000e+01 2.74537839629037e-03 4.44929940247358e-05
2.09882812500000e+01 2.71596607260574e-03 4.40902382614362e-05
2.10585937500000e+01 2.68686885476797e-03 4.36908831123225e-05
2.11289062500000e+01 2.65808336692361e-03 4.32949038572124e-05
2.11992187500000e+01 2.62960626938604e-03 4.29022758832741e-05
2.12695312500000e+01 2.60143425824804e-03 4.25129746861406e-05
2.13398437500000e+01 2.57356406499845e-03 4.21269758709759e-05
2.14101562500000e+01 2.54599245614294e-03 4.17442551534931e-05
2.14804687500000e+01 2.51871623282892e-03 4.13647883609281e-05
2.15507812500000e+01 2.49173223047435e-03 4.09885514329734e-05
2.16210937500000e+01 2.46503731840060e-03 4.06155204226666e-05
2.16914062500000e+01 2.43862839946926e-03 4.02456714972271e-05
2.17617187500000e+01 2.41250240972277e-03 3.98789809388657e-05
2.18320312500000e+01 2.38665631802897e-03 3.95154251455535e-05
2.19023437500000e+01 2.36108712572940e-03 3.91549806317372e-05
2.19726562500000e+01 2.33579186629143e-03 3.87976240290308e-05
2.20429687500000e+01 2.31076760496406e-03 3.84433320868666e-05
2.21132812500000e+01 2.28601143843744e-03 3.80920816731046e-05
2.21835937500000e+01 2.26152049450602e-03 3.77438497746146e-05
