Energy (eV)          EEDF (eV^-(3/2))     First Anisotropy
1.76190476190476e-04 6.89730523088828e+01 2.52549171998402e-02
5.28571428571429e-04 6.85962442296147e+01 4.17294182746225e-02
8.80952380952381e-04 6.82214946978026e+01 5.51574682529704e-02
1.23333333333333e-03 6.78487924670337e+01 6.54015255082351e-02
1.58571428571429e-03 6.74781263540777e+01 7.39805869145015e-02
1.93809523809524e-03 6.71094852349662e+01 8.14677876732907e-02
2.29047619047619e-03 6.67428580468053e+01 8.81591491954867e-02
2.64285714285714e-03 6.63782337863375e+01 9.42330909284022e-02
2.99523809523810e-03 6.60156015123022e+01 9.98077217960285e-02
3.34761904761905e-03 6.56549503421596e+01 1.04966362926795e-01
3.70000000000000e-03 6.52962694528569e+01 1.09770578086820e-01
4.05238095238095e-03 6.49395480799476e+01 1.14267489639025e-01
4.40476190476191e-03 6.45847755189461e+01 1.18494186214577e-01
4.75714285714286e-03 6.42319411232283e+01 1.22480527166254e-01
5.10952380952381e-03 6.38810343043393e+01 1.26251006514634e-01
5.46190476190476e-03 6.35320445312903e+01 1.29826036908846e-01
5.81428571428572e-03 6.31849613314458e+01 1.33222860940254e-01
6.16666666666667e-03 6.28397742889519e+01 1.36456214527964e-01
6.51904761904762e-03 6.24964730448566e+01 1.39538820443942e-01
6.87142857142857e-03 6.21550472965044e+01 1.42481762525594e-01
7.22380952380952e-03 6.18154867981556e+01 1.45294774233018e-01
7.57619047619048e-03 6.14777813597165e+01 1.47986464425738e-01
7.92857142857143e-03 6.11419208467600e+01 1.50564496319655e-01
8.28095238095238e-03 6.08078951802310e+01 1.53035731098107e-01
8.63333333333333e-03 6.04756943359062e+01 1.55406344315464e-01
8.98571428571429e-03 6.01453083448032e+01 1.57681921245914e-01
9.33809523809524e-03 5.98167272921530e+01 1.59867535639414e-01
9.69047619047619e-03 5.94899413173550e+01 1.61967815273279e-01
1.00428571428571e-02 5.91649406134845e+01 1.63986996929340e-01
1.03952380952381e-02 5.88417154279620e+01 1.65928972966440e-01
1.07476190476190e-02 5.85202560596179e+01 1.67797330640120e-01
1.11000000000000e-02 5.82005528633997e+01 1.69595386073687e-01
1.14523809523810e-02 5.78825962433747e+01 1.71326213185679e-01
1.18047619047619e-02 5.75663766594662e+01 1.72992668823179e-01
1.21571428571429e-02 5.72518846204157e+01 1.74597414550472e-01
1.25095238095238e-02 5.69391106899946e+01 1.76142935668347e-01
1.28619047619048e-02 5.66280454804632e+01 1.77631557863002e-01
1.32142857142857e-02 5.63186796583226e+01 1.79065461858152e-01
1.35666666666667e-02 5.60110039382117e+01 1.80446696340664e-01
1.39190476190476e-02 5.57050090882531e+01 1.81777189418682e-01
1.42714285714286e-02 5.54006859243385e+01 1.83058758799922e-01
1.46238095238095e-02 5.50980253151137e+01 1.84293120872614e-01
1.49761904761905e-02 5.47970181766113e+01 1.85481898882881e-01
1.53285714285714e-02 5.44976554757352e+01 1.86626629976399e-01
1.56809523809524e-02 5.41999282299206e+01 1.87728772115432e-01
1.60333333333333e-02 5.39038275033162e+01 1.88789709736399e-01
1.63857142857143e-02 5.36093444111779e+01 1.89810759151188e-01
1.67380952380952e-02 5.33164701150772e+01 1.90793173384639e-01
1.70904761904762e-02 5.30251958270306e+01 1.91738146566404e-01
1.74428571428571e-02 5.27355128049656e+01 1.92646817929518e-01
1.77952380952381e-02 5.24474123566098e+01 1.93520275454854e-01
1.81476190476191e-02 5.21608858351922e+01 1.94359559203858e-01
1.85000000000000e-02 5.18759246431128e+01 1.95165664366684e-01
1.88523809523810e-02 5.15925202278595e+01 1.95939544061328e-01
1.92047619047619e-02 5.13106640854771e+01 1.96682111901607e-01
1.95571428571429e-02 5.10303477566816e+01 1.97394244364830e-01
1.99095238095238e-02 5.07515628301456e+01 1.98076782969843e-01
2.02619047619048e-02 5.04743009387940e+01 1.98730536292808e-01
2.06142857142857e-02 5.01985537629209e+01 1.99356281826108e-01
2.09666666666667e-02 4.99243130266530e+01 1.99954767705105e-01
2.13190476190476e-02 4.96515705009096e+01 2.00526714303749e-01
2.16714285714286e-02 4.93803180000230e+01 2.01072815722131e-01
2.20238095238095e-02 4.91105473845529e+01 2.01593741163593e-01
2.23761904761905e-02 4.88422505580518e+01 2.02090136266383e-01
2.27285714285714e-02 4.85754194690398e+01 2.02562624123070e-01
2.30809523809524e-02 4.83100461107293e+01 2.03011806665905e-01
2.34333333333333e-02 4.80461225186636e+01 2.03438265533108e-01
2.37857142857143e-02 4.77836407732773e+01 2.03842563087892e-01
2.41380952380952e-02 4.75225929969198e+01 2.04225243337098e-01
2.44904761904762e-02 4.72629713562992e+01 2.04586832784755e-01
2.48428571428571e-02 4.70047680596234e+01 2.04927841240552e-01
2.51952380952381e-02 4.67479753589353e+01 2.05248762571577e-01
2.55476190476191e-02 4.64925855473647e+01 2.05550075416812e-01
2.59000000000000e-02 4.62385909613606e+01 2.05832243851565e-01
2.62523809523810e-02 4.59859839780480e+01 2.06095718021292e-01
2.66047619047619e-02 4.57347570173636e+01 2.06340934731097e-01
2.69571428571429e-02 4.54849025395111e+01 2.06568318009975e-01
2.73095238095238e-02 4.52364130470065e+01 2.06778279635490e-01
2.76619047619048e-02 4.49892810822256e+01 2.06971219637853e-01
2.80142857142857e-02 4.47434992293651e+01 2.07147526768469e-01
2.83666666666667e-02 4.44990601120765e+01 2.07307578951660e-01
2.87190476190476e-02 4.42559563953479e+01 2.07451743704315e-01
2.90714285714286e-02 4.40141807832202e+01 2.07580378542005e-01
2.94238095238095e-02 4.37737260205934e+01 2.07693831355890e-01
2.97761904761905e-02 4.35345848910211e+01 2.07792440812305e-01
3.01285714285714e-02 4.32967502179716e+01 2.07876536557644e-01
3.04809523809524e-02 4.30602148645931e+01 2.07946439751701e-01
3.08333333333333e-02 4.28249717320765e+01 2.08002463241985e-01
3.11857142857143e-02 4.25910137613240e+01 2.08044911890612e-01
3.15380952380952e-02 4.23583339308895e+01 2.08074082860540e-01
3.18904761904762e-02 4.21269252585829e+01 2.08090265879623e-01
3.22428571428571e-02 4.18967807994772e+01 2.08093743501056e-01
3.25952380952381e-02 4.16678936474528e+01 2.08084791343287e-01
3.29476190476191e-02 4.14402569332674e+01 2.08063678327548e-01
3.33000000000000e-02 4.12138638260434e+01 2.08030666896247e-01
3.36523809523810e-02 4.09887075313980e+01 2.07986013230181e-01
3.40047619047619e-02 4.07647812928763e+01 2.07929967447700e-01
3.43571428571429e-02 4.05420783901390e+01 2.07862773803789e-01
3.47095238095238e-02 4.03205921403432e+01 2.07784670872087e-01
3.50619047619048e-02 4.01003158963856e+01 2.07695891727673e-01
3.54142857142857e-02 3.98812430482341e+01 2.07596664113765e-01
3.57666666666667e-02 3.96633670212230e+01 2.07487210609910e-01
3.61190476190476e-02 3.94466812773377e+01 2.07367748784876e-01
3.64714285714286e-02 3.92311793135604e+01 2.07238491351765e-01
3.68238095238095e-02 3.90168546631098e+01 2.07099646308496e-01
3.71761904761905e-02 3.88037008938349e+01 2.06951417107619e-01
3.75285714285714e-02 3.85917116090734e+01 2.06794002678639e-01
3.78809523809524e-02 3.83808804474471e+01 2.06627597721072e-01
3.82333333333333e-02 3.81712010816540e+01 2.06452392719490e-01
3.85857142857143e-02 3.79626672196253e+01 2.06268574086275e-01
3.89380952380952e-02 3.77552726030104e+01 2.06076324280125e-01
3.92904761904762e-02 3.75490110082949e+01 2.05875821911820e-01
3.96428571428571e-02 3.73438762453282e+01 2.05667241854277e-01
3.99952380952381e-02 3.71398621584033e+01 2.05450755340407e-01
4.03476190476191e-02 3.69369626248260e+01 2.05226530065588e-01
4.07000000000000e-02 3.67351715559587e+01 2.04994730278353e-01
4.10523809523810e-02 3.65344828958280e+01 2.04755516875896e-01
4.14047619047619e-02 3.63348906221350e+01 2.04509047488192e-01
4.17571428571429e-02 3.61363887449000e+01 2.04255476567182e-01
4.21095238095238e-02 3.59389713074402e+01 2.03994955464909e-01
4.24619047619048e-02 3.57426323850502e+01 2.03727632516943e-01
4.28142857142857e-02 3.55473660859487e+01 2.03453653114999e-01
4.31666666666667e-02 3.53531665499930e+01 2.03173159785057e-01
4.35190476190476e-02 3.51600279495962e+01 2.02886292255013e-01
4.38714285714286e-02 3.49679444884748e+01 2.02593187527883e-01
4.42238095238095e-02 3.47769104025369e+01 2.02293979944888e-01
4.45761904761905e-02 3.45869199586622e+01 2.01988801275777e-01
4.49285714285714e-02 3.43979674553104e+01 2.01677780690767e-01
4.52809523809524e-02 3.42100472223406e+01 2.01361044955269e-01
4.56333333333333e-02 3.40231536200857e+01 2.01038718400839e-01
4.59857142857143e-02 3.38372810401848e+01 2.00710923001377e-01
4.63380952380952e-02 3.36524239044269e+01 2.00377778432141e-01
4.66904761904762e-02 3.34685766655580e+01 2.00039402119460e-01
4.70428571428572e-02 3.32857338061534e+01 1.99695909296396e-01
4.73952380952381e-02 3.31038898394003e+01 1.99347413049259e-01
4.77476190476191e-02 3.29230393079979e+01 1.98994024370149e-01
4.81000000000000e-02 3.27431767849161e+01 1.98635852200589e-01
4.84523809523810e-02 3.25642968723227e+01 1.98273003481185e-01
4.88047619047619e-02 3.23863942023191e+01 1.97905583192468e-01
4.91571428571429e-02 3.22094634358935e+01 1.97533694401882e-01
4.95095238095238e-02 3.20334992636347e+01 1.97157438302224e-01
4.98619047619048e-02 3.18584964047101e+01 1.96776914256059e-01
5.02142857142857e-02 3.16844496075589e+01 1.96392219831852e-01
5.05666666666667e-02 3.15113536488934e+01 1.96003450846060e-01
5.09190476190476e-02 3.13392033343730e+01 1.95610701397096e-01
5.12714285714286e-02 3.11679934976280e+01 1.95214063905296e-01
5.16238095238095e-02 3.09977190009144e+01 1.94813629144857e-01
5.19761904761905e-02 3.08283747341604e+01 1.94409486299616e-01
5.23285714285714e-02 3.06599556154091e+01 1.94001722921506e-01
5.26809523809524e-02 3.04924565906593e+01 1.93590425073733e-01
5.30333333333333e-02 3.03258726331355e+01 1.93175677290200e-01
5.33857142857143e-02 3.01601987439039e+01 1.92757562622068e-01
5.37380952380952e-02 2.99954299509656e+01 1.92336162671232e-01
5.40904761904762e-02 2.98315613098547e+01 1.91911557616291e-01
5.44428571428572e-02 2.96685879027515e+01 1.91483826244432e-01
5.47952380952381e-02 2.95065048390644e+01 1.91053045975934e-01
5.51476190476191e-02 2.93453072545630e+01 1.90619292894591e-01
5.55000000000000e-02 2.91849903119428e+01 1.90182641770861e-01
5.58523809523810e-02 2.90255491999784e+01 1.89743166090866e-01
5.62047619047619e-02 2.88669791340722e+01 1.89300938078232e-01
5.65571428571429e-02 2.87092753554262e+01 1.88856028721854e-01
5.69095238095238e-02 2.85524331315753e+01 1.88408507796551e-01
5.72619047619048e-02 2.83964477555774e+01 1.87958443889492e-01
5.76142857142857e-02 2.82413145465321e+01 1.87505904419814e-01
5.79666666666667e-02 2.80870288487882e+01 1.87050955663931e-01
5.83190476190476e-02 2.79335860324482e+01 1.86593662774052e-01
5.86714285714286e-02 2.77809814925927e+01 1.86134089802375e-01
5.90238095238095e-02 2.76292106497713e+01 1.85672299718650e-01
5.93761904761905e-02 2.74782689492435e+01 1.85208354448233e-01
5.97285714285714e-02 2.73281518613064e+01 1.84742314828981e-01
6.00809523809524e-02 2.71788548811531e+01 1.84274240722699e-01
6.04333333333333e-02 2.70303735282868e+01 1.83804190973664e-01
6.07857142857143e-02 2.68827033469850e+01 1.83332223439820e-01
6.11380952380952e-02 2.67358399055740e+01 1.82858395013663e-01
6.14904761904762e-02 2.65897787968807e+01 1.82382761636773e-01
6.18428571428572e-02 2.64445156375225e+01 1.81905378319877e-01
6.21952380952381e-02 2.63000460683470e+01 1.81426299156633e-01
6.25476190476191e-02 2.61563657537364e+01 1.80945577342881e-01
6.29000000000000e-02 2.60134703820354e+01 1.80463265189770e-01
6.32523809523810e-02 2.58713556648705e+01 1.79979414142219e-01
6.36047619047619e-02 2.57300173375665e+01 1.79494074791374e-01
6.39571428571429e-02 2.55894511584793e+01 1.79007296892394e-01
6.43095238095238e-02 2.54496529094015e+01 1.78519129376269e-01
6.46619047619048e-02 2.53106183949092e+01 1.78029620366924e-01
6.50142857142857e-02 2.51723434427569e+01 1.77538817192463e-01
6.53666666666667e-02 2.50348239032371e+01 1.77046766401623e-01
6.57190476190476e-02 2.48980556495653e+01 1.76553513774491e-01
6.60714285714286e-02 2.47620345772524e+01 1.76059104338309e-01
6.64238095238095e-02 2.46267566044793e+01 1.75563582377670e-01
6.67761904761905e-02 2.44922176714826e+01 1.75066991462281e-01
6.71285714285714e-02 2.43584137407998e+01 1.74569374406482e-01
6.74809523809524e-02 2.42253407971444e+01 1.74070773358832e-01
6.78333333333333e-02 2.40929948469280e+01 1.73571229763380e-01
6.81857142857143e-02 2.39613719186151e+01 1.73070784381973e-01
6.85380952380952e-02 2.38304680621341e+01 1.72569477308250e-01
6.88904761904762e-02 2.37002793492236e+01 1.72067347976151e-01
6.92428571428571e-02 2.35708018728551e+01 1.71564435173400e-01
6.95952380952381e-02 2.34420317475695e+01 1.71060777049645e-01
6.99476190476191e-02 2.33139651089122e+01 1.70556411129460e-01
7.03000000000000e-02 2.31865981137606e+01 1.70051374320087e-01
7.06523809523810e-02 2.30599269397695e+01 1.69545702923998e-01
7.10047619047619e-02 2.29339477856916e+01 1.69039432646319e-01
7.13571428571429e-02 2.28086568708326e+01 1.68532598606914e-01
7.17095238095238e-02 2.26840504353638e+01 1.68025235347434e-01
7.20619047619048e-02 2.25601247397882e+01 1.67517376843094e-01
7.24142857142857e-02 2.24368760652444e+01 1.67009056509362e-01
7.27666666666667e-02 2.23143007129836e+01 1.66500307213288e-01
7.31190476190476e-02 2.21923950046655e+01 1.65991161279948e-01
7.34714285714286e-02 2.20711552818454e+01 1.65481650503391e-01
7.38238095238095e-02 2.19505779062626e+01 1.64971806152737e-01
7.41761904761905e-02 2.18306592593372e+01 1.64461658993394e-01
7.45285714285714e-02 2.17113957423559e+01 1.63951239250486e-01
7.48809523809524e-02 2.15927837763609e+01 1.63440576682390e-01
7.52333333333333e-02 2.14748198017560e+01 1.62929700545859e-01
7.55857142857143e-02 2.13575002785800e+01 1.62418639612708e-01
7.59380952380952e-02 2.12408216860243e+01 1.61907422179688e-01
7.62904761904762e-02 2.11247805226998e+01 1.61396076073634e-01
7.66428571428572e-02 2.10093733061629e+01 1.60884628660957e-01
7.69952380952381e-02 2.08945965731760e+01 1.60373106852610e-01
7.73476190476191e-02 2.07804468792426e+01 1.59861537113307e-01
7.77000000000000e-02 2.06669207988610e+01 1.59349945466239e-01
7.80523809523810e-02 2.05540149250680e+01 1.58838357501988e-01
7.84047619047619e-02 2.04417258696869e+01 1.58326798383078e-01
7.87571428571429e-02 2.03300502628789e+01 1.57815292852633e-01
7.91095238095238e-02 2.02189847533853e+01 1.57303865238656e-01
7.94619047619048e-02 2.01085260080872e+01 1.56792539462450e-01
7.98142857142857e-02 1.99986707122419e+01 1.56281339042739e-01
8.01666666666667e-02 1.98894155690502e+01 1.55770287103845e-01
8.05190476190476e-02 1.97807572998872e+01 1.55259406379588e-01
8.08714285714286e-02 1.96726926438779e+01 1.54748719221241e-01
8.12238095238095e-02 1.95652183581218e+01 1.54238247601250e-01
8.15761904761905e-02 1.94583312172764e+01 1.53728013129904e-01
8.19285714285714e-02 1.93520280136988e+01 1.53218037022949e-01
8.22809523809524e-02 1.92463055573473e+01 1.52708340162764e-01
8.26333333333334e-02 1.91411606754529e+01 1.52198943067450e-01
8.29857142857143e-02 1.90365902127331e+01 1.51689865903782e-01
8.33380952380953e-02 1.89325910309913e+01 1.51181128494418e-01
8.36904761904762e-02 1.88291600093256e+01 1.50672750321051e-01
8.40428571428572e-02 1.87262940437351e+01 1.50164750531367e-01
8.43952380952381e-02 1.86239900473237e+01 1.49657147942131e-01
8.47476190476191e-02 1.85222449499137e+01 1.49149961045972e-01
8.51000000000000e-02 1.84210556982443e+01 1.48643208014228e-01
8.54523809523810e-02 1.83204192555924e+01 1.48136906703602e-01
8.58047619047619e-02 1.82203326019661e+01 1.47631074658931e-01
8.61571428571429e-02 1.81207927337322e+01 1.47125729119600e-01
8.65095238095238e-02 1.80217966638052e+01 1.46620887022174e-01
8.68619047619048e-02 1.79233414212813e+01 1.46116565006657e-01
8.72142857142857e-02 1.78254240516229e+01 1.45612779419035e-01
8.75666666666667e-02 1.77280416162989e+01 1.45109546317357e-01
8.79190476190476e-02 1.76311911929649e+01 1.44606881474144e-01
8.82714285714286e-02 1.75348698751098e+01 1.44104800382312e-01
8.86238095238095e-02 1.74390747722318e+01 1.43603318257472e-01
8.89761904761905e-02 1.73438030094906e+01 1.43102450051375e-01
8.93285714285714e-02 1.72490517278166e+01 1.42602210423378e-01
8.96809523809524e-02 1.71548180838226e+01 1.42102613791864e-01
9.00333333333333e-02 1.70610992495288e+01 1.41603674307154e-01
9.03857142857143e-02 1.69678924125302e+01 1.41105405861722e-01
9.07380952380953e-02 1.68751947756621e+01 1.40607822095611e-01
9.10904761904762e-02 1.67830035571643e+01 1.40110936398401e-01
9.14428571428572e-02 1.66913159903515e+01 1.39614761914486e-01
9.17952380952381e-02 1.66001293237741e+01 1.39119311544911e-01
9.21476190476191e-02 1.65094408208944e+01 1.38624597952519e-01
9.25000000000000e-02 1.64192477602430e+01 1.38130633563747e-01
9.28523809523810e-02 1.63295474351011e+01 1.37637430573637e-01
9.32047619047619e-02 1.62403371536531e+01 1.37145000947510e-01
9.35571428571429e-02 1.61516142386742e+01 1.36653356425885e-01
9.39095238095238e-02 1.60633760276793e+01 1.36162508526078e-01
9.42619047619048e-02 1.59756198726161e+01 1.35672468546969e-01
9.46142857142857e-02 1.58883431400107e+01 1.35183247570546e-01
9.49666666666667e-02 1.58015432106655e+01 1.34694856466570e-01
9.53190476190476e-02 1.57152174798013e+01 1.34207305894023e-01
9.56714285714286e-02 1.56293633567609e+01 1.33720606305659e-01
9.60238095238095e-02 1.55439782651475e+01 1.33234767949395e-01
9.63761904761905e-02 1.54590596425329e+01 1.32749800879304e-01
9.67285714285714e-02 1.53746049405412e+01 1.32265714930660e-01
9.70809523809524e-02 1.52906116247706e+01 1.31782519763436e-01
9.74333333333333e-02 1.52070771745607e+01 1.31300224838628e-01
9.77857142857143e-02 1.51239990831253e+01 1.30818839426481e-01
9.81380952380952e-02 1.50413748572705e+01 1.30338372610677e-01
9.84904761904762e-02 1.49592020175244e+01 1.29858833289504e-01
9.88428571428572e-02 1.48774780978605e+01 1.29380230179941e-01
9.91952380952381e-02 1.47962006458238e+01 1.28902571818770e-01
9.95476190476191e-02 1.47153672222591e+01 1.28425866566556e-01
9.99000000000000e-02 1.46349754014337e+01 1.27950122578334e-01
1.00252380952381e-01 1.45550227710086e+01 1.27475347905286e-01
1.00604761904762e-01 1.44755069313942e+01 1.27001550416809e-01
1.00957142857143e-01 1.43964254963504e+01 1.26528737757706e-01
1.01309523809524e-01 1.43177760926732e+01 1.26056917440280e-01
1.01661904761905e-01 1.42395563601235e+01 1.25586096814357e-01
1.02014285714286e-01 1.41617639513569e+01 1.25116283069577e-01
1.02366666666667e-01 1.40843965318524e+01 1.24647483237657e-01
1.02719047619048e-01 1.40074517798430e+01 1.24179704194613e-01
1.03071428571429e-01 1.39309273862457e+01 1.23712952662947e-01
1.03423809523810e-01 1.38548210545924e+01 1.23247235213815e-01
1.03776190476190e-01 1.37791305009608e+01 1.22782558269177e-01
1.04128571428571e-01 1.37038534539057e+01 1.22318928103855e-01
1.04480952380952e-01 1.36289876543914e+01 1.21856350847620e-01
1.04833333333333e-01 1.35545308557235e+01 1.21394832487260e-01
1.05185714285714e-01 1.34804808234815e+01 1.20934378868567e-01
1.05538095238095e-01 1.34068353354519e+01 1.20474995698342e-01
1.05890476190476e-01 1.33335921815612e+01 1.20016688546341e-01
1.06242857142857e-01 1.32607491638102e+01 1.19559462847201e-01
1.06595238095238e-01 1.31883040962071e+01 1.19103323902348e-01
1.06947619047619e-01 1.31162548047030e+01 1.18648276881879e-01
1.07300000000000e-01 1.30445991271256e+01 1.18194326774025e-01
1.07652380952381e-01 1.29733349135106e+01 1.17741478545133e-01
1.08004761904762e-01 1.29024600248447e+01 1.17289737036958e-01
1.08357142857143e-01 1.28319723341992e+01 1.16839106856805e-01
1.08709523809524e-01 1.27618697262651e+01 1.16389592545346e-01
1.09061904761905e-01 1.26921500972896e+01 1.15941198522660e-01
1.09414285714286e-01 1.26228113550130e+01 1.15493929089915e-01
1.09766666666667e-01 1.25538514186055e+01 1.15047788431049e-01
1.10119047619048e-01 1.24852682186057e+01 1.14602780614439e-01
1.10471428571429e-01 1.24170596968574e+01 1.14158909594523e-01
1.10823809523810e-01 1.23492238064487e+01 1.13716179213413e-01
1.11176190476190e-01 1.22817585116500e+01 1.13274593202494e-01
