Energy (eV)          EEDF (eV^-(3/2))     First Anisotropy
6.97058823529412e-02 6.20817789505783e-02 5.60684847365479e-05
2.09117647058824e-01 6.08338270696104e-02 9.19636081423423e-05
3.48529411764706e-01 5.96109612004447e-02 1.19767252911019e-04
4.87941176470588e-01 5.84126770639132e-02 1.39920625091306e-04
6.27352941176471e-01 5.72384805247001e-02 1.55945096755510e-04
7.66764705882353e-01 5.60878873804196e-02 1.69199847762809e-04
9.06176470588235e-01 5.49604231633601e-02 1.80402075030250e-04
1.04558823529412e+00 5.38556229402693e-02 1.89993029855488e-04
1.18500000000000e+00 5.27730311233349e-02 1.98270667062636e-04
1.32441176470588e+00 5.17122012916311e-02 2.05449253613203e-04
1.46382352941176e+00 5.06726959829018e-02 2.11690058720551e-04
1.60323529411765e+00 4.96540865446721e-02 2.17118730904962e-04
1.74264705882353e+00 4.86559529268315e-02 2.21835854844087e-04
1.88205882352941e+00 4.76778835358376e-02 2.25923724570980e-04
2.02147058823529e+00 4.67194750402794e-02 2.29450883773127e-04
2.16088235294118e+00 4.57803322269734e-02 2.32475279737031e-04
2.30029411764706e+00 4.48600678175403e-02 2.35046521454833e-04
2.43970588235294e+00 4.39583023274513e-02 2.37207537283439e-04
2.57911764705882e+00 4.30746638957701e-02 2.38995820558370e-04
2.71852941176471e+00 4.22087881337174e-02 2.40444380247787e-04
2.85794117647059e+00 4.13603179838541e-02 2.41582482710347e-04
2.99735294117647e+00 4.05289035601403e-02 2.42436236537875e-04
3.13676470588235e+00 3.97142020155457e-02 2.43029060605688e-04
3.27617647058824e+00 3.89158773895152e-02 2.43382063308135e-04
3.41558823529412e+00 3.81336004799119e-02 2.43514352850498e-04
3.55500000000000e+00 3.73670486973978e-02 2.43443293934334e-04
3.69441176470588e+00 3.66159059417097e-02 2.43184721712662e-04
3.83382352941176e+00 3.58798624625278e-02 2.42753121874565e-04
3.97323529411765e+00 3.51586147400455e-02 2.42161783096665e-04
4.11264705882353e+00 3.44518653519508e-02 2.41422927259628e-04
4.25205882352941e+00 3.37593228582225e-02 2.40547821139219e-04
4.39147058823529e+00 3.30807016738886e-02 2.39546873019673e-04
4.53088235294118e+00 3.24157219579643e-02 2.38429716496833e-04
4.67029411764706e+00 3.17641094916816e-02 2.37205283768352e-04
4.80970588235294e+00 3.11255955714728e-02 2.35881869707597e-04
4.94911764705882e+00 3.04999168936597e-02 2.34467189011893e-04
5.08852941176471e+00 2.98868154462788e-02 2.32968425570573e-04
5.22794117647059e+00 2.92860384062855e-02 2.31392277472530e-04
5.36735294117647e+00 2.86973380304963e-02 2.29744996637004e-04
5.50676470588235e+00 2.81204715580174e-02 2.28032424313859e-04
5.64617647058823e+00 2.75552011057466e-02 2.26260023045912e-04
5.78558823529412e+00 2.70012935744805e-02 2.24432905377155e-04
5.92500000000000e+00 2.64585205487665e-02 2.22555859867041e-04
6.06441176470588e+00 2.59266582065682e-02 2.20633374580365e-04
6.20382352941176e+00 2.54054872232705e-02 2.18669658497131e-04
6.34323529411765e+00 2.48947926847831e-02 2.16668660935447e-04
6.48264705882353e+00 2.43943639955141e-02 2.14634089348268e-04
6.62205882352941e+00 2.39039947947927e-02 2.12569425535309e-04
6.76147058823529e+00 2.34234828686365e-02 2.10477940569340e-04
6.90088235294118e+00 2.29526300693769e-02 2.08362708442979e-04
7.04029411764706e+00 2.24912422310544e-02 2.06226618688753e-04
7.17970588235294e+00 2.20391290921333e-02 2.04072387887228e-04
7.31911764705882e+00 2.15961042149709e-02 2.01902570686308e-04
7.45852941176471e+00 2.11619849090842e-02 1.99719569285259e-04
7.59794117647059e+00 2.07365921575560e-02 1.97525642896955e-04
7.73735294117647e+00 2.03197505408945e-02 1.95322916221537e-04
7.87676470588235e+00 1.99112881669305e-02 1.93113387341756e-04
8.01617647058823e+00 1.95110365977806e-02 1.90898935116728e-04
8.15558823529412e+00 1.91188307824645e-02 1.88681326024101e-04
8.29500000000000e+00 1.87345089868414e-02 1.86462220587259e-04
8.43441176470588e+00 1.83579127288468e-02 1.84243179333975e-04
8.57382352941177e+00 1.79888867112761e-02 1.82025668409666e-04
8.71323529411765e+00 1.76272787595426e-02 1.79811064789802e-04
8.85264705882353e+00 1.72729397571906e-02 1.77600661203300e-04
8.99205882352941e+00 1.69257235860788e-02 1.75395670710707e-04
9.13147058823529e+00 1.65854870645088e-02 1.73197231039334e-04
9.27088235294118e+00 1.62520898897432e-02 1.71006408619309e-04
9.41029411764706e+00 1.59253945786400e-02 1.68824202414311e-04
9.54970588235294e+00 1.56052664124169e-02 1.66651547450269e-04
9.68911764705882e+00 1.52915733800103e-02 1.64489318378014e-04
9.82852941176471e+00 1.49841861237053e-02 1.62338332393515e-04
9.96794117647059e+00 1.46829778867293e-02 1.60199352564577e-04
1.01073529411765e+01 1.43878244585628e-02 1.58073089940729e-04
1.02467647058824e+01 1.40986041301924e-02 1.55960207320774e-04
1.03861764705882e+01 1.38151976331448e-02 1.53861321477876e-04
1.05255882352941e+01 1.35374880993372e-02 1.51777004113571e-04
1.06650000000000e+01 1.32653610124974e-02 1.49707786410372e-04
1.08044117647059e+01 1.29987041531524e-02 1.47654159742325e-04
1.09438235294118e+01 1.27374075626230e-02 1.45616577953287e-04
1.10832352941176e+01 1.24813634877922e-02 1.43595459725863e-04
1.12226470588235e+01 1.22304663439901e-02 1.41591189037746e-04
1.13620588235294e+01 1.19846126711363e-02 1.39604118840391e-04
1.15014705882353e+01 1.17437010845235e-02 1.37634571738023e-04
1.16408823529412e+01 1.15076322396477e-02 1.35682840624394e-04
1.17802941176471e+01 1.12763087909631e-02 1.33749191964729e-04
1.19197058823529e+01 1.10496353457815e-02 1.31833866311648e-04
1.20591176470588e+01 1.08275184309653e-02 1.29937078786404e-04
1.21985294117647e+01 1.06098664541356e-02 1.28059022016691e-04
1.23379411764706e+01 1.03965896604787e-02 1.26199866520105e-04
1.24773529411765e+01 1.01876001012226e-02 1.24359761061138e-04
1.26167647058824e+01 9.98281159714308e-03 1.22538835288510e-04
1.27561764705882e+01 9.78213969808839e-03 1.20737200010349e-04
1.28955882352941e+01 9.58550165315656e-03 1.18954947451748e-04
1.30350000000000e+01 9.39281637636079e-03 1.17192153628108e-04
1.31744117647059e+01 9.20400440869418e-03 1.15448878324567e-04
1.33138235294118e+01 9.01898789130301e-03 1.13725166110214e-04
1.34532352941176e+01 8.83769052764334e-03 1.12021047433440e-04
1.35926470588235e+01 8.66003755627213e-03 1.10336538519422e-04
1.37320588235294e+01 8.48595571984134e-03 1.08671643360483e-04
1.38714705882353e+01 8.31537323105620e-03 1.07026353800500e-04
1.40108823529412e+01 8.14821974695544e-03 1.05400649612534e-04
1.41502941176471e+01 7.98442633974697e-03 1.03794500299956e-04
1.42897058823529e+01 7.82392546487918e-03 1.02207865132153e-04
1.44291176470588e+01 7.66665093673573e-03 1.00640693174687e-04
1.45685294117647e+01 7.51253790120276e-03 9.90929249220357e-05
1.47079411764706e+01 7.36152280571626e-03 9.75644922935560e-05
1.48473529411765e+01 7.21354337630317e-03 9.60553186260560e-05
1.49867647058824e+01 7.06853859177139e-03 9.45653201561498e-05
1.51261764705882e+01 6.92644865561044e-03 9.30944059836356e-05
1.52655882352941e+01 6.78721497430801e-03 9.16424780344988e-05
1.54050000000000e+01 6.65078013306696e-03 9.02094324084183e-05
1.55444117647059e+01 6.51708786944053e-03 8.87951591803947e-05
1.56838235294118e+01 6.38608305368564e-03 8.73995428860975e-05
1.58232352941176e+01 6.25771166258863e-03 8.60224630667221e-05
1.59626470588235e+01 6.13192075974165e-03 8.46637940425380e-05
1.61020588235294e+01 6.00865847361065e-03 8.33234060597776e-05
1.62414705882353e+01 5.88787397383367e-03 8.20011652002904e-05
1.63808823529412e+01 5.76951745260201e-03 8.06969332935670e-05
1.65202941176471e+01 5.65354010402898e-03 7.94105689625056e-05
1.66597058823529e+01 5.53989410190111e-03 7.81419275201082e-05
1.67991176470588e+01 5.42853258210533e-03 7.68908608683892e-05
1.69385294117647e+01 5.31940962322100e-03 7.56572184529242e-05
1.70779411764706e+01 5.21248022563236e-03 7.44408471494427e-05
1.72173529411765e+01 5.10770029494733e-03 7.32415911531561e-05
1.73567647058824e+01 5.00502662373733e-03 7.20592928508074e-05
1.74961764705882e+01 4.90441687192767e-03 7.08937926994275e-05
1.76355882352941e+01 4.80582955115369e-03 6.97449291089453e-05
1.77750000000000e+01 4.70922400758044e-03 6.86125392394139e-05
1.79144117647059e+01 4.61456040349107e-03 6.74964587846329e-05
1.80538235294118e+01 4.52179970303808e-03 6.63965222102276e-05
1.81932352941176e+01 4.43090365403332e-03 6.53125630333561e-05
1.83326470588235e+01 4.34183477374372e-03 6.42444135975250e-05
1.84720588235294e+01 4.25455633337299e-03 6.31919057569295e-05
1.86114705882353e+01 4.16903234149034e-03 6.21548707466387e-05
1.87508823529412e+01 4.08522753063309e-03 6.11331390570816e-05
1.88902941176471e+01 4.00310734270794e-03 6.01265410608190e-05
1.90297058823529e+01 3.92263791342711e-03 5.91349068817799e-05
1.91691176470588e+01 3.84378605967348e-03 5.81580662683978e-05
1.93085294117647e+01 3.76651926576671e-03 5.71958491680247e-05
1.94479411764706e+01 3.69080566884435e-03 5.62480855961009e-05
1.95873529411765e+01 3.61661404694827e-03 5.53146055092545e-05
1.97267647058824e+01 3.54391380610277e-03 5.43952393320094e-05
1.98661764705882e+01 3.47267496658350e-03 5.34898178265448e-05
2.00055882352941e+01 3.40286815168462e-03 5.25981719667975e-05
2.01450000000000e+01 3.33446457556103e-03 5.17201334216151e-05
2.02844117647059e+01 3.26743603033015e-03 5.08555343662460e-05
2.04238235294118e+01 3.20175487580033e-03 5.00042075977826e-05
2.05632352941176e+01 3.13739402675216e-03 4.91659866793145e-05
2.07026470588235e+01 3.07432694275125e-03 4.83407057498921e-05
2.08420588235294e+01 3.01252761716601e-03 4.75281999414313e-05
2.09814705882353e+01 2.95197056554941e-03 4.67283052546829e-05
2.11208823529412e+01 2.89263081603576e-03 4.59408584393221e-05
2.12602941176471e+01 2.83448389900889e-03 4.51656973768169e-05
2.13997058823529e+01 2.77750583618616e-03 4.44026609592994e-05
2.15391176470588e+01 2.72167313156649e-03 4.36515889721749e-05
2.16785294117647e+01 2.66696276171030e-03 4.29123224458791e-05
2.18179411764706e+01 2.61335216548272e-03 4.21847035378350e-05
2.19573529411765e+01 2.56081923552236e-03 4.14685754180470e-05
2.20967647058824e+01 2.50934230909590e-03 4.07637825923806e-05
2.22361764705882e+01 2.45890015846079e-03 4.00701707877001e-05
2.23755882352941e+01 2.40947198282519e-03 3.93875868407862e-05
2.25150000000000e+01 2.36103739974321e-03 3.87158789955049e-05
2.26544117647059e+01 2.31357643605928e-03 3.80548967513753e-05
2.27938235294118e+01 2.26706952053328e-03 3.74044909165671e-05
2.29332352941176e+01 2.22149747493290e-03 3.67645136806206e-05
2.30726470588235e+01 2.17684150674772e-03 3.61348184641561e-05
2.32120588235294e+01 2.13308320141626e-03 3.55152601761303e-05
2.33514705882353e+01 2.09020451416432e-03 3.49056951090640e-05
2.34908823529412e+01 2.04818776313948e-03 3.43059808376747e-05
2.36302941176471e+01 2.00701562209819e-03 3.37159764555243e-05
2.37697058823529e+01 1.96667111273544e-03 3.31355424740085e-05
2.39091176470588e+01 1.92713759821571e-03 3.25645407244495e-05
2.40485294117647e+01 1.88839877629284e-03 3.20028345758492e-05
2.41879411764706e+01 1.85043867210117e-03 3.14502888375845e-05
2.43273529411765e+01 1.81324163206058e-03 3.09067696650807e-05
2.44667647058824e+01 1.77679231740311e-03 3.03721447602170e-05
2.46061764705882e+01 1.74107569739782e-03 2.98462832776378e-05
2.47455882352941e+01 1.70607704360849e-03 2.93290557340731e-05
2.48850000000000e+01 1.67178192380300e-03 2.88203341927920e-05
2.50244117647059e+01 1.63817619558546e-03 2.83199921466000e-05
2.51638235294118e+01 1.60524600111602e-03 2.78279045389838e-05
2.53032352941176e+01 1.57297776085979e-03 2.73439477988027e-05
2.54426470588235e+01 1.54135816838629e-03 2.68679997252339e-05
2.55820588235294e+01 1.51037418486741e-03 2.63999396477696e-05
2.57214705882353e+01 1.48001303333577e-03 2.59396483425331e-05
2.58608823529412e+01 1.45026219378555e-03 2.54870079512505e-05
2.60002941176471e+01 1.42110939799603e-03 2.50419021285769e-05
2.61397058823529e+01 1.39254262413455e-03 2.46042159619561e-05
2.62791176470588e+01 1.36455009214141e-03 2.41738358939120e-05
2.64185294117647e+01 1.33712025885968e-03 2.37506498577322e-05
2.65579411764706e+01 1.31024181296192e-03 2.33345472007485e-05
2.66973529411765e+01 1.28390367060298e-03 2.29254186099319e-05
2.68367647058824e+01 1.25809497083779e-03 2.25231562368676e-05
2.69761764705882e+01 1.23280507085231e-03 2.21276536243168e-05
2.71155882352941e+01 1.20802354186893e-03 2.17388056350753e-05
2.72550000000000e+01 1.18374016483507e-03 2.13565085670869e-05
2.73944117647059e+01 1.15994492594009e-03 2.09806600649827e-05
2.75338235294118e+01 1.13662801284245e-03 2.06111591253514e-05
2.76732352941176e+01 1.11377981027642e-03 2.02479061113347e-05
2.78126470588235e+01 1.09139089634536e-03 1.98908026661630e-05
2.79520588235294e+01 1.06945203862681e-03 1.95397518131142e-05
2.80914705882353e+01 1.04795419012906e-03 1.91946578906940e-05
2.82308823529412e+01 1.02688848579991e-03 1.88554264898231e-05
2.83702941176471e+01 1.00624623886226e-03 1.85219645459261e-05
2.85097058823529e+01 9.86018937012676e-04 1.81941802771033e-05
2.86491176470588e+01 9.66198239133309e-04 1.78719831241443e-05
2.87885294117647e+01 9.46775971844228e-04 1.75552838353784e-05
2.89279411764706e+01 9.27744125929514e-04 1.72439944077056e-05
2.90673529411765e+01 9.09094853240610e-04 1.69380280293767e-05
2.92067647058824e+01 8.90820463452482e-04 1.66372991581754e-05
2.93461764705882e+01 8.72913420703605e-04 1.63417234651743e-05
2.94855882352941e+01 8.55366340679690e-04 1.60512177802083e-05
2.96250000000000e+01 8.38171987561601e-04 1.57657001639089e-05
2.97644117647059e+01 8.21323270866358e-04 1.54850898417100e-05
2.99038235294118e+01 8.04813242755416e-04 1.52093072016662e-05
3.00432352941176e+01 7.88635094943523e-04 1.49382737987064e-05
3.01826470588235e+01 7.72782156059530e-04 1.46719122904048e-05
3.03220588235294e+01 7.57247888889150e-04 1.44101464995559e-05
3.04614705882353e+01 7.42025887525027e-04 1.41529013649004e-05
3.06008823529412e+01 7.27109874881391e-04 1.39001028933425e-05
3.07402941176471e+01 7.12493700099926e-04 1.36516782176070e-05
3.08797058823529e+01 6.98171335870131e-04 1.34075555493581e-05
3.10191176470588e+01 6.84136876088920e-04 1.31676641336928e-05
3.11585294117647e+01 6.70384533419935e-04 1.29319343022701e-05
3.12979411764706e+01 6.56908636773965e-04 1.27002974287074e-05
3.14373529411765e+01 6.43703629105158e-04 1.24726858852791e-05
3.15767647058824e+01 6.30764065114594e-04 1.22490330918722e-05
3.17161764705882e+01 6.18084608881235e-04 1.20292734735450e-05
3.18555882352941e+01 6.05660031786794e-04 1.18133424193546e-05
3.19950000000000e+01 5.93485210355039e-04 1.16011763274623e-05
3.21344117647059e+01 5.81555124024258e-04 1.13927125563284e-05
3.22738235294118e+01 5.69864853229096e-04 1.11878894194871e-05
3.24132352941176e+01 5.58409577223648e-04 1.09866461847656e-05
3.25526470588235e+01 5.47184572203936e-04 1.07889230269409e-05
3.26920588235294e+01 5.36185209355948e-04 1.05946610669126e-05
3.28314705882353e+01 5.25406952845620e-04 1.04038023347085e-05
3.29708823529412e+01 5.14845358050997e-04 1.02162897335855e-05
3.31102941176471e+01 5.04496069725714e-04 1.00320670761166e-05
3.32497058823529e+01 4.94354820108913e-04 9.85107904905593e-06
3.33891176470588e+01 4.84417427260693e-04 9.67327117921508e-06
3.35285294117647e+01 4.74679793334220e-04 9.49858986670732e-06
3.36679411764706e+01 4.65137902798374e-04 9.32698235157650e-06
3.38073529411765e+01 4.55787820870533e-04 9.15839668138328e-06
3.39467647058824e+01 4.46625691890812e-04 8.99278174182872e-06
3.40861764705882e+01 4.37647737650746e-04 8.83008722505396e-06
3.42255882352941e+01 4.28850255917724e-04 8.67026359886857e-06
3.43650000000000e+01 4.20229618905320e-04 8.51326213495536e-06
3.45044117647059e+01 4.11782271701665e-04 8.35903487300095e-06
3.46438235294118e+01 4.03504730903811e-04 8.20753461466161e-06
3.47832352941176e+01 3.95393583083538e-04 8.05871492060847e-06
3.49226470588235e+01 3.87445483452575e-04 7.91253007582039e-06
3.50620588235294e+01 3.79657154480687e-04 7.76893511405972e-06
3.52014705882353e+01 3.72025384477301e-04 7.62788579033861e-06
3.53408823529412e+01 3.64547026334821e-04 7.48933855418564e-06
3.54802941176471e+01 3.57218996228440e-04 7.35325057218191e-06
3.56197058823529e+01 3.50038272282295e-04 7.21957970184425e-06
3.57591176470588e+01 3.43001893386319e-04 7.08828446624883e-06
3.58985294117647e+01 3.36106957972948e-04 6.95932407478078e-06
3.60379411764706e+01 3.29350622762741e-04 6.83265839835998e-06
3.61773529411765e+01 3.22730101650517e-04 6.70824794536551e-06
3.63167647058823e+01 3.16242664554359e-04 6.58605388073864e-06
3.64561764705882e+01 3.09885636235987e-04 6.46603800247761e-06
3.65955882352941e+01 3.03656395252121e-04 6.34816271880823e-06
3.67350000000000e+01 2.97552372871517e-04 6.23239106576635e-06
3.68744117647059e+01 2.91571051965621e-04 6.11868668095304e-06
3.70138235294118e+01 2.85709966037002e-04 6.00701379776266e-06
3.71532352941176e+01 2.79966698137491e-04 5.89733724174730e-06
3.72926470588235e+01 2.74338879919754e-04 5.78962240527518e-06
3.74320588235294e+01 2.68824190658929e-04 5.68383526276729e-06
3.75714705882353e+01 2.63420356251322e-04 5.57994235033538e-06
3.77108823529412e+01 2.58125148321539e-04 5.47791074600179e-06
3.78502941176471e+01 2.52936383301980e-04 5.37770808371702e-06
3.79897058823529e+01 2.47851921491146e-04 5.27930253406373e-06
3.81291176470588e+01 2.42869666213087e-04 5.18266278550012e-06
3.82685294117647e+01 2.37987562951331e-04 5.08775805725534e-06
3.84079411764706e+01 2.33203598463239e-04 4.99455808104233e-06
3.85473529411765e+01 2.28515799988732e-04 4.90303308328010e-06
3.86867647058824e+01 2.23922234435406e-04 4.81315379695413e-06
3.88261764705882e+01 2.19421007545616e-04 4.72489144428259e-06
3.89655882352941e+01 2.15010263151587e-04 4.63821771987355e-06
3.91050000000000e+01 2.10688182408697e-04 4.55310480163014e-06
3.92444117647059e+01 2.06452983012138e-04 4.46952533161321e-06
3.93838235294118e+01 2.02302918506120e-04 4.38745241098026e-06
3.95232352941176e+01 1.98236277520608e-04 4.30685959640927e-06
3.96626470588235e+01 1.94251383097711e-04 4.22772088165163e-06
3.98020588235294e+01 1.90346591999010e-04 4.15001070696364e-06
3.99414705882353e+01 1.86520293998436e-04 4.07370394412155e-06
4.00808823529412e+01 1.82770911248159e-04 3.99877588185707e-06
4.02202941176471e+01 1.79096897626878e-04 3.92520223452426e-06
4.03597058823529e+01 1.75496738074760e-04 3.85295912790949e-06
4.04991176470588e+01 1.71968947996525e-04 3.78202308543224e-06
4.06385294117647e+01 1.68512072648268e-04 3.71237103610761e-06
4.07779411764706e+01 1.65124686511952e-04 3.64398030110819e-06
4.09173529411765e+01 1.61805392733522e-04 3.57682858069485e-06
4.10567647058824e+01 1.58552822545967e-04 3.51089396153071e-06
4.11961764705882e+01 1.55365634681023e-04 3.44615490395268e-06
4.13355882352941e+01 1.52242514840256e-04 3.38259022959799e-06
4.14750000000000e+01 1.49182175152225e-04 3.32017912811978e-06
4.16144117647059e+01 1.46183353619177e-04 3.25890114326920e-06
4.17538235294118e+01 1.43244813626125e-04 3.19873616867319e-06
4.18932352941176e+01 1.40365343402140e-04 3.13966444464576e-06
4.20326470588235e+01 1.37543755542095e-04 3.08166654479202e-06
4.21720588235294e+01 1.34778886516256e-04 3.02472338179982e-06
4.23114705882353e+01 1.32069596170760e-04 2.96881619645346e-06
4.24508823529412e+01 1.29414767277435e-04 2.91392654695163e-06
4.25902941176471e+01 1.26813305072382e-04 2.86003631422062e-06
4.27297058823529e+01 1.24264136786156e-04 2.80712769151708e-06
4.28691176470588e+01 1.21766211220002e-04 2.75518317431377e-06
4.30085294117647e+01 1.19318498311726e-04 2.70418556517261e-06
4.31479411764706e+01 1.16919988693797e-04 2.65411796390414e-06
4.32873529411765e+01 1.14569693294472e-04 2.60496375799395e-06
4.34267647058823e+01 1.12266642929320e-04 2.55670662707068e-06
4.35661764705882e+01 1.10009887885599e-04 2.50933053359092e-06
4.37055882352941e+01 1.07798497546800e-04 2.46281971378015e-06
4.38450000000000e+01 1.05631560008319e-04 2.41715868172731e-06
4.39844117647059e+01 1.03508181686533e-04 2.37233221928461e-06
