Energy (eV)          EEDF (eV^-(3/2))     First Anisotropy
3.42592592592593e-02 3.20766421138767e-02 1.63823962709448e-05
1.02777777777778e-01 3.18721386333059e-02 2.70567175011942e-05
1.71296296296296e-01 3.16689389572363e-02 3.57304524320753e-05
2.39814814814815e-01 3.14670347727574e-02 4.23275844590435e-05
3.08333333333333e-01 3.12664178217812e-02 4.78359929901418e-05
3.76851851851852e-01 3.10670798966473e-02 5.26289079814624e-05
4.45370370370370e-01 3.08690128436242e-02 5.68993415625145e-05
5.13888888888889e-01 3.06722085597710e-02 6.07637686876866e-05
5.82407407407407e-01 3.04766589947834e-02 6.42993855062380e-05
6.50925925925926e-01 3.02823561488671e-02 6.75607160631516e-05
7.19444444444444e-01 3.00892920739339e-02 7.05880948755247e-05
7.87962962962963e-01 2.98974588719532e-02 7.34124318181076e-05
8.56481481481482e-01 2.97068486957963e-02 7.60580841323670e-05
9.25000000000000e-01 2.95174537478707e-02 7.85446846755099e-05
9.93518518518519e-01 2.93292662807453e-02 8.08883576544087e-05
1.06203703703704e+00 2.91422785955921e-02 8.31025563662826e-05
1.13055555555556e+00 2.89564830434838e-02 8.51986578918934e-05
1.19907407407407e+00 2.87718720256327e-02 8.71863970594338e-05
1.26759259259259e+00 2.85884379884476e-02 8.90741884559367e-05
1.33611111111111e+00 2.84061734281588e-02 9.08693707220052e-05
1.40462962962963e+00 2.82250708888326e-02 9.25783958287964e-05
1.47314814814815e+00 2.80451229620569e-02 9.42069766090492e-05
1.54166666666667e+00 2.78663222866577e-02 9.57602039304836e-05
1.61018518518519e+00 2.76886615483928e-02 9.72426405980438e-05
1.67870370370370e+00 2.75121334807218e-02 9.86583980939636e-05
1.74722222222222e+00 2.73367308612446e-02 1.00011198772888e-04
1.81574074074074e+00 2.71624465147208e-02 1.01304427208738e-04
1.88425925925926e+00 2.69892733116542e-02 1.02541173680237e-04
1.95277777777778e+00 2.68172041679937e-02 1.03724270131915e-04
2.02129629629630e+00 2.66462320448597e-02 1.04856320697394e-04
2.08981481481481e+00 2.64763499482472e-02 1.05939727537958e-04
2.15833333333333e+00 2.63075509295346e-02 1.06976713427043e-04
2.22685185185185e+00 2.61398280827870e-02 1.07969340604853e-04
2.29537037037037e+00 2.59731745469172e-02 1.08919527046775e-04
2.36388888888889e+00 2.58075835045788e-02 1.09829061200637e-04
2.43240740740741e+00 2.56430481818864e-02 1.10699614384728e-04
2.50092592592593e+00 2.54795618481445e-02 1.11532751768046e-04
2.56944444444444e+00 2.53171178155680e-02 1.12329941925427e-04
2.63796296296296e+00 2.51557094396291e-02 1.13092565694264e-04
2.70648148148148e+00 2.49953301169053e-02 1.13821923520660e-04
2.77500000000000e+00 2.48359732867105e-02 1.14519241967733e-04
2.84351851851852e+00 2.46776324301839e-02 1.15185680047074e-04
2.91203703703704e+00 2.45203010700255e-02 1.15822334477749e-04
2.98055555555556e+00 2.43639727702322e-02 1.16430244410980e-04
3.04907407407407e+00 2.42086411363461e-02 1.17010396055745e-04
3.11759259259259e+00 2.40542998136387e-02 1.17563726397958e-04
3.18611111111111e+00 2.39009424884207e-02 1.18091126544842e-04
3.25462962962963e+00 2.37485628872557e-02 1.18593445227627e-04
3.32314814814815e+00 2.35971547767011e-02 1.19071491617805e-04
3.39166666666667e+00 2.34467119630566e-02 1.19526037981725e-04
3.46018518518519e+00 2.32972282921099e-02 1.19957822018858e-04
3.52870370370370e+00 2.31486976493079e-02 1.20367549332823e-04
3.59722222222222e+00 2.30011139582245e-02 1.20755895288471e-04
3.66574074074074e+00 2.28544711816060e-02 1.21123506700889e-04
3.73425925925926e+00 2.27087633206891e-02 1.21471003808787e-04
3.80277777777778e+00 2.25639844149536e-02 1.21798981762792e-04
3.87129629629630e+00 2.24201285418818e-02 1.22108012079684e-04
3.93981481481481e+00 2.22771898167148e-02 1.22398643910399e-04
4.00833333333333e+00 2.21351623925677e-02 1.22671405512631e-04
4.07685185185185e+00 2.19940404591127e-02 1.22926805248620e-04
4.14537037037037e+00 2.18538182434289e-02 1.23165332498753e-04
4.21388888888889e+00 2.17144900093998e-02 1.23387458888978e-04
4.28240740740741e+00 2.15760500574788e-02 1.23593639135907e-04
4.35092592592593e+00 2.14384927244575e-02 1.23784311907809e-04
4.41944444444444e+00 2.13018123832326e-02 1.23959900558995e-04
4.48796296296296e+00 2.11660034428806e-02 1.24120814087135e-04
4.55648148148148e+00 2.10310603475088e-02 1.24267447695126e-04
4.62500000000000e+00 2.08969775769553e-02 1.24400183306958e-04
4.69351851851852e+00 2.07637496462515e-02 1.24519390393994e-04
4.76203703703704e+00 2.06313711053979e-02 1.24625426480513e-04
4.83055555555556e+00 2.04998365391418e-02 1.24718637622143e-04
4.89907407407407e+00 2.03691405670223e-02 1.24799359105609e-04
4.96759259259259e+00 2.02392778423422e-02 1.24867915799621e-04
5.03611111111111e+00 2.01102430527641e-02 1.24924622476775e-04
5.10462962962963e+00 1.99820309198189e-02 1.24969784432871e-04
5.17314814814815e+00 1.98546361986897e-02 1.25003697822400e-04
5.24166666666667e+00 1.97280536779981e-02 1.25026650036905e-04
5.31018518518519e+00 1.96022781795906e-02 1.25038920005145e-04
5.37870370370370e+00 1.94773045585598e-02 1.25040778705354e-04
5.44722222222222e+00 1.93531277023300e-02 1.25032489368705e-04
5.51574074074074e+00 1.92297425311571e-02 1.25014307664817e-04
5.58425925925926e+00 1.91071439976826e-02 1.24986482166610e-04
5.65277777777778e+00 1.89853270867268e-02 1.24949254563217e-04
5.72129629629630e+00 1.88642868150845e-02 1.24902859918799e-04
5.78981481481481e+00 1.87440182313208e-02 1.24847526865792e-04
5.85833333333333e+00 1.86245164157727e-02 1.24783477998019e-04
5.92685185185185e+00 1.85057764797307e-02 1.24710929986167e-04
5.99537037037037e+00 1.83877935658602e-02 1.24630093681572e-04
6.06388888888889e+00 1.82705628477946e-02 1.24541174480283e-04
6.13240740740741e+00 1.81540795299370e-02 1.24444372460486e-04
6.20092592592593e+00 1.80383388472654e-02 1.24339882565737e-04
6.26944444444444e+00 1.79233360651366e-02 1.24227894731274e-04
6.33796296296296e+00 1.78090664792738e-02 1.24108594197482e-04
6.40648148148148e+00 1.76955254150282e-02 1.23982161571068e-04
6.47500000000000e+00 1.75827082277371e-02 1.23848772878303e-04
6.54351851851852e+00 1.74706103023496e-02 1.23708599860059e-04
6.61203703703704e+00 1.73592270532381e-02 1.23561810061031e-04
6.68055555555556e+00 1.72485539240104e-02 1.23408566918047e-04
6.74907407407407e+00 1.71385863874863e-02 1.23249030024484e-04
6.81759259259259e+00 1.70293199450205e-02 1.23083355161277e-04
6.88611111111111e+00 1.69207501268137e-02 1.22911694322071e-04
6.95462962962963e+00 1.68128724915638e-02 1.22734195964958e-04
7.02314814814815e+00 1.67056826262835e-02 1.22551005073840e-04
7.09166666666667e+00 1.65991761461209e-02 1.22362263262185e-04
7.16018518518519e+00 1.64933486941793e-02 1.22168108830996e-04
7.22870370370370e+00 1.63881959414849e-02 1.21968676990733e-04
7.29722222222222e+00 1.62837135863699e-02 1.21764099868941e-04
7.36574074074074e+00 1.61798973547393e-02 1.21554506513473e-04
7.43425925925926e+00 1.60767429997476e-02 1.21340023106231e-04
7.50277777777778e+00 1.59742463016241e-02 1.21120773001989e-04
7.57129629629630e+00 1.58724030675019e-02 1.20896876807319e-04
7.63981481481482e+00 1.57712091312452e-02 1.20668452418070e-04
7.70833333333333e+00 1.56706603534098e-02 1.20435615209455e-04
7.77685185185185e+00 1.55707526206798e-02 1.20198478028475e-04
7.84537037037037e+00 1.54714818460956e-02 1.19957151183067e-04
7.91388888888889e+00 1.53728439687540e-02 1.19711742626822e-04
7.98240740740741e+00 1.52748349536417e-02 1.19462357982433e-04
8.05092592592593e+00 1.51774507914707e-02 1.19209100602978e-04
8.11944444444445e+00 1.50806874985139e-02 1.18952071595150e-04
8.18796296296296e+00 1.49845411165600e-02 1.18691369984779e-04
8.25648148148148e+00 1.48890077123965e-02 1.18427092699456e-04
8.32500000000000e+00 1.47940833780061e-02 1.18159334548585e-04
8.39351851851852e+00 1.46997642302865e-02 1.17888188385344e-04
8.46203703703704e+00 1.46060464108924e-02 1.17613745119529e-04
8.53055555555556e+00 1.45129260860770e-02 1.17336093732158e-04
8.59907407407407e+00 1.44203994466431e-02 1.17055321423913e-04
8.66759259259259e+00 1.43284627074622e-02 1.16771513592313e-04
8.73611111111111e+00 1.42371121076472e-02 1.16484753806742e-04
8.80462962962963e+00 1.41463439102878e-02 1.16195123954427e-04
8.87314814814815e+00 1.40561544022985e-02 1.15902704246810e-04
8.94166666666667e+00 1.39665398942663e-02 1.15607573259361e-04
9.01018518518519e+00 1.38774967203001e-02 1.15309807938863e-04
9.07870370370370e+00 1.37890212379776e-02 1.15009483735521e-04
9.14722222222222e+00 1.37011098279032e-02 1.14706674575955e-04
9.21574074074074e+00 1.36137588938548e-02 1.14401452834425e-04
9.28425925925926e+00 1.35269648625380e-02 1.14093889463428e-04
9.35277777777778e+00 1.34407241834397e-02 1.13784053994521e-04
9.42129629629630e+00 1.33550333286830e-02 1.13472014570558e-04
9.48981481481482e+00 1.32698887928830e-02 1.13157837947824e-04
9.55833333333333e+00 1.31852870930914e-02 1.12841589614601e-04
9.62685185185185e+00 1.31012247683878e-02 1.12523333761706e-04
9.69537037037037e+00 1.30176983800058e-02 1.12203133251534e-04
9.76388888888889e+00 1.29347045111031e-02 1.11881049735776e-04
9.83240740740741e+00 1.28522397666211e-02 1.11557143652402e-04
9.90092592592593e+00 1.27703007731462e-02 1.11231474252071e-04
9.96944444444444e+00 1.26888841787722e-02 1.10904099596514e-04
1.00379629629630e+01 1.26079866530432e-02 1.10575076612078e-04
1.01064814814815e+01 1.25276048867324e-02 1.10244461167801e-04
1.01750000000000e+01 1.24477355916304e-02 1.09912308307291e-04
1.02435185185185e+01 1.23683754997193e-02 1.09578671446595e-04
1.03120370370370e+01 1.22895213653726e-02 1.09243602959829e-04
1.03805555555556e+01 1.22111699628721e-02 1.08907154740893e-04
1.04490740740741e+01 1.21333180870644e-02 1.08569377410184e-04
1.05175925925926e+01 1.20559625532312e-02 1.08230320860372e-04
1.05861111111111e+01 1.19791001962342e-02 1.07890033515939e-04
1.06546296296296e+01 1.19027278725737e-02 1.07548562863020e-04
1.07231481481481e+01 1.18268424580563e-02 1.07205955983008e-04
1.07916666666667e+01 1.17514408484063e-02 1.06862258795308e-04
1.08601851851852e+01 1.16765199591392e-02 1.06517516335189e-04
1.09287037037037e+01 1.16020767254361e-02 1.06171773009876e-04
1.09972222222222e+01 1.15281081013480e-02 1.05825071898154e-04
1.10657407407407e+01 1.14546110616949e-02 1.05477455248248e-04
1.11342592592593e+01 1.13815825999040e-02 1.05128964979877e-04
1.12027777777778e+01 1.13090197285698e-02 1.04779641967886e-04
1.12712962962963e+01 1.12369194793342e-02 1.04429526530395e-04
1.13398148148148e+01 1.11652789021338e-02 1.04078657759648e-04
1.14083333333333e+01 1.10940950669818e-02 1.03727073995821e-04
1.14768518518519e+01 1.10233650619329e-02 1.03374813304887e-04
1.15453703703704e+01 1.09530859936060e-02 1.03021912794375e-04
1.16138888888889e+01 1.08832549870670e-02 1.02668408861112e-04
1.16824074074074e+01 1.08138691857116e-02 1.02314337419782e-04
1.17509259259259e+01 1.07449257505630e-02 1.01959733269121e-04
1.18194444444444e+01 1.06764218619212e-02 1.01604630538514e-04
1.18879629629630e+01 1.06083547174702e-02 1.01249063138101e-04
1.19564814814815e+01 1.05407215327600e-02 1.00893064111315e-04
1.20250000000000e+01 1.04735195410933e-02 1.00536666073123e-04
1.20935185185185e+01 1.04067459928616e-02 1.00179900604158e-04
1.21620370370370e+01 1.03403981570945e-02 9.98227986762630e-05
1.22305555555556e+01 1.02744733196749e-02 9.94653910818331e-05
1.22990740740741e+01 1.02089687837890e-02 9.91077078146450e-05
1.23675925925926e+01 1.01438818698169e-02 9.87497784875687e-05
1.24361111111111e+01 1.00792099147044e-02 9.83916317528988e-05
1.25046296296296e+01 1.00149502734193e-02 9.80332957084338e-05
1.25731481481481e+01 9.95110031726735e-03 9.76747983069209e-05
1.26416666666667e+01 9.88765743431306e-03 9.73161667640743e-05
1.27101851851852e+01 9.82461902927326e-03 9.69574277697481e-05
1.27787037037037e+01 9.76198252341139e-03 9.65986076829377e-05
1.28472222222222e+01 9.69974535394906e-03 9.62397319824955e-05
1.29157407407407e+01 9.63790497541820e-03 9.58808256504634e-05
1.29842592592593e+01 9.57645885809036e-03 9.55219135589246e-05
1.30527777777778e+01 9.51540448836467e-03 9.51630199089659e-05
1.31212962962963e+01 9.45473936866633e-03 9.48041686072384e-05
1.31898148148148e+01 9.39446101688839e-03 9.44453827404497e-05
1.32583333333333e+01 9.33456696766529e-03 9.40866849413504e-05
1.33268518518519e+01 9.27505477088791e-03 9.37280977581026e-05
1.33953703703704e+01 9.21592199206738e-03 9.33696431175654e-05
1.34638888888889e+01 9.15716621223603e-03 9.30113425153474e-05
1.35324074074074e+01 9.09878502784851e-03 9.26532171914326e-05
1.36009259259259e+01 9.04077605025855e-03 9.22952876316190e-05
1.36694444444444e+01 8.98313690690339e-03 9.19375739136902e-05
1.37379629629630e+01 8.92586523991625e-03 9.15800960566436e-05
1.38064814814815e+01 8.86895870646250e-03 9.12228735118895e-05
1.38750000000000e+01 8.81241497864469e-03 9.08659255035190e-05
1.39435185185185e+01 8.75623174300546e-03 9.05092705510530e-05
1.40120370370370e+01 8.70040670164465e-03 9.01529268002321e-05
1.40805555555556e+01 8.64493757090581e-03 8.97969123569536e-05
1.41490740740741e+01 8.58982208169149e-03 8.94412448000482e-05
1.42175925925926e+01 8.53505797937111e-03 8.90859415064469e-05
1.42861111111111e+01 8.48064302330894e-03 8.87310191939947e-05
1.43546296296296e+01 8.42657498791837e-03 8.83764942378817e-05
1.44231481481481e+01 8.37285166141752e-03 8.80223829898756e-05
1.44916666666667e+01 8.31947084612549e-03 8.76687013118390e-05
1.45601851851852e+01 8.26643035837256e-03 8.73154647394336e-05
1.46287037037037e+01 8.21372802841124e-03 8.69626886335165e-05
1.46972222222222e+01 8.16136169997241e-03 8.66103877462354e-05
1.47657407407407e+01 8.10932923124818e-03 8.62585765205993e-05
1.48342592592593e+01 8.05762849372645e-03 8.59072693929452e-05
1.49027777777778e+01 8.00625737246498e-03 8.55564803500966e-05
1.49712962962963e+01 7.95521376600576e-03 8.52062232240295e-05
1.50398148148148e+01 7.90449558595257e-03 8.48565112761781e-05
1.51083333333333e+01 7.85410075789976e-03 8.45073574840584e-05
1.51768518518519e+01 7.80402722032690e-03 8.41587748307127e-05
1.52453703703704e+01 7.75427292485647e-03 8.38107758804851e-05
1.53138888888889e+01 7.70483583617044e-03 8.34633729272037e-05
1.53824074074074e+01 7.65571393192707e-03 8.31165781313310e-05
1.54509259259259e+01 7.60690520236351e-03 8.27704031250401e-05
1.55194444444444e+01 7.55840765116285e-03 8.24248592839896e-05
1.55879629629630e+01 7.51021929441727e-03 8.20799580016411e-05
1.56564814814815e+01 7.46233816086707e-03 8.17357102864357e-05
1.57250000000000e+01 7.41476229182061e-03 8.13921270292650e-05
1.57935185185185e+01 7.36748974077571e-03 8.10492186249616e-05
1.58620370370370e+01 7.32051857423980e-03 8.07069952324495e-05
1.59305555555556e+01 7.27384687074560e-03 8.03654670375525e-05
1.59990740740741e+01 7.22747272107578e-03 8.00246438668017e-05
1.60675925925926e+01 7.18139422818540e-03 7.96845354434779e-05
1.61361111111111e+01 7.13560950684146e-03 7.93451510246153e-05
1.62046296296296e+01 7.09011668439894e-03 7.90064996502943e-05
1.62731481481481e+01 7.04491389986575e-03 7.86685903953060e-05
1.63416666666667e+01 6.99999930411440e-03 7.83314319989584e-05
1.64101851851852e+01 6.95537105980636e-03 7.79950329936129e-05
1.64787037037037e+01 6.91102734131726e-03 7.76594018237615e-05
1.65472222222222e+01 6.86696633439679e-03 7.73245465010223e-05
1.66157407407407e+01 6.82318623689467e-03 7.69904748406432e-05
1.66842592592593e+01 6.77968525788196e-03 7.66571947004396e-05
1.67527777777778e+01 6.73646161784743e-03 7.63247136288473e-05
1.68212962962963e+01 6.69351354862540e-03 7.59930390978032e-05
1.68898148148148e+01 6.65083929307138e-03 7.56621781718837e-05
1.69583333333333e+01 6.60843710574979e-03 7.53321377349414e-05
1.70268518518519e+01 6.56630525209839e-03 7.50029247190699e-05
1.70953703703704e+01 6.52444200861345e-03 7.46745457670993e-05
1.71638888888889e+01 6.48284566277945e-03 7.43470073494440e-05
1.72324074074074e+01 6.44151451299907e-03 7.40203158723773e-05
1.73009259259259e+01 6.40044686828721e-03 7.36944773632769e-05
1.73694444444444e+01 6.35964104891485e-03 7.33694976859196e-05
1.74379629629630e+01 6.31909538562297e-03 7.30453827578896e-05
1.75064814814815e+01 6.27880821979474e-03 7.27221382296877e-05
1.75750000000000e+01 6.23877790338797e-03 7.23997696967735e-05
1.76435185185185e+01 6.19900279864307e-03 7.20782823976025e-05
1.77120370370370e+01 6.15948127869342e-03 7.17576814200164e-05
1.77805555555556e+01 6.12021172681741e-03 7.14379719097876e-05
1.78490740740741e+01 6.08119253660060e-03 7.11191587626507e-05
1.79175925925926e+01 6.04242211187035e-03 7.08012468275764e-05
1.79861111111111e+01 6.00389886641705e-03 7.04842406169323e-05
1.80546296296296e+01 5.96562122457305e-03 7.01681445044735e-05
1.81231481481482e+01 5.92758762050056e-03 6.98529629253153e-05
1.81916666666667e+01 5.88979649834464e-03 6.95387000804378e-05
1.82601851851852e+01 5.85224631216962e-03 6.92253600385460e-05
1.83287037037037e+01 5.81493552589604e-03 6.89129468305245e-05
1.83972222222222e+01 5.77786261303706e-03 6.86014641736259e-05
1.84657407407407e+01 5.74102605724135e-03 6.82909156596238e-05
1.85342592592593e+01 5.70442435162220e-03 6.79813049449477e-05
1.86027777777778e+01 5.66805599889980e-03 6.76726354694336e-05
1.86712962962963e+01 5.63191951134039e-03 6.73649106417113e-05
1.87398148148148e+01 5.59601341050443e-03 6.70581335744642e-05
1.88083333333333e+01 5.56033622776184e-03 6.67523072649243e-05
1.88768518518519e+01 5.52488650365284e-03 6.64474347772992e-05
1.89453703703704e+01 5.48966278802225e-03 6.61435189728150e-05
1.90138888888889e+01 5.45466363996037e-03 6.58405626025683e-05
1.90824074074074e+01 5.41988762774406e-03 6.55385683936614e-05
1.91509259259259e+01 5.38533332859849e-03 6.52375387971007e-05
1.92194444444444e+01 5.35099932918083e-03 6.49374761594957e-05
1.92879629629630e+01 5.31688422497737e-03 6.46383828965055e-05
1.93564814814815e+01 5.28298662042874e-03 6.43402612358948e-05
1.94250000000000e+01 5.24930512887307e-03 6.40431133867444e-05
1.94935185185185e+01 5.21583837231815e-03 6.37469412973733e-05
1.95620370370370e+01 5.18258498190087e-03 6.34517468201256e-05
1.96305555555556e+01 5.14954359731245e-03 6.31575318779111e-05
1.96990740740741e+01 5.11671286691658e-03 6.28642982173941e-05
1.97675925925926e+01 5.08409144769439e-03 6.25720475713923e-05
1.98361111111111e+01 5.05167800502665e-03 6.22807814263292e-05
1.99046296296296e+01 5.01947121313022e-03 6.19905011804620e-05
1.99731481481481e+01 4.98746975450993e-03 6.17012083037493e-05
2.00416666666667e+01 4.95567232007020e-03 6.14129041008305e-05
2.01101851851852e+01 4.92407760906153e-03 6.11255897922905e-05
2.01787037037037e+01 4.89268432902739e-03 6.08392665900825e-05
2.02472222222222e+01 4.86149119559793e-03 6.05539354760223e-05
2.03157407407407e+01 4.83049693290009e-03 6.02695973523546e-05
2.03842592592593e+01 4.79970027304010e-03 5.99862531939206e-05
2.04527777777778e+01 4.76909995620749e-03 5.97039038223467e-05
2.05212962962963e+01 4.73869473062379e-03 5.94225500544772e-05
2.05898148148148e+01 4.70848335234510e-03 5.91421924895928e-05
2.06583333333333e+01 4.67846458565203e-03 5.88628316539740e-05
2.07268518518519e+01 4.64863720255581e-03 5.85844681470425e-05
2.07953703703704e+01 4.61899998289658e-03 5.83071024244517e-05
2.08638888888889e+01 4.58955171429362e-03 5.80307348723291e-05
2.09324074074074e+01 4.56029119209575e-03 5.77553658762170e-05
2.10009259259259e+01 4.53121721919422e-03 5.74809956182620e-05
2.10694444444444e+01 4.50232860638945e-03 5.72076242148881e-05
2.11379629629630e+01 4.47362417192426e-03 5.69352518559174e-05
2.12064814814815e+01 4.44510274157569e-03 5.66638785978888e-05
2.12750000000000e+01 4.41676314860707e-03 5.63935044998240e-05
2.13435185185185e+01 4.38860423358892e-03 5.61241294283509e-05
2.14120370370370e+01 4.36062484474769e-03 5.58557531899276e-05
2.14805555555556e+01 4.33282383752022e-03 5.55883756645303e-05
2.15490740740741e+01 4.30520007464039e-03 5.53219966070122e-05
2.16175925925926e+01 4.27775242609274e-03 5.50566157774954e-05
