Energy (eV)          EEDF (eV^-(3/2))     First Anisotropy
1.09000000000000e-01 3.82759379910576e-02 3.67780453941823e-05
3.27000000000000e-01 3.74047571162030e-02 6.02423943645825e-05
5.45000000000000e-01 3.65534047852442e-02 7.82427888927778e-05
7.63000000000000e-01 3.57214296898909e-02 9.11607692379196e-05
9.81000000000000e-01 3.49083907938695e-02 1.01325318958239e-04
1.19900000000000e+00 3.41138570991287e-02 1.09639294999817e-04
1.41700000000000e+00 3.33374074173635e-02 1.16581007963995e-04
1.63500000000000e+00 3.25786301467408e-02 1.22445817907920e-04
1.85300000000000e+00 3.18371230537058e-02 1.27433839060579e-04
2.07100000000000e+00 3.11124930597552e-02 1.31689417854535e-04
2.28900000000000e+00 3.04043560330632e-02 1.35321494099775e-04
2.50700000000000e+00 2.97123365848504e-02 1.38415148683506e-04
2.72500000000000e+00 2.90360678703871e-02 1.41038631126655e-04
2.94300000000000e+00 2.83751913945266e-02 1.43247876511711e-04
3.16100000000000e+00 2.77293568216640e-02 1.45089538481308e-04
3.37900000000000e+00 2.70982217900206e-02 1.46603100187633e-04
3.59700000000000e+00 2.64814517301552e-02 1.47822388246964e-04
3.81500000000000e+00 2.58787196876067e-02 1.48776686577258e-04
4.03300000000000e+00 2.52897061495728e-02 1.49491574059321e-04
4.25100000000000e+00 2.47140988755341e-02 1.49989566664062e-04
4.46900000000000e+00 2.41515927317326e-02 1.50290618036302e-04
4.68700000000000e+00 2.36018895294184e-02 1.50412515595995e-04
4.90500000000000e+00 2.30646978667773e-02 1.50371198163561e-04
5.12300000000000e+00 2.25397329744570e-02 1.50181013720241e-04
5.34100000000000e+00 2.20267165646081e-02 1.49854930857783e-04
5.55900000000000e+00 2.15253766833619e-02 1.49404713946497e-04
5.77700000000000e+00 2.10354475666657e-02 1.48841069549517e-04
5.99500000000000e+00 2.05566694993991e-02 1.48173769807982e-04
6.21300000000000e+00 2.00887886776971e-02 1.47411757203001e-04
6.43100000000000e+00 1.96315570744068e-02 1.46563234122615e-04
6.64900000000000e+00 1.91847323076063e-02 1.45635739928450e-04
6.86700000000000e+00 1.87480775121162e-02 1.44636217660082e-04
7.08500000000000e+00 1.83213612139358e-02 1.43571072088260e-04
7.30300000000000e+00 1.79043572075365e-02 1.42446220497625e-04
7.52100000000000e+00 1.74968444359490e-02 1.41267137321333e-04
7.73900000000000e+00 1.70986068735791e-02 1.40038893546488e-04
7.95700000000000e+00 1.67094334116910e-02 1.38766191647736e-04
8.17500000000000e+00 1.63291177464970e-02 1.37453396677066e-04
8.39300000000000e+00 1.59574582697941e-02 1.36104564033740e-04
8.61100000000000e+00 1.55942579620903e-02 1.34723464353774e-04
8.82900000000000e+00 1.52393242881628e-02 1.33313605889527e-04
9.04700000000000e+00 1.48924690949936e-02 1.31878254693364e-04
9.26500000000000e+00 1.45535085120285e-02 1.30420452872687e-04
9.48300000000000e+00 1.42222628537055e-02 1.28943035144922e-04
9.70100000000000e+00 1.38985565242027e-02 1.27448643888755e-04
9.91900000000000e+00 1.35822179243528e-02 1.25939742860843e-04
1.01370000000000e+01 1.32730793606780e-02 1.24418629724511e-04
1.03550000000000e+01 1.29709769564937e-02 1.22887447517685e-04
1.05730000000000e+01 1.26757505650367e-02 1.21348195170997e-04
1.07910000000000e+01 1.23872436845698e-02 1.19802737173087e-04
1.10090000000000e+01 1.21053033754196e-02 1.18252812468241e-04
1.12270000000000e+01 1.18297801789014e-02 1.16700042661327e-04
1.14450000000000e+01 1.15605280380903e-02 1.15145939596161e-04
1.16630000000000e+01 1.12974042203955e-02 1.13591912365852e-04
1.18810000000000e+01 1.10402692418966e-02 1.12039273807137e-04
1.20990000000000e+01 1.07889867934016e-02 1.10489246524947e-04
1.23170000000000e+01 1.05434236681893e-02 1.08942968488468e-04
1.25350000000000e+01 1.03034496913946e-02 1.07401498235621e-04
1.27530000000000e+01 1.00689376510023e-02 1.05865819719037e-04
1.29710000000000e+01 9.83976323041072e-03 1.04336846823251e-04
1.31890000000000e+01 9.61580494253085e-03 1.02815427579874e-04
1.34070000000000e+01 9.39694406538491e-03 1.01302348104891e-04
1.36250000000000e+01 9.18306457917103e-03 9.97983362798890e-05
1.38430000000000e+01 8.97405310476021e-03 9.83040651969998e-05
1.40610000000000e+01 8.76979884359328e-03 9.68201563854816e-05
1.42790000000000e+01 8.57019351894564e-03 9.53471828362509e-05
1.44970000000000e+01 8.37513131852904e-03 9.38856718391925e-05
1.47150000000000e+01 8.18450883839965e-03 9.24361076468048e-05
1.49330000000000e+01 7.99822502814285e-03 9.09989339765438e-05
1.51510000000000e+01 7.81618113730565e-03 8.95745563631809e-05
1.53690000000000e+01 7.63828066304832e-03 8.81633443715501e-05
1.55870000000000e+01 7.46442929898752e-03 8.67656336791994e-05
1.58050000000000e+01 7.29453488520376e-03 8.53817280376948e-05
1.60230000000000e+01 7.12850735938675e-03 8.40119011206359e-05
1.62410000000000e+01 6.96625870909269e-03 8.26563982657807e-05
1.64590000000000e+01 6.80770292508817e-03 8.13154381181410e-05
1.66770000000000e+01 6.65275595575607e-03 7.99892141803629e-05
1.68950000000000e+01 6.50133566253917e-03 7.86778962762365e-05
1.71130000000000e+01 6.35336177639783e-03 7.73816319327558e-05
1.73310000000000e+01 6.20875585525880e-03 7.61005476857449e-05
1.75490000000000e+01 6.06744124243251e-03 7.48347503137052e-05
1.77670000000000e+01 5.92934302597673e-03 7.35843280042111e-05
1.79850000000000e+01 5.79438799898522e-03 7.23493514568777e-05
1.82030000000000e+01 5.66250462078016e-03 7.11298749266457e-05
1.84210000000000e+01 5.53362297898797e-03 6.99259372108731e-05
1.86390000000000e+01 5.40767475247814e-03 6.87375625834807e-05
1.88570000000000e+01 5.28459317514574e-03 6.75647616791956e-05
1.90750000000000e+01 5.16431300051821e-03 6.64075323307287e-05
1.92930000000000e+01 5.04677046716768e-03 6.52658603615333e-05
1.95110000000000e+01 4.93190326491058e-03 6.41397203366267e-05
1.97290000000000e+01 4.81965050177652e-03 6.30290762738106e-05
1.99470000000000e+01 4.70995267172901e-03 6.19338823174495e-05
2.01650000000000e+01 4.60275162312089e-03 6.08540833768630e-05
2.03830000000000e+01 4.49799052786764e-03 5.97896157312471e-05
2.06010000000000e+01 4.39561385132244e-03 5.87404076029186e-05
2.08190000000000e+01 4.29556732283680e-03 5.77063797005803e-05
2.10370000000000e+01 4.19779790699130e-03 5.66874457341955e-05
2.12550000000000e+01 4.10225377548111e-03 5.56835129029693e-05
2.14730000000000e+01 4.00888427964141e-03 5.46944823578451e-05
2.16910000000000e+01 3.91763992359814e-03 5.37202496398474e-05
2.19090000000000e+01 3.82847233802989e-03 5.27607050955169e-05
2.21270000000000e+01 3.74133425452695e-03 5.18157342706216e-05
2.23450000000000e+01 3.65617948053396e-03 5.08852182832606e-05
2.25630000000000e+01 3.57296287486287e-03 4.99690341774048e-05
2.27810000000000e+01 3.49164032376331e-03 4.90670552578720e-05
2.29990000000000e+01 3.41216871753750e-03 4.81791514076793e-05
2.32170000000000e+01 3.33450592768751e-03 4.73051893886530e-05
2.34350000000000e+01 3.25861078458263e-03 4.64450331261380e-05
2.36530000000000e+01 3.18444305563499e-03 4.55985439785997e-05
2.38710000000000e+01 3.11196342397202e-03 4.47655809928760e-05
2.40890000000000e+01 3.04113346759425e-03 4.39460011457851e-05
2.43070000000000e+01 2.97191563900751e-03 4.31396595727657e-05
2.45250000000000e+01 2.90427324531875e-03 4.23464097841909e-05
2.47430000000000e+01 2.83817042878484e-03 4.15661038699605e-05
2.49610000000000e+01 2.77357214780411e-03 4.07985926929465e-05
2.51790000000000e+01 2.71044415834052e-03 4.00437260718381e-05
2.53970000000000e+01 2.64875299577068e-03 3.93013529539061e-05
2.56150000000000e+01 2.58846595714396e-03 3.85713215781728e-05
2.58330000000000e+01 2.52955108384644e-03 3.78534796294597e-05
2.60510000000000e+01 2.47197714465935e-03 3.71476743837550e-05
2.62690000000000e+01 2.41571361920326e-03 3.64537528453199e-05
2.64870000000000e+01 2.36073068175891e-03 3.57715618759395e-05
2.67050000000000e+01 2.30699918545642e-03 3.51009483166932e-05
2.69230000000000e+01 2.25449064682428e-03 3.44417591026108e-05
2.71410000000000e+01 2.20317723069009e-03 3.37938413705560e-05
2.73590000000000e+01 2.15303173542489e-03 3.31570425606695e-05
2.75770000000000e+01 2.10402757852337e-03 3.25312105116800e-05
2.77950000000000e+01 2.05613878251232e-03 3.19161935503774e-05
2.80130000000000e+01 2.00933996117974e-03 3.13118405755381e-05
2.82310000000000e+01 1.96360630611743e-03 3.07180011365680e-05
2.84490000000000e+01 1.91891357356985e-03 3.01345255071152e-05
2.86670000000000e+01 1.87523807158237e-03 2.95612647539034e-05
2.88850000000000e+01 1.83255664744192e-03 2.89980708010155e-05
2.91030000000000e+01 1.79084667540361e-03 2.84447964898496e-05
2.93210000000000e+01 1.75008604469664e-03 2.79012956349563e-05
2.95390000000000e+01 1.71025314780321e-03 2.73674230759620e-05
2.97570000000000e+01 1.67132686900420e-03 2.68430347257701e-05
2.99750000000000e+01 1.63328657318560e-03 2.63279876152197e-05
3.01930000000000e+01 1.59611209489964e-03 2.58221399343775e-05
3.04110000000000e+01 1.55978372767498e-03 2.53253510706325e-05
3.06290000000000e+01 1.52428221357011e-03 2.48374816437496e-05
3.08470000000000e+01 1.48958873296461e-03 2.43583935380316e-05
3.10650000000000e+01 1.45568489458272e-03 2.38879499317366e-05
3.12830000000000e+01 1.42255272574396e-03 2.34260153238892e-05
3.15010000000000e+01 1.39017466283571e-03 2.29724555586140e-05
3.17190000000000e+01 1.35853354200260e-03 2.25271378471191e-05
3.19370000000000e+01 1.32761259004778e-03 2.20899307874481e-05
3.21550000000000e+01 1.29739541554139e-03 2.16607043821150e-05
3.23730000000000e+01 1.26786600013128e-03 2.12393300537306e-05
3.25910000000000e+01 1.23900869005161e-03 2.08256806587253e-05
3.28090000000000e+01 1.21080818782462e-03 2.04196304992669e-05
3.30270000000000e+01 1.18324954415136e-03 2.00210553334680e-05
3.32450000000000e+01 1.15631814998694e-03 1.96298323839721e-05
3.34630000000000e+01 1.12999972879615e-03 1.92458403450066e-05
3.36810000000000e+01 1.10428032898542e-03 1.88689593879846e-05
3.38990000000000e+01 1.07914631650688e-03 1.84990711657344e-05
3.41170000000000e+01 1.05458436763093e-03 1.81360588154288e-05
3.43350000000000e+01 1.03058146188320e-03 1.77798069602884e-05
3.45530000000000e+01 1.00712487514230e-03 1.74302017101273e-05
3.47710000000000e+01 9.84202172894643e-04 1.70871306608053e-05
3.49890000000000e+01 9.61801203642871e-04 1.67504828926483e-05
3.52070000000000e+01 9.39910092464205e-04 1.64201489678978e-05
3.54250000000000e+01 9.18517234715480e-04 1.60960209272440e-05
3.56430000000000e+01 8.97611289881433e-04 1.57779922854988e-05
3.58610000000000e+01 8.77181175563010e-04 1.54659580264583e-05
3.60790000000000e+01 8.57216061602503e-04 1.51598145970039e-05
3.62970000000000e+01 8.37705364342399e-04 1.48594599004912e-05
3.65150000000000e+01 8.18638741014909e-04 1.45647932894684e-05
3.67330000000000e+01 8.00006084259183e-04 1.42757155577688e-05
3.69510000000000e+01 7.81797516763327e-04 1.39921289320175e-05
3.71690000000000e+01 7.64003386028358e-04 1.37139370625891e-05
3.73870000000000e+01 7.46614259251350e-04 1.34410450140573e-05
3.76050000000000e+01 7.29620918325029e-04 1.31733592551688e-05
3.78230000000000e+01 7.13014354951186e-04 1.29107876483743e-05
3.80410000000000e+01 6.96785765865309e-04 1.26532394389514e-05
3.82590000000000e+01 6.80926548169909e-04 1.24006252437475e-05
3.84770000000000e+01 6.65428294774056e-04 1.21528570395726e-05
3.86950000000000e+01 6.50282789936719e-04 1.19098481512693e-05
3.89130000000000e+01 6.35482004911538e-04 1.16715132394861e-05
3.91310000000000e+01 6.21018093690726e-04 1.14377682881803e-05
3.93490000000000e+01 6.06883388845841e-04 1.12085305918723e-05
3.95670000000000e+01 5.93070397463224e-04 1.09837187426750e-05
3.97850000000000e+01 5.79571797171948e-04 1.07632526171203e-05
4.00030000000000e+01 5.66380432262177e-04 1.05470533628020e-05
4.02210000000000e+01 5.53489309891866e-04 1.03350433848557e-05
4.04390000000000e+01 5.40891596379808e-04 1.01271463322932e-05
4.06570000000000e+01 5.28580613583041e-04 9.92328708420907e-06
4.08750000000000e+01 5.16549835356722e-04 9.72339173587733e-06
4.10930000000000e+01 5.04792884094562e-04 9.52738758475212e-06
4.13110000000000e+01 4.93303527348012e-04 9.33520311638870e-06
4.15290000000000e+01 4.82075674522395e-04 9.14676799029875e-06
4.17470000000000e+01 4.71103373648234e-04 8.96201302575317e-06
4.19650000000000e+01 4.60380808226068e-04 8.78087018754475e-06
4.21830000000000e+01 4.49902294143085e-04 8.60327257172413e-06
4.24010000000000e+01 4.39662276659929e-04 8.42915439131965e-06
4.26190000000000e+01 4.29655327466089e-04 8.25845096205148e-06
4.28370000000000e+01 4.19876141802313e-04 8.09109868805093e-06
4.30550000000000e+01 4.10319535648514e-04 7.92703504759455e-06
4.32730000000000e+01 4.00980442975684e-04 7.76619857886228e-06
4.34910000000000e+01 3.91853913060349e-04 7.60852886572727e-06
4.37090000000000e+01 3.82935107860158e-04 7.45396652358672e-06
4.39270000000000e+01 3.74219299449198e-04 7.30245318524043e-06
4.41450000000000e+01 3.65701867511686e-04 7.15393148682526e-06
4.43630000000000e+01 3.57378296892703e-04 7.00834505381134e-06
4.45810000000000e+01 3.49244175204677e-04 6.86563848706631e-06
4.47990000000000e+01 3.41295190488345e-04 6.72575734899453e-06
4.50170000000000e+01 3.33527128926947e-04 6.58864814975563e-06
4.52350000000000e+01 3.25935872612454e-04 6.45425833356856e-06
4.54530000000000e+01 3.18517397362630e-04 6.32253626510542e-06
4.56710000000000e+01 3.11267770587788e-04 6.19343121597978e-06
4.58890000000000e+01 3.04183149206087e-04 6.06689335133410e-06
4.61070000000000e+01 2.97259777606295e-04 5.94287371652927e-06
4.63250000000000e+01 2.90493985656900e-04 5.82132422394069e-06
4.65430000000000e+01 2.83882186760555e-04 5.70219763986403e-06
4.67610000000000e+01 2.77420875952790e-04 5.58544757153384e-06
4.69790000000000e+01 2.71106628044008e-04 5.47102845425783e-06
4.71970000000000e+01 2.64936095803763e-04 5.35889553866917e-06
4.74150000000000e+01 2.58906008186369e-04 5.24900487809967e-06
4.76330000000000e+01 2.53013168596892e-04 5.14131331607582e-06
4.78510000000000e+01 2.47254453196617e-04 5.03577847393991e-06
4.80690000000000e+01 2.41626809247070e-04 4.93235873859740e-06
4.82870000000000e+01 2.36127253491743e-04 4.83101325039280e-06
4.85050000000000e+01 2.30752870574647e-04 4.73170189111528e-06
4.87230000000000e+01 2.25500811494856e-04 4.63438527213532e-06
4.89410000000000e+01 2.20368292096236e-04 4.53902472267330e-06
4.91590000000000e+01 2.15352591591537e-04 4.44558227820113e-06
4.93770000000000e+01 2.10451051120087e-04 4.35402066897808e-06
4.95950000000000e+01 2.05661072338310e-04 4.26430330872084e-06
4.98130000000000e+01 2.00980116042321e-04 4.17639428340880e-06
5.00310000000000e+01 1.96405700821878e-04 4.09025834022509e-06
5.02490000000000e+01 1.91935401744968e-04 4.00586087663319e-06
5.04670000000000e+01 1.87566849072329e-04 3.92316792958963e-06
5.06850000000000e+01 1.83297727001237e-04 3.84214616489329e-06
5.09030000000000e+01 1.79125772437879e-04 3.76276286667034e-06
5.11210000000000e+01 1.75048773797671e-04 3.68498592699564e-06
5.13390000000000e+01 1.71064569832881e-04 3.60878383565000e-06
5.15570000000000e+01 1.67171048486933e-04 3.53412567001295e-06
5.17750000000000e+01 1.63366145774791e-04 3.46098108509102e-06
5.19930000000000e+01 1.59647844688828e-04 3.38932030368078e-06
5.22110000000000e+01 1.56014174129589e-04 3.31911410666656e-06
5.24290000000000e+01 1.52463207860902e-04 3.25033382345182e-06
5.26470000000000e+01 1.48993063488762e-04 3.18295132252384e-06
5.28650000000000e+01 1.45601901463461e-04 3.11693900215114e-06
5.30830000000000e+01 1.42287924104429e-04 3.05226978121256e-06
5.33010000000000e+01 1.39049374647271e-04 2.98891709015776e-06
5.35190000000000e+01 1.35884536312490e-04 2.92685486209789e-06
5.37370000000000e+01 1.32791731395412e-04 2.86605752402553e-06
5.39550000000000e+01 1.29769320376821e-04 2.80649998816343e-06
5.41730000000000e+01 1.26815701053837e-04 2.74815764344057e-06
5.43910000000000e+01 1.23929307690577e-04 2.69100634709516e-06
5.46090000000000e+01 1.21108610188147e-04 2.63502241640289e-06
5.48270000000000e+01 1.18352113273524e-04 2.58018262052986e-06
5.50450000000000e+01 1.15658355706900e-04 2.52646417250904e-06
5.52630000000000e+01 1.13025909507070e-04 2.47384472133900e-06
5.54810000000000e+01 1.10453379194447e-04 2.42230234420389e-06
5.56990000000000e+01 1.07939401051306e-04 2.37181553881353e-06
5.59170000000000e+01 1.05482642398870e-04 2.32236321586261e-06
5.61350000000000e+01 1.03081800890846e-04 2.27392469160729e-06
5.63530000000000e+01 1.00735603823041e-04 2.22647968055856e-06
5.65710000000000e+01 9.84428074586904e-05 2.18000828829094e-06
5.67890000000000e+01 9.62021963691472e-05 2.13449100436516e-06
5.70070000000000e+01 9.40125827895713e-05 2.08990869536377e-06
5.72250000000000e+01 9.18728059892875e-05 2.04624259803836e-06
5.74430000000000e+01 8.97817316564732e-05 2.00347431256707e-06
5.76610000000000e+01 8.77382512968512e-05 1.96158579592111e-06
5.78790000000000e+01 8.57412816460684e-05 1.92055935533925e-06
5.80970000000000e+01 8.37897640954496e-05 1.88037764190874e-06
5.83150000000000e+01 8.18826641308204e-05 1.84102364425141e-06
5.85330000000000e+01 8.00189707841038e-05 1.80248068231366e-06
5.87510000000000e+01 7.81976960973987e-05 1.76473240125934e-06
5.89690000000000e+01 7.64178745992554e-05 1.72776276546373e-06
5.91870000000000e+01 7.46785627928721e-05 1.69155605260783e-06
5.94050000000000e+01 7.29788386559404e-05 1.65609684787122e-06
5.96230000000000e+01 7.13178011518739e-05 1.62137003822258e-06
5.98410000000000e+01 6.96945697521622e-05 1.58736080680628e-06
6.00590000000000e+01 6.81082839695959e-05 1.55405462742406e-06
6.02770000000000e+01 6.65581029021160e-05 1.52143725911018e-06
6.04950000000000e+01 6.50432047870454e-05 1.48949474079916e-06
6.07130000000000e+01 6.35627865654660e-05 1.45821338608440e-06
6.09310000000000e+01 6.21160634565115e-05 1.42757977806691e-06
6.11490000000000e+01 6.07022685413489e-05 1.39758076429235e-06
6.13670000000000e+01 5.93206523566293e-05 1.36820345177562e-06
6.15850000000000e+01 5.79704824971911e-05 1.33943520211142e-06
6.18030000000000e+01 5.66510432278074e-05 1.31126362666981e-06
6.20210000000000e+01 5.53616351037687e-05 1.28367658187528e-06
6.22390000000000e+01 5.41015746001022e-05 1.25666216456828e-06
6.24570000000000e+01 5.28701937492300e-05 1.23020870744797e-06
6.26750000000000e+01 5.16668397868744e-05 1.20430477459501e-06
6.28930000000000e+01 5.04908748060230e-05 1.17893915707310e-06
6.31110000000000e+01 4.93416754187688e-05 1.15410086860821e-06
6.33290000000000e+01 4.82186324258480e-05 1.12977914134427e-06
6.35470000000000e+01 4.71211504936988e-05 1.10596342167410e-06
6.37650000000000e+01 4.60486478388704e-05 1.08264336614464e-06
6.39830000000000e+01 4.50005559196153e-05 1.05980883743501e-06
6.42010000000000e+01 4.39763191345012e-05 1.03744990040667e-06
6.44190000000000e+01 4.29753945278823e-05 1.01555681822416e-06
6.46370000000000e+01 4.19972515020744e-05 9.94120048545637e-07
6.48550000000000e+01 4.10413715360813e-05 9.73130239781920e-07
6.50730000000000e+01 4.01072479107226e-05 9.52578227423029e-07
6.52910000000000e+01 3.91943854400181e-05 9.32455030431184e-07
6.55090000000000e+01 3.83023002086864e-05 9.12751847699116e-07
6.57270000000000e+01 3.74305193156170e-05 8.93460054572690e-07
6.59450000000000e+01 3.65785806231826e-05 8.74571199436865e-07
6.61630000000000e+01 3.57460325122560e-05 8.56077000363824e-07
6.63810000000000e+01 3.49324336428034e-05 8.37969341822403e-07
6.65990000000000e+01 3.41373527199271e-05 8.20240271447753e-07
6.68170000000000e+01 3.33603682652323e-05 8.02881996870201e-07
6.70350000000000e+01 3.26010683933988e-05 7.85886882602481e-07
6.72530000000000e+01 3.18590505938368e-05 7.69247446984251e-07
6.74710000000000e+01 3.11339215173137e-05 7.52956359182889e-07
6.76890000000000e+01 3.04252967674361e-05 7.37006436249825e-07
6.79070000000000e+01 2.97328006968790e-05 7.21390640231351e-07
6.81250000000000e+01 2.90560662082516e-05 7.06102075332983e-07
6.83430000000000e+01 2.83947345594968e-05 6.91133985136529e-07
6.85610000000000e+01 2.77484551737190e-05 6.76479749868921e-07
6.87790000000000e+01 2.71168854533409e-05 6.62132883722022e-07
