Energy (eV)          EEDF (eV^-(3/2))     First Anisotropy
3.44000000000000e-02 1.01202993673557e-01 7.56721373672661e-05
1.03200000000000e-01 9.98109892920623e-02 1.24515443732006e-04
1.72000000000000e-01 9.84381313420725e-02 1.63210960974549e-04
2.40800000000000e-01 9.70841564726069e-02 1.91909725829920e-04
3.09600000000000e-01 9.57488049548953e-02 2.15273705937275e-04
3.78400000000000e-01 9.44318206326154e-02 2.35084094343329e-04
4.47200000000000e-01 9.31329508727638e-02 2.52271867171675e-04
5.16000000000000e-01 9.18519465171956e-02 2.67404662988609e-04
5.84800000000000e-01 9.05885618348306e-02 2.80862521464896e-04
6.53600000000000e-01 8.93425544745155e-02 2.92916546686761e-04
7.22400000000000e-01 8.81136854185341e-02 3.03769254804036e-04
7.91200000000000e-01 8.69017189367579e-02 3.13577330842033e-04
8.60000000000000e-01 8.57064225414264e-02 3.22465400957937e-04
9.28800000000000e-01 8.45275669425503e-02 3.30534834830840e-04
9.97600000000000e-01 8.33649260039267e-02 3.37869622579921e-04
1.06640000000000e+00 8.22182766997608e-02 3.44540441376810e-04
1.13520000000000e+00 8.10873990718830e-02 3.50607554786799e-04
1.20400000000000e+00 7.99720761875557e-02 3.56122933043953e-04
1.27280000000000e+00 7.88720940978589e-02 3.61131837851804e-04
1.34160000000000e+00 7.77872417966499e-02 3.65674029686576e-04
1.41040000000000e+00 7.67173111800860e-02 3.69784703022397e-04
1.47920000000000e+00 7.56620970067050e-02 3.73495221602917e-04
1.54800000000000e+00 7.46213968580541e-02 3.76833704202848e-04
1.61680000000000e+00 7.35950110998608e-02 3.79825496856504e-04
1.68560000000000e+00 7.25827428437376e-02 3.82493557666475e-04
1.75440000000000e+00 7.15843979094135e-02 3.84858773447647e-04
1.82320000000000e+00 7.05997847874849e-02 3.86940222609238e-04
1.89200000000000e+00 6.96287146026793e-02 3.88755395189337e-04
1.96080000000000e+00 6.86710010776235e-02 3.90320378411745e-04
2.02960000000000e+00 6.77264604971108e-02 3.91650014254395e-04
2.09840000000000e+00 6.67949116728596e-02 3.92758034111220e-04
2.16720000000000e+00 6.58761759087564e-02 3.93657174564471e-04
2.23600000000000e+00 6.49700769665772e-02 3.94359277470507e-04
2.30480000000000e+00 6.40764410321803e-02 3.94875376933342e-04
2.37360000000000e+00 6.31950966821639e-02 3.95215775250486e-04
2.44240000000000e+00 6.23258748509827e-02 3.95390109531155e-04
2.51120000000000e+00 6.14686087985165e-02 3.95407410382284e-04
2.58000000000000e+00 6.06231340780847e-02 3.95276153814715e-04
2.64880000000000e+00 5.97892885049016e-02 3.95004307326959e-04
2.71760000000000e+00 5.89669121249644e-02 3.94599370966240e-04
2.78640000000000e+00 5.81558471843701e-02 3.94068414038122e-04
2.85520000000000e+00 5.73559380990538e-02 3.93418108031178e-04
2.92400000000000e+00 5.65670314249438e-02 3.92654756236801e-04
2.99280000000000e+00 5.57889758285266e-02 3.91784320472810e-04
3.06160000000000e+00 5.50216220578171e-02 3.90812445260300e-04
3.13040000000000e+00 5.42648229137284e-02 3.89744479753572e-04
3.19920000000000e+00 5.35184332218345e-02 3.88585497681496e-04
3.26800000000000e+00 5.27823098045224e-02 3.87340315523689e-04
3.33680000000000e+00 5.20563114535265e-02 3.86013509115242e-04
3.40560000000000e+00 5.13402989028414e-02 3.84609428848778e-04
3.47440000000000e+00 5.06341348020066e-02 3.83132213621010e-04
3.54320000000000e+00 4.99376836897589e-02 3.81585803652914e-04
3.61200000000000e+00 4.92508119680478e-02 3.79973952296788e-04
3.68080000000000e+00 4.85733878764074e-02 3.78300236929973e-04
3.74960000000000e+00 4.79052814666812e-02 3.76568069023434e-04
3.81840000000000e+00 4.72463645780947e-02 3.74780703463202e-04
3.88720000000000e+00 4.65965108126706e-02 3.72941247193969e-04
3.95600000000000e+00 4.59555955109825e-02 3.71052667246449e-04
4.02480000000000e+00 4.53234957282414e-02 3.69117798203481e-04
4.09360000000000e+00 4.47000902107122e-02 3.67139349153994e-04
4.16240000000000e+00 4.40852593724535e-02 3.65119910178796e-04
4.23120000000000e+00 4.34788852723778e-02 3.63061958407667e-04
4.30000000000000e+00 4.28808515916278e-02 3.60967863683265e-04
4.36880000000000e+00 4.22910436112624e-02 3.58839893863864e-04
4.43760000000000e+00 4.17093481902514e-02 3.56680219793704e-04
4.50640000000000e+00 4.11356537437714e-02 3.54490919967121e-04
4.57520000000000e+00 4.05698502218012e-02 3.52273984910115e-04
4.64400000000000e+00 4.00118290880110e-02 3.50031321300727e-04
4.71280000000000e+00 3.94614832989424e-02 3.47764755847846e-04
4.78160000000000e+00 3.89187072834745e-02 3.45476038946073e-04
4.85040000000000e+00 3.83833969225725e-02 3.43166848122901e-04
4.91920000000000e+00 3.78554495293148e-02 3.40838791292928e-04
4.98800000000000e+00 3.73347638291952e-02 3.38493409832652e-04
5.05680000000000e+00 3.68212399406953e-02 3.36132181488245e-04
5.12560000000000e+00 3.63147793561249e-02 3.33756523127560e-04
5.19440000000000e+00 3.58152849227253e-02 3.31367793346806e-04
5.26320000000000e+00 3.53226608240329e-02 3.28967294941527e-04
5.33200000000000e+00 3.48368125614992e-02 3.26556277250663e-04
5.40080000000000e+00 3.43576469363632e-02 3.24135938381719e-04
5.46960000000000e+00 3.38850720317733e-02 3.21707427324688e-04
5.53840000000000e+00 3.34189971951555e-02 3.19271845961556e-04
5.60720000000000e+00 3.29593330208236e-02 3.16830250977759e-04
5.67600000000000e+00 3.25059913328288e-02 3.14383655681622e-04
5.74480000000000e+00 3.20588851680450e-02 3.11933031737157e-04
5.81360000000000e+00 3.16179287594875e-02 3.09479310815405e-04
5.88240000000000e+00 3.11830375198598e-02 3.07023386169003e-04
5.95120000000000e+00 3.07541280253282e-02 3.04566114134362e-04
6.02000000000000e+00 3.03311179995184e-02 3.02108315565618e-04
6.08880000000000e+00 2.99139262977328e-02 2.99650777204101e-04
6.15760000000000e+00 2.95024728913851e-02 2.97194252986883e-04
6.22640000000000e+00 2.90966788526479e-02 2.94739465297763e-04
6.29520000000000e+00 2.86964663393131e-02 2.92287106163759e-04
6.36400000000000e+00 2.83017585798590e-02 2.89837838400001e-04
6.43280000000000e+00 2.79124798587238e-02 2.87392296705725e-04
6.50160000000000e+00 2.75285555017812e-02 2.84951088713940e-04
6.57040000000000e+00 2.71499118620160e-02 2.82514795997126e-04
6.63920000000000e+00 2.67764763053965e-02 2.80083975031194e-04
6.70800000000000e+00 2.64081771969415e-02 2.77659158119771e-04
6.77680000000000e+00 2.60449438869784e-02 2.75240854280810e-04
6.84560000000000e+00 2.56867066975912e-02 2.72829550097410e-04
6.91440000000000e+00 2.53333969092543e-02 2.70425710534498e-04
6.98320000000000e+00 2.49849467476497e-02 2.68029779723047e-04
7.05200000000000e+00 2.46412893706668e-02 2.65642181713405e-04
7.12080000000000e+00 2.43023588555798e-02 2.63263321199126e-04
7.18960000000000e+00 2.39680901864024e-02 2.60893584212736e-04
7.25840000000000e+00 2.36384192414153e-02 2.58533338794687e-04
7.32720000000000e+00 2.33132827808667e-02 2.56182935636730e-04
7.39600000000000e+00 2.29926184348405e-02 2.53842708700853e-04
7.46480000000000e+00 2.26763646912927e-02 2.51512975814908e-04
7.53360000000000e+00 2.23644608842514e-02 2.49194039245925e-04
7.60240000000000e+00 2.20568471821793e-02 2.46886186252068e-04
7.67120000000000e+00 2.17534645764968e-02 2.44589689614267e-04
7.74000000000000e+00 2.14542548702622e-02 2.42304808148297e-04
7.80880000000000e+00 2.11591606670084e-02 2.40031787198148e-04
7.87760000000000e+00 2.08681253597321e-02 2.37770859111546e-04
7.94640000000000e+00 2.05810931200355e-02 2.35522243698287e-04
8.01520000000000e+00 2.02980088874170e-02 2.33286148672165e-04
8.08400000000000e+00 2.00188183587087e-02 2.31062770077160e-04
8.15280000000000e+00 1.97434679776598e-02 2.28852292698460e-04
8.22160000000000e+00 1.94719049246632e-02 2.26654890459045e-04
8.29040000000000e+00 1.92040771066231e-02 2.24470726802324e-04
8.35920000000000e+00 1.89399331469623e-02 2.22299955061416e-04
8.42800000000000e+00 1.86794223757664e-02 2.20142718815607e-04
8.49680000000000e+00 1.84224948200647e-02 2.17999152234469e-04
8.56560000000000e+00 1.81691011942431e-02 2.15869380410133e-04
8.63440000000000e+00 1.79191928905907e-02 2.13753519678202e-04
8.70320000000000e+00 1.76727219699749e-02 2.11651677927658e-04
8.77200000000000e+00 1.74296411526455e-02 2.09563954900288e-04
8.84080000000000e+00 1.71899038091654e-02 2.07490442479953e-04
8.90960000000000e+00 1.69534639514658e-02 2.05431224972089e-04
8.97840000000000e+00 1.67202762240241e-02 2.03386379373840e-04
9.04720000000000e+00 1.64902958951640e-02 2.01355975635159e-04
9.11600000000000e+00 1.62634788484741e-02 1.99340076911160e-04
9.18480000000000e+00 1.60397815743460e-02 1.97338739806116e-04
9.25360000000000e+00 1.58191611616274e-02 1.95352014609376e-04
9.32240000000000e+00 1.56015752893907e-02 1.93379945523442e-04
9.39120000000000e+00 1.53869822188148e-02 1.91422570884600e-04
9.46000000000000e+00 1.51753407851784e-02 1.89479923376261e-04
9.52880000000000e+00 1.49666103899636e-02 1.87552030235327e-04
9.59760000000000e+00 1.47607509930680e-02 1.85638913451826e-04
9.66640000000000e+00 1.45577231051237e-02 1.83740589962024e-04
9.73520000000000e+00 1.43574877799225e-02 1.81857071835278e-04
9.80400000000000e+00 1.41600066069447e-02 1.79988366454820e-04
9.87280000000000e+00 1.39652417039912e-02 1.78134476692695e-04
9.94160000000000e+00 1.37731557099164e-02 1.76295401079051e-04
1.00104000000000e+01 1.35837117774617e-02 1.74471133965964e-04
1.00792000000000e+01 1.33968735661865e-02 1.72661665686012e-04
1.01480000000000e+01 1.32126052354981e-02 1.70866982705725e-04
1.02168000000000e+01 1.30308714377757e-02 1.69087067774130e-04
1.02856000000000e+01 1.28516373115901e-02 1.67321900066554e-04
1.03544000000000e+01 1.26748684750164e-02 1.65571455323807e-04
1.04232000000000e+01 1.25005310190385e-02 1.63835705986931e-04
1.04920000000000e+01 1.23285915010445e-02 1.62114621327634e-04
1.05608000000000e+01 1.21590169384114e-02 1.60408167574589e-04
1.06296000000000e+01 1.19917748021783e-02 1.58716308035700e-04
1.06984000000000e+01 1.18268330108065e-02 1.57039003216468e-04
1.07672000000000e+01 1.16641599240251e-02 1.55376210934619e-04
1.08360000000000e+01 1.15037243367618e-02 1.53727886431064e-04
1.09048000000000e+01 1.13454954731570e-02 1.52093982477338e-04
1.09736000000000e+01 1.11894429806599e-02 1.50474449479646e-04
1.10424000000000e+01 1.10355369242063e-02 1.48869235579580e-04
1.11112000000000e+01 1.08837477804761e-02 1.47278286751653e-04
1.11800000000000e+01 1.07340464322299e-02 1.45701546897745e-04
1.12488000000000e+01 1.05864041627237e-02 1.44138957938525e-04
1.13176000000000e+01 1.04407926502003e-02 1.42590459901991e-04
1.13864000000000e+01 1.02971839624560e-02 1.41055991009192e-04
1.14552000000000e+01 1.01555505514830e-02 1.39535487757215e-04
1.15240000000000e+01 1.00158652481845e-02 1.38028884999550e-04
1.15928000000000e+01 9.87810125716344e-03 1.36536116023882e-04
1.16616000000000e+01 9.74223215158176e-03 1.35057112627410e-04
1.17304000000000e+01 9.60823186809159e-03 1.33591805189768e-04
1.17992000000000e+01 9.47607470183535e-03 1.32140122743627e-04
1.18680000000000e+01 9.34573530151489e-03 1.30701993043014e-04
1.19368000000000e+01 9.21718866452845e-03 1.29277342629464e-04
1.20056000000000e+01 9.09041013217449e-03 1.27866096896057e-04
1.20744000000000e+01 8.96537538492147e-03 1.26468180149377e-04
1.21432000000000e+01 8.84206043774275e-03 1.25083515669515e-04
1.22120000000000e+01 8.72044163551556e-03 1.23712025768105e-04
1.22808000000000e+01 8.60049564848335e-03 1.22353631844497e-04
1.23496000000000e+01 8.48219946778050e-03 1.21008254440130e-04
1.24184000000000e+01 8.36553040101863e-03 1.19675813291121e-04
1.24872000000000e+01 8.25046606793353e-03 1.18356227379156e-04
1.25560000000000e+01 8.13698439609209e-03 1.17049414980729e-04
1.26248000000000e+01 8.02506361665816e-03 1.15755293714759e-04
1.26936000000000e+01 7.91468226021675e-03 1.14473780588660e-04
1.27624000000000e+01 7.80581915265558e-03 1.13204792042892e-04
1.28312000000000e+01 7.69845341110333e-03 1.11948243994046e-04
1.29000000000000e+01 7.59256443992375e-03 1.10704051876516e-04
1.29688000000000e+01 7.48813192676486e-03 1.09472130682765e-04
1.30376000000000e+01 7.38513583866247e-03 1.08252395002272e-04
1.31064000000000e+01 7.28355641819738e-03 1.07044759059178e-04
1.31752000000000e+01 7.18337417970530e-03 1.05849136748654e-04
1.32440000000000e+01 7.08456990553902e-03 1.04665441672062e-04
1.33128000000000e+01 6.98712464238196e-03 1.03493587170917e-04
1.33816000000000e+01 6.89101969761237e-03 1.02333486359699e-04
1.34504000000000e+01 6.79623663571763e-03 1.01185052157556e-04
1.35192000000000e+01 6.70275727475778e-03 1.00048197318898e-04
1.35880000000000e+01 6.61056368287777e-03 9.89228344629594e-05
1.36568000000000e+01 6.51963817486763e-03 9.78088761023323e-05
1.37256000000000e+01 6.42996330876996e-03 9.67062346704965e-05
1.37944000000000e+01 6.34152188253412e-03 9.56148225484013e-05
1.38632000000000e+01 6.25429693071642e-03 9.45345520901032e-05
1.39320000000000e+01 6.16827172122564e-03 9.34653356474988e-05
1.40008000000000e+01 6.08342975211342e-03 9.24070855941776e-05
1.40696000000000e+01 5.99975474840872e-03 9.13597143484144e-05
1.41384000000000e+01 5.91723065899584e-03 9.03231343953407e-05
1.42072000000000e+01 5.83584165353538e-03 8.92972583083053e-05
1.42760000000000e+01 5.75557211942759e-03 8.82819987694536e-05
1.43448000000000e+01 5.67640665881741e-03 8.72772685895466e-05
1.44136000000000e+01 5.59833008564075e-03 8.62829807270442e-05
1.44824000000000e+01 5.52132742271144e-03 8.52990483064847e-05
1.45512000000000e+01 5.44538389884815e-03 8.43253846361481e-05
1.46200000000000e+01 5.37048494604092e-03 8.33619032250619e-05
1.46888000000000e+01 5.29661619665659e-03 8.24085177993608e-05
1.47576000000000e+01 5.22376348068273e-03 8.14651423179877e-05
1.48264000000000e+01 5.15191282300944e-03 8.05316909878004e-05
1.48952000000000e+01 5.08105044074853e-03 7.96080782780768e-05
1.49640000000000e+01 5.01116274058964e-03 7.86942189344299e-05
1.50328000000000e+01 4.94223631619260e-03 7.77900279921704e-05
1.51016000000000e+01 4.87425794561583e-03 7.68954207891241e-05
1.51704000000000e+01 4.80721458877992e-03 7.60103129779118e-05
1.52392000000000e+01 4.74109338496628e-03 7.51346205377247e-05
1.53080000000000e+01 4.67588165035003e-03 7.42682597855902e-05
1.53768000000000e+01 4.61156687556696e-03 7.34111473871607e-05
1.54456000000000e+01 4.54813672331387e-03 7.25632003670384e-05
1.55144000000000e+01 4.48557902598194e-03 7.17243361186276e-05
1.55832000000000e+01 4.42388178332266e-03 7.08944724135615e-05
1.56520000000000e+01 4.36303316014589e-03 7.00735274106915e-05
1.57208000000000e+01 4.30302148404950e-03 6.92614196646684e-05
1.57896000000000e+01 4.24383524318032e-03 6.84580681341123e-05
1.58584000000000e+01 4.18546308402587e-03 6.76633921893876e-05
1.59272000000000e+01 4.12789380923641e-03 6.68773116200154e-05
1.59960000000000e+01 4.07111637547703e-03 6.60997466417037e-05
1.60648000000000e+01 4.01511989130919e-03 6.53306179030218e-05
1.61336000000000e+01 3.95989361510152e-03 6.45698464917343e-05
1.62024000000000e+01 3.90542695296923e-03 6.38173539407978e-05
1.62712000000000e+01 3.85170945674193e-03 6.30730622340288e-05
1.63400000000000e+01 3.79873082195941e-03 6.23368938114650e-05
1.64088000000000e+01 3.74648088589493e-03 6.16087715744083e-05
1.64776000000000e+01 3.69494962560579e-03 6.08886188901782e-05
1.65464000000000e+01 3.64412715601059e-03 6.01763595965860e-05
1.66152000000000e+01 3.59400372799308e-03 5.94719180061157e-05
1.66840000000000e+01 3.54456972653197e-03 5.87752189098444e-05
1.67528000000000e+01 3.49581566885650e-03 5.80861875811035e-05
1.68216000000000e+01 3.44773220262745e-03 5.74047497788796e-05
1.68904000000000e+01 3.40031010414305e-03 5.67308317509753e-05
1.69592000000000e+01 3.35354027656963e-03 5.60643602369316e-05
1.70280000000000e+01 3.30741374819666e-03 5.54052624707203e-05
1.70968000000000e+01 3.26192167071566e-03 5.47534661832135e-05
1.71656000000000e+01 3.21705531752291e-03 5.41088996044395e-05
1.72344000000000e+01 3.17280608204543e-03 5.34714914656274e-05
1.73032000000000e+01 3.12916547609001e-03 5.28411710010496e-05
1.73720000000000e+01 3.08612512821494e-03 5.22178679496775e-05
1.74408000000000e+01 3.04367678212417e-03 5.16015125566340e-05
1.75096000000000e+01 3.00181229508350e-03 5.09920355744732e-05
1.75784000000000e+01 2.96052363635860e-03 5.03893682642836e-05
1.76472000000000e+01 2.91980288567447e-03 4.97934423966122e-05
1.77160000000000e+01 2.87964223169619e-03 4.92041902522324e-05
1.77848000000000e+01 2.84003397053040e-03 4.86215446227471e-05
1.78536000000000e+01 2.80097050424757e-03 4.80454388110370e-05
1.79224000000000e+01 2.76244433942447e-03 4.74758066315650e-05
1.79912000000000e+01 2.72444808570672e-03 4.69125824105276e-05
1.80600000000000e+01 2.68697445439116e-03 4.63557009858736e-05
1.81288000000000e+01 2.65001625702765e-03 4.58050977071911e-05
1.81976000000000e+01 2.61356640404014e-03 4.52607084354549e-05
1.82664000000000e+01 2.57761790336672e-03 4.47224695426563e-05
1.83352000000000e+01 2.54216385911830e-03 4.41903179113075e-05
1.84040000000000e+01 2.50719747025586e-03 4.36641909338334e-05
1.84728000000000e+01 2.47271202928579e-03 4.31440265118509e-05
1.85416000000000e+01 2.43870092097319e-03 4.26297630553342e-05
1.86104000000000e+01 2.40515762107296e-03 4.21213394816816e-05
1.86792000000000e+01 2.37207569507820e-03 4.16186952146785e-05
1.87480000000000e+01 2.33944879698595e-03 4.11217701833653e-05
1.88168000000000e+01 2.30727066807984e-03 4.06305048208108e-05
1.88856000000000e+01 2.27553513572947e-03 4.01448400627943e-05
1.89544000000000e+01 2.24423611220639e-03 3.96647173464025e-05
1.90232000000000e+01 2.21336759351628e-03 3.91900786085473e-05
1.90920000000000e+01 2.18292365824719e-03 3.87208662843953e-05
1.91608000000000e+01 2.15289846643373e-03 3.82570233057269e-05
1.92296000000000e+01 2.12328625843672e-03 3.77984930992210e-05
1.92984000000000e+01 2.09408135383843e-03 3.73452195846637e-05
1.93672000000000e+01 2.06527815035284e-03 3.68971471730981e-05
1.94360000000000e+01 2.03687112275102e-03 3.64542207649023e-05
1.95048000000000e+01 2.00885482180121e-03 3.60163857478030e-05
1.95736000000000e+01 1.98122387322355e-03 3.55835879948377e-05
1.96424000000000e+01 1.95397297665911e-03 3.51557738622521e-05
1.97112000000000e+01 1.92709690465317e-03 3.47328901873426e-05
1.97800000000000e+01 1.90059050165243e-03 3.43148842862527e-05
1.98488000000000e+01 1.87444868301605e-03 3.39017039517183e-05
1.99176000000000e+01 1.84866643404027e-03 3.34932974507575e-05
1.99864000000000e+01 1.82323880899646e-03 3.30896135223206e-05
2.00552000000000e+01 1.79816093018240e-03 3.26906013748974e-05
2.01240000000000e+01 1.77342798698660e-03 3.22962106840830e-05
2.01928000000000e+01 1.74903523496549e-03 3.19063915901002e-05
2.02616000000000e+01 1.72497799493332e-03 3.15210946952885e-05
2.03304000000000e+01 1.70125165206457e-03 3.11402710615597e-05
2.03992000000000e+01 1.67785165500868e-03 3.07638722078132e-05
2.04680000000000e+01 1.65477351501701e-03 3.03918501073231e-05
2.05368000000000e+01 1.63201280508173e-03 3.00241571850975e-05
2.06056000000000e+01 1.60956515908665e-03 2.96607463152058e-05
2.06744000000000e+01 1.58742627096967e-03 2.93015708180803e-05
2.07432000000000e+01 1.56559189389674e-03 2.89465844577935e-05
2.08120000000000e+01 1.54405783944721e-03 2.85957414393114e-05
2.08808000000000e+01 1.52281997681041e-03 2.82489964057257e-05
2.09496000000000e+01 1.50187423199319e-03 2.79063044354611e-05
2.10184000000000e+01 1.48121658703849e-03 2.75676210394690e-05
2.10872000000000e+01 1.46084307925452e-03 2.72329021584007e-05
2.11560000000000e+01 1.44074980045465e-03 2.69021041597627e-05
2.12248000000000e+01 1.42093289620772e-03 2.65751838350596e-05
2.12936000000000e+01 1.40138856509861e-03 2.62520983969208e-05
2.13624000000000e+01 1.38211305799908e-03 2.59328054762150e-05
2.14312000000000e+01 1.36310267734855e-03 2.56172631191538e-05
2.15000000000000e+01 1.34435377644485e-03 2.53054297843832e-05
2.15688000000000e+01 1.32586275874461e-03 2.49972643400663e-05
2.16376000000000e+01 1.30762607717344e-03 2.46927260609598e-05
2.17064000000000e+01 1.28964023344543e-03 2.43917746254789e-05
