Energy (eV)          EEDF (eV^-(3/2))     First Anisotropy
6.45000000000000e-02 4.18295658167849e+00 1.29877355283719e-02
1.93500000000000e-01 2.94708006112304e+00 1.83398657321764e-02
3.22500000000000e-01 2.07634975813779e+00 1.71729865538172e-02
4.51500000000000e-01 1.46288130240886e+00 1.44250414494219e-02
5.80500000000000e-01 1.03066532820403e+00 1.15593828731400e-02
7.09500000000000e-01 7.26149836635911e-01 9.01758997560329e-03
8.38500000000000e-01 5.11605048522576e-01 6.91288984694824e-03
9.67500000000000e-01 3.60448646365285e-01 5.23459839967843e-03
1.09650000000000e+00 2.53952198168806e-01 3.92764076642743e-03
1.22550000000000e+00 1.78920685665195e-01 2.92620973524055e-03
1.35450000000000e+00 1.26057628127418e-01 2.16784854847509e-03
1.48350000000000e+00 8.88132389501648e-02 1.59864987505684e-03
1.61250000000000e+00 6.25729004265111e-02 1.17439826086275e-03
1.74150000000000e+00 4.40854079196806e-02 8.59949778062078e-04
1.87050000000000e+00 3.10601423011741e-02 6.27955076901814e-04
1.99950000000000e+00 2.18832599105544e-02 4.57449557490218e-04
2.12850000000000e+00 1.54177356841915e-02 3.32543032434227e-04
2.25750000000000e+00 1.08624845932093e-02 2.41295988121140e-04
2.38650000000000e+00 7.65310639348255e-03 1.74799229711068e-04
2.51550000000000e+00 5.39195586123808e-03 1.26442021594810e-04
2.64450000000000e+00 3.79887414531420e-03 9.13418559338482e-05
2.77350000000000e+00 2.67647680050241e-03 6.59066924071647e-05
2.90250000000000e+00 1.88569765399141e-03 4.75026439729135e-05
3.03150000000000e+00 1.32855836508698e-03 3.42039084175661e-05
3.16050000000000e+00 9.36028809128819e-04 2.46059038040294e-05
3.28950000000000e+00 6.59474174822386e-04 1.76864294182944e-05
3.41850000000000e+00 4.64629061644420e-04 1.27029979442937e-05
3.54750000000000e+00 3.27351961860700e-04 9.11721836571259e-06
3.67650000000000e+00 2.30634103159174e-04 6.53929199886117e-06
3.80550000000000e+00 1.62492044457859e-04 4.68739149462320e-06
3.93450000000000e+00 1.14482915364309e-04 3.35800806851451e-06
4.06350000000000e+00 8.06583359452437e-05 2.40435397284876e-06
4.19250000000000e+00 5.68274064016719e-05 1.72066321204595e-06
4.32150000000000e+00 4.00374503204863e-05 1.23079986956703e-06
4.45050000000000e+00 2.82081750631900e-05 8.80005195513215e-07
4.57950000000000e+00 1.98739213917533e-05 6.28927150030067e-07
4.70850000000000e+00 1.40020667980400e-05 4.49306728814767e-07
4.83750000000000e+00 9.86508252458556e-06 3.20864973007604e-07
4.96650000000000e+00 6.95039201144980e-06 2.29058864446056e-07
5.09550000000000e+00 4.89686213900726e-06 1.63465172590944e-07
5.22450000000000e+00 3.45005846705341e-06 1.16617587164098e-07
5.35350000000000e+00 2.43072054883293e-06 8.31706982957059e-08
5.48250000000000e+00 1.71255137932919e-06 5.92994194412550e-08
5.61150000000000e+00 1.20656906786362e-06 4.22678548184514e-08
5.74050000000000e+00 8.50081891321438e-07 3.01200104235763e-08
5.86950000000000e+00 5.98920725882815e-07 2.14580514403524e-08
5.99850000000000e+00 4.21966447649409e-07 1.52834174140953e-08
6.12750000000000e+00 2.97294241536566e-07 1.08830384852438e-08
6.25650000000000e+00 2.09457094380727e-07 7.74789173450158e-09
6.38550000000000e+00 1.47571894294564e-07 5.51473367122685e-09
6.51450000000000e+00 1.03971002033005e-07 3.92443248639564e-09
6.64350000000000e+00 7.32522226906551e-08 2.79218364622051e-09
6.77250000000000e+00 5.16094682574852e-08 1.98622833460792e-09
6.90150000000000e+00 3.63611794425477e-08 1.41265313275193e-09
7.03050000000000e+00 2.56180777499368e-08 1.00453712508162e-09
7.15950000000000e+00 1.80490819512268e-08 7.14205679098253e-10
7.28850000000000e+00 1.27163857671915e-08 5.07703401185212e-10
7.41750000000000e+00 8.95926271579921e-09 3.60851727327616e-10
7.54650000000000e+00 6.31220142894718e-09 2.56437653410886e-10
7.67550000000000e+00 4.44722832039963e-09 1.82209626536386e-10
7.80450000000000e+00 3.13327132481311e-09 1.29449231638024e-10
7.93350000000000e+00 2.20752983377609e-09 9.19535041286614e-11
8.06250000000000e+00 1.55530353481346e-09 6.53099954942614e-11
8.19150000000000e+00 1.09578092598888e-09 4.63804983724851e-11
8.32050000000000e+00 7.72026688607163e-10 3.29334549604437e-11
8.44950000000000e+00 5.43927343308939e-10 2.33822855801140e-11
8.57850000000000e+00 3.83221149171520e-10 1.65991555182275e-11
8.70750000000000e+00 2.69996445258550e-10 1.17824581506005e-11
8.83650000000000e+00 1.90224575574314e-10 8.36253872110839e-12
8.96550000000000e+00 1.34021724314838e-10 5.93463595763283e-12
9.09450000000000e+00 9.44243010352022e-11 4.21119211783478e-12
9.22350000000000e+00 6.65261447095062e-11 2.98794309496694e-12
9.35250000000000e+00 4.68706453888413e-11 2.11981079858127e-12
9.48150000000000e+00 3.30224667122878e-11 1.50376701105067e-12
9.61050000000000e+00 2.32658052543858e-11 1.06665457026634e-12
9.73950000000000e+00 1.63918007352729e-11 7.56533055287644e-13
9.86850000000000e+00 1.15487570022638e-11 5.36529879797179e-13
9.99750000000000e+00 8.13661601012113e-12 3.80472088820833e-13
1.01265000000000e+01 5.73261001882559e-12 2.69783589627771e-13
1.02555000000000e+01 4.03888024051540e-12 1.91281517051519e-13
1.03845000000000e+01 2.84557183266543e-12 1.35611375144937e-13
1.05135000000000e+01 2.00483266961776e-12 9.61359261988875e-14
1.06425000000000e+01 1.41249431380608e-12 6.81463516275417e-14
1.07715000000000e+01 9.95165440373089e-13 4.83022757805570e-14
1.09005000000000e+01 7.01138577361330e-13 3.42342978439314e-14
1.10295000000000e+01 4.93983497336854e-13 2.42619016405830e-14
1.11585000000000e+01 3.48033475150513e-13 1.71932722282839e-14
1.12875000000000e+01 2.45205154581802e-13 1.21832516128426e-14
1.14165000000000e+01 1.72758002107364e-13 8.63255828538172e-15
1.15455000000000e+01 1.21715741836786e-13 6.11629036004976e-15
1.16745000000000e+01 8.57541857984230e-14 4.33320819388020e-15
1.18035000000000e+01 6.04176606162532e-14 3.06976053628765e-15
1.19325000000000e+01 4.25669450459395e-14 2.17457053953722e-15
1.20615000000000e+01 2.99903172691958e-14 1.54034185976808e-15
1.21905000000000e+01 2.11295203105683e-14 1.09102798925357e-15
1.23195000000000e+01 1.48866924129973e-14 7.72734577650235e-16
1.24485000000000e+01 1.04883408492879e-14 5.47269174179181e-16
1.25775000000000e+01 7.38950538635415e-15 3.87568350291068e-16
1.27065000000000e+01 5.20623715796425e-15 2.74456029208453e-16
1.28355000000000e+01 3.66802700963193e-15 2.28032344700717e-16
