Energy (eV)          EEDF (eV^-(3/2))     First Anisotropy
3.03658536585366e-02 5.80144212795923e-02 3.39442289826688e-05
9.10975609756098e-02 5.75279254336793e-02 5.60048294559828e-05
1.51829268292683e-01 5.70455092298093e-02 7.38090011328095e-05
2.12560975609756e-01 5.65671384616157e-02 8.72599054951756e-05
2.73292682926829e-01 5.60927792033625e-02 9.84161765001201e-05
3.34024390243902e-01 5.56223978136247e-02 1.08057893039799e-04
3.94756097560976e-01 5.51559609366934e-02 1.16589601644093e-04
4.55487804878049e-01 5.46934354945187e-02 1.24256100730044e-04
5.16219512195122e-01 5.42347886856406e-02 1.31220075432935e-04
5.76951219512195e-01 5.37799879857562e-02 1.37596740383332e-04
6.37682926829268e-01 5.33290011421647e-02 1.43471554490262e-04
6.98414634146341e-01 5.28817961726647e-02 1.48910182207378e-04
7.59146341463415e-01 5.24383413626978e-02 1.53964504096049e-04
8.19878048780488e-01 5.19986052648910e-02 1.58676447136496e-04
8.80609756097561e-01 5.15625566949220e-02 1.63080534473978e-04
9.41341463414634e-01 5.11301647295330e-02 1.67205644064183e-04
1.00207317073171e+00 5.07013987057476e-02 1.71076258924053e-04
1.06280487804878e+00 5.02762282187739e-02 1.74713379320678e-04
1.12353658536585e+00 4.98546231144728e-02 1.78135201273162e-04
1.18426829268293e+00 4.94365534944480e-02 1.81357632079683e-04
1.24500000000000e+00 4.90219897109966e-02 1.84394688965556e-04
1.30573170731707e+00 4.86109023683037e-02 1.87258812012790e-04
1.36646341463415e+00 4.82032623104599e-02 1.89961111282208e-04
1.42719512195122e+00 4.77990406293642e-02 1.92511565206078e-04
1.48792682926829e+00 4.73982086593430e-02 1.94919183116602e-04
1.54865853658537e+00 4.70007379777491e-02 1.97192138480697e-04
1.60939024390244e+00 4.66066003949216e-02 1.99337877986662e-04
1.67012195121951e+00 4.62157679602740e-02 2.01363212109802e-04
1.73085365853659e+00 4.58282129598991e-02 2.03274393899270e-04
1.79158536585366e+00 4.54439079076939e-02 2.05077183139558e-04
1.85231707317073e+00 4.50628255503703e-02 2.06776901163205e-04
1.91304878048780e+00 4.46849388631600e-02 2.08378478949130e-04
1.97378048780488e+00 4.43102210498603e-02 2.09886498504630e-04
2.03451219512195e+00 4.39386455350754e-02 2.11305227729464e-04
2.09524390243902e+00 4.35701859682267e-02 2.12638650656746e-04
2.15597560975610e+00 4.32048162197028e-02 2.13890494931800e-04
2.21670731707317e+00 4.28425103806740e-02 2.15064255881661e-04
2.27743902439024e+00 4.24832427562201e-02 2.16163216830211e-04
2.33817073170732e+00 4.21269878685769e-02 2.17190466992788e-04
2.39890243902439e+00 4.17737204536375e-02 2.18148918328126e-04
2.45963414634146e+00 4.14234154606007e-02 2.19041320502388e-04
2.52036585365854e+00 4.10760480458117e-02 2.19870273428908e-04
2.58109756097561e+00 4.07315935754131e-02 2.20638238237459e-04
2.64182926829268e+00 4.03900276234337e-02 2.21347549048388e-04
2.70256097560976e+00 4.00513259661028e-02 2.22000421750867e-04
2.76329268292683e+00 3.97154645841097e-02 2.22598962089075e-04
2.82402439024390e+00 3.93824196595585e-02 2.23145173820532e-04
2.88475609756098e+00 3.90521675754441e-02 2.23640966084043e-04
2.94548780487805e+00 3.87246849104779e-02 2.24088159383516e-04
3.00621951219512e+00 3.83999484409484e-02 2.24488490999447e-04
3.06695121951220e+00 3.80779351378930e-02 2.24843620711651e-04
3.12768292682927e+00 3.77586221664968e-02 2.25155136002242e-04
3.18841463414634e+00 3.74419868813534e-02 2.25424556153936e-04
3.24914634146341e+00 3.71280068279986e-02 2.25653335977770e-04
3.30987804878049e+00 3.68166597402706e-02 2.25842869971671e-04
3.37060975609756e+00 3.65079235396510e-02 2.25994496120790e-04
3.43134146341463e+00 3.62017763309001e-02 2.26109498774293e-04
3.49207317073171e+00 3.58981964033233e-02 2.26189111116634e-04
3.55280487804878e+00 3.55971622291413e-02 2.26234518915293e-04
3.61353658536585e+00 3.52986524593870e-02 2.26246862588724e-04
3.67426829268293e+00 3.50026459249837e-02 2.26227239258011e-04
3.73500000000000e+00 3.47091216343719e-02 2.26176705296353e-04
3.79573170731707e+00 3.44180587727954e-02 2.26096278672905e-04
3.85646341463415e+00 3.41294366984922e-02 2.25986940578329e-04
3.91719512195122e+00 3.38432349435777e-02 2.25849636916121e-04
3.97792682926829e+00 3.35594332118073e-02 2.25685280299180e-04
4.03865853658537e+00 3.32780113778377e-02 2.25494751889048e-04
4.09939024390244e+00 3.29989494836793e-02 2.25278902590836e-04
4.16012195121951e+00 3.27222277394141e-02 2.25038554018897e-04
4.22085365853659e+00 3.24478265217311e-02 2.24774500621581e-04
4.28158536585366e+00 3.21757263705649e-02 2.24487510495497e-04
4.34231707317073e+00 3.19059079896979e-02 2.24178326265469e-04
4.40304878048781e+00 3.16383522447241e-02 2.23847666449579e-04
4.46378048780488e+00 3.13730401622914e-02 2.23496226719133e-04
4.52451219512195e+00 3.11099529269543e-02 2.23124680614506e-04
4.58524390243902e+00 3.08490718816526e-02 2.22733680201572e-04
4.64597560975610e+00 3.05903785257793e-02 2.22323857198616e-04
4.70670731707317e+00 3.03338545144170e-02 2.21895824016717e-04
4.76743902439024e+00 3.00794816553835e-02 2.21450174297133e-04
4.82817073170732e+00 2.98272419096048e-02 2.20987483402795e-04
4.88890243902439e+00 2.95771173892797e-02 2.20508309363003e-04
4.94963414634146e+00 2.93290903571130e-02 2.20013193745304e-04
5.01036585365854e+00 2.90831432235373e-02 2.19502662059574e-04
5.07109756097561e+00 2.88392585469955e-02 2.18977224020999e-04
5.13182926829268e+00 2.85974190326641e-02 2.18437374774250e-04
5.19256097560976e+00 2.83576075298016e-02 2.17883595107392e-04
5.25329268292683e+00 2.81198070319657e-02 2.17316351749363e-04
5.31402439024390e+00 2.78840006753253e-02 2.16736098084120e-04
5.37475609756098e+00 2.76501717379022e-02 2.16143274809139e-04
5.43548780487805e+00 2.74183036370678e-02 2.15538310181041e-04
5.49621951219512e+00 2.71883799296926e-02 2.14921620236489e-04
5.55695121951219e+00 2.69603843105352e-02 2.14293609411362e-04
5.61768292682927e+00 2.67343006114899e-02 2.13654671111079e-04
5.67841463414634e+00 2.65101127992214e-02 2.13005187892836e-04
5.73914634146341e+00 2.62878049752537e-02 2.12345531627530e-04
5.79987804878049e+00 2.60673613744327e-02 2.11676064041879e-04
5.86060975609756e+00 2.58487663641812e-02 2.10997137217286e-04
5.92134146341463e+00 2.56320044422602e-02 2.10309093722687e-04
5.98207317073171e+00 2.54170602368072e-02 2.09612266645578e-04
6.04280487804878e+00 2.52039185052174e-02 2.08906980413085e-04
6.10353658536585e+00 2.49925641319983e-02 2.08193550804324e-04
6.16426829268293e+00 2.47829821287686e-02 2.07472285040272e-04
6.22500000000000e+00 2.45751576328361e-02 2.06743482220986e-04
6.28573170731707e+00 2.43690759064720e-02 2.06007433727011e-04
6.34646341463415e+00 2.41647223348749e-02 2.05264423291991e-04
6.40719512195122e+00 2.39620824261311e-02 2.04514727062698e-04
6.46792682926829e+00 2.37611418098533e-02 2.03758613990194e-04
6.52865853658537e+00 2.35618862364664e-02 2.02996346188633e-04
6.58939024390244e+00 2.33643015752743e-02 2.02228178982510e-04
6.65012195121951e+00 2.31683738143863e-02 2.01454360869407e-04
6.71085365853659e+00 2.29740890597017e-02 2.00675134168058e-04
6.77158536585366e+00 2.27814335330511e-02 1.99890734971481e-04
6.83231707317073e+00 2.25903935720985e-02 1.99101393170298e-04
6.89304878048780e+00 2.24009556290762e-02 1.98307332778561e-04
6.95378048780488e+00 2.22131062700955e-02 1.97508772231878e-04
7.01451219512195e+00 2.20268321733781e-02 1.96705924403495e-04
7.07524390243902e+00 2.18421201291324e-02 1.95898996611901e-04
7.13597560975610e+00 2.16589570383407e-02 1.95088190917043e-04
7.19670731707317e+00 2.14773299120830e-02 1.94273704391039e-04
7.25743902439024e+00 2.12972258698543e-02 1.93455729120835e-04
7.31817073170732e+00 2.11186321394172e-02 1.92634452203496e-04
7.37890243902439e+00 2.09415360556398e-02 1.91810056016766e-04
7.43963414634146e+00 2.07659250598332e-02 1.90982718465985e-04
7.50036585365854e+00 2.05917866981477e-02 1.90152612976187e-04
7.56109756097561e+00 2.04191086214074e-02 1.89319908416611e-04
7.62182926829268e+00 2.02478785842179e-02 1.88484769593413e-04
7.68256097560976e+00 2.00780844434217e-02 1.87647357170353e-04
7.74329268292683e+00 1.99097141579171e-02 1.86807827649137e-04
7.80402439024390e+00 1.97427557875765e-02 1.85966333601801e-04
7.86475609756098e+00 1.95771974926097e-02 1.85123023882357e-04
7.92548780487805e+00 1.94130275320897e-02 1.84278043606085e-04
7.98621951219512e+00 1.92502342637584e-02 1.83431534123479e-04
8.04695121951220e+00 1.90888061429874e-02 1.82583633234705e-04
8.10768292682927e+00 1.89287317221559e-02 1.81734475384711e-04
8.16841463414634e+00 1.87699996492439e-02 1.80884191636993e-04
8.22914634146341e+00 1.86125986676257e-02 1.80032909642497e-04
8.28987804878049e+00 1.84565176150716e-02 1.79180753838194e-04
8.35060975609756e+00 1.83017454231410e-02 1.78327845627524e-04
8.41134146341463e+00 1.81482711158381e-02 1.77474303349754e-04
8.47207317073171e+00 1.79960838093964e-02 1.76620242194299e-04
8.53280487804878e+00 1.78451727114946e-02 1.75765774588784e-04
8.59353658536585e+00 1.76955271199591e-02 1.74911010111829e-04
8.65426829268293e+00 1.75471364225402e-02 1.74056055456383e-04
8.71500000000000e+00 1.73999900959802e-02 1.73201014603783e-04
8.77573170731707e+00 1.72540777054330e-02 1.72345988981671e-04
8.83646341463415e+00 1.71093889032230e-02 1.71491077428667e-04
8.89719512195122e+00 1.69659134286158e-02 1.70636376155317e-04
8.95792682926829e+00 1.68236411069209e-02 1.69781978906417e-04
9.01865853658536e+00 1.66825618489269e-02 1.68927977108060e-04
9.07939024390244e+00 1.65426656497140e-02 1.68074459830272e-04
9.14012195121951e+00 1.64039425884192e-02 1.67221513701678e-04
9.20085365853659e+00 1.62663828275225e-02 1.66369223239853e-04
9.26158536585366e+00 1.61299766116999e-02 1.65517670765326e-04
9.32231707317073e+00 1.59947142675838e-02 1.64666936360376e-04
9.38304878048780e+00 1.58605862029250e-02 1.63817098012850e-04
9.44378048780488e+00 1.57275829060534e-02 1.62968231746275e-04
9.50451219512195e+00 1.55956949447792e-02 1.62120411580683e-04
9.56524390243902e+00 1.54649129661507e-02 1.61273709490456e-04
9.62597560975610e+00 1.53352276956480e-02 1.60428195539179e-04
9.68670731707317e+00 1.52066299366574e-02 1.59583938001472e-04
9.74743902439024e+00 1.50791105694201e-02 1.58741003323068e-04
9.80817073170732e+00 1.49526605507867e-02 1.57899456078191e-04
9.86890243902439e+00 1.48272709134423e-02 1.57059359096125e-04
9.92963414634146e+00 1.47029327653944e-02 1.56220773575533e-04
9.99036585365854e+00 1.45796372889657e-02 1.55383759006311e-04
1.00510975609756e+01 1.44573757406686e-02 1.54548373203581e-04
1.01118292682927e+01 1.43361394502127e-02 1.53714672463301e-04
1.01725609756098e+01 1.42159198200145e-02 1.52882711479434e-04
1.02332926829268e+01 1.40967083245882e-02 1.52052543418054e-04
1.02940243902439e+01 1.39784965099407e-02 1.51224219951005e-04
1.03547560975610e+01 1.38612759929723e-02 1.50397791642672e-04
1.04154878048780e+01 1.37450384597717e-02 1.49573306913172e-04
1.04762195121951e+01 1.36297756683834e-02 1.48750812785959e-04
1.05369512195122e+01 1.35154794448403e-02 1.47930355644394e-04
1.05976829268293e+01 1.34021416837200e-02 1.47111980167050e-04
1.06584146341463e+01 1.32897543475709e-02 1.46295729724289e-04
1.07191463414634e+01 1.31783094663411e-02 1.45481646406784e-04
1.07798780487805e+01 1.30677991368144e-02 1.44669771053470e-04
1.08406097560976e+01 1.29582155220487e-02 1.43860143278759e-04
1.09013414634146e+01 1.28495508508205e-02 1.43052801498896e-04
1.09620731707317e+01 1.27417974170749e-02 1.42247782958109e-04
1.10228048780488e+01 1.26349475793779e-02 1.41445123754229e-04
1.10835365853659e+01 1.25289937603750e-02 1.40644858863398e-04
1.11442682926829e+01 1.24239284462538e-02 1.39847022164356e-04
1.12050000000000e+01 1.23197441862111e-02 1.39051646764555e-04
1.12657317073171e+01 1.22164335910123e-02 1.38258764110234e-04
1.13264634146341e+01 1.21139893352245e-02 1.37468404620887e-04
1.13871951219512e+01 1.20124041539191e-02 1.36680598331685e-04
1.14479268292683e+01 1.19116708430894e-02 1.35895373980200e-04
1.15086585365854e+01 1.18117822591401e-02 1.35112759341419e-04
1.15693902439024e+01 1.17127313183803e-02 1.34332781248515e-04
1.16301219512195e+01 1.16145109965216e-02 1.33555465613257e-04
1.16908536585366e+01 1.15171143281792e-02 1.32780837445728e-04
1.17515853658537e+01 1.14205344063789e-02 1.32008920873673e-04
1.18123170731707e+01 1.13247643820668e-02 1.31239739161741e-04
1.18730487804878e+01 1.12297974636238e-02 1.30473314730078e-04
1.19337804878049e+01 1.11356269163838e-02 1.29709669172508e-04
1.19945121951220e+01 1.10422460621561e-02 1.28948823274352e-04
1.20552439024390e+01 1.09496482787518e-02 1.28190797288929e-04
1.21159756097561e+01 1.08578269987607e-02 1.27435610172306e-04
1.21767073170732e+01 1.07667757113631e-02 1.26683280124073e-04
1.22374390243902e+01 1.06764879595733e-02 1.25933825135090e-04
1.22981707317073e+01 1.05869573405525e-02 1.25187262202525e-04
1.23589024390244e+01 1.04981775051546e-02 1.24443607614325e-04
1.24196341463415e+01 1.04101421574762e-02 1.23702876964558e-04
1.24803658536585e+01 1.03228450544099e-02 1.22965085168559e-04
1.25410975609756e+01 1.02362800052013e-02 1.22230246477388e-04
1.26018292682927e+01 1.01504408710105e-02 1.21498374492246e-04
1.26625609756098e+01 1.00653215644767e-02 1.20769482178840e-04
1.27232926829268e+01 9.98091604928638e-03 1.20043581881063e-04
1.27840243902439e+01 9.89721833974515e-03 1.19320685334515e-04
1.28447560975610e+01 9.81422250035337e-03 1.18600803904819e-04
1.29054878048780e+01 9.73192264475095e-03 1.17883947921040e-04
1.29662195121951e+01 9.65031293721653e-03 1.17170127143524e-04
1.30269512195122e+01 9.56938759032287e-03 1.16459351238002e-04
1.30876829268293e+01 9.48914086517486e-03 1.15751629092075e-04
1.31484146341463e+01 9.40956707100245e-03 1.15046969060591e-04
1.32091463414634e+01 9.33066056475715e-03 1.14345378977352e-04
1.32698780487805e+01 9.25241575071184e-03 1.13646866166628e-04
1.33306097560976e+01 9.17482708006380e-03 1.12951437454385e-04
1.33913414634146e+01 9.09788905054130e-03 1.12259099179154e-04
1.34520731707317e+01 9.02159620601359e-03 1.11569857202894e-04
1.35128048780488e+01 8.94594313610384e-03 1.10883716921648e-04
1.35735365853659e+01 8.87092447580547e-03 1.10200683275845e-04
1.36342682926829e+01 8.79653490510163e-03 1.09520760760453e-04
1.36950000000000e+01 8.72276914858793e-03 1.08843953628592e-04
1.37557317073171e+01 8.64962197456973e-03 1.08170265316436e-04
1.38164634146341e+01 8.57708819628852e-03 1.07499698844448e-04
1.38771951219512e+01 8.50516266994506e-03 1.06832257224065e-04
1.39379268292683e+01 8.43384029487483e-03 1.06167942868124e-04
1.39986585365854e+01 8.36311601318639e-03 1.05506757800748e-04
1.40593902439024e+01 8.29298480940264e-03 1.04848703666175e-04
1.41201219512195e+01 8.22344171010516e-03 1.04193781737435e-04
1.41808536585366e+01 8.15448178358136e-03 1.03541992924726e-04
1.42415853658537e+01 8.08610013947500e-03 1.02893337783671e-04
1.43023170731707e+01 8.01829192843933e-03 1.02247816523571e-04
1.43630487804878e+01 7.95105234179317e-03 1.01605429015358e-04
1.44237804878049e+01 7.88437661117986e-03 1.00966174799397e-04
1.44845121951220e+01 7.81826000822912e-03 1.00330053093147e-04
1.45452439024390e+01 7.75269784422174e-03 9.96970629656997e-05
1.46059756097561e+01 7.68768546931467e-03 9.90672028408307e-05
1.46667073170732e+01 7.62321827354793e-03 9.84404708419199e-05
1.47274390243902e+01 7.55929168517143e-03 9.78168651416611e-05
1.47881707317073e+01 7.49590117077278e-03 9.71963834527481e-05
1.48489024390244e+01 7.43304223495576e-03 9.65790232078812e-05
1.49096341463415e+01 7.37071042002156e-03 9.59647815664382e-05
1.49703658536585e+01 7.30890130565262e-03 9.53536554210924e-05
1.50310975609756e+01 7.24761050859902e-03 9.47456414040729e-05
1.50918292682927e+01 7.18683368236797e-03 9.41407358934524e-05
1.51525609756098e+01 7.12656651691544e-03 9.35389350194674e-05
1.52132926829268e+01 7.06680473834043e-03 9.29402346704809e-05
1.52740243902439e+01 7.00754410858194e-03 9.23446304989022e-05
1.53347560975610e+01 6.94878042511840e-03 9.17521180728707e-05
1.53954878048780e+01 6.89050952029339e-03 9.11626924415652e-05
1.54562195121951e+01 6.83272726215685e-03 9.05763484356559e-05
1.55169512195122e+01 6.77542955302722e-03 8.99930809719922e-05
1.55776829268293e+01 6.71861232958517e-03 8.94128846081837e-05
1.56384146341463e+01 6.66227156258549e-03 8.88357536991022e-05
1.56991463414634e+01 6.60640325657130e-03 8.82616824020515e-05
1.57598780487805e+01 6.55100344959073e-03 8.76906646818478e-05
1.58206097560976e+01 6.49606821291595e-03 8.71226943157856e-05
1.58813414634146e+01 6.44159365076446e-03 8.65577648984329e-05
1.59420731707317e+01 6.38757590002308e-03 8.59958698464407e-05
1.60028048780488e+01 6.33401112997379e-03 8.54370024032843e-05
1.60635365853659e+01 6.28089554202216e-03 8.48811556438171e-05
1.61242682926829e+01 6.22822536942791e-03 8.43283224787725e-05
1.61850000000000e+01 6.17599687703779e-03 8.37784957853560e-05
1.62457317073171e+01 6.12420636070389e-03 8.32316680306360e-05
1.63064634146341e+01 6.07285014797811e-03 8.26878315308284e-05
1.63671951219512e+01 6.02192459688780e-03 8.21469787142932e-05
1.64279268292683e+01 5.97142609600111e-03 8.16091017356897e-05
1.64886585365854e+01 5.92135106417083e-03 8.10741926107858e-05
1.65493902439024e+01 5.87169595028047e-03 8.05422432203908e-05
1.66101219512195e+01 5.82245723299240e-03 8.00132453142280e-05
1.66708536585366e+01 5.77363142049808e-03 7.94871905146564e-05
1.67315853658537e+01 5.72521505027053e-03 7.89640703203475e-05
1.67923170731707e+01 5.67720468881879e-03 7.84438761099772e-05
1.68530487804878e+01 5.62959693144440e-03 7.79265991457803e-05
1.69137804878049e+01 5.58238840199992e-03 7.74122305770108e-05
1.69745121951219e+01 5.53557575264957e-03 7.69007614433739e-05
1.70352439024390e+01 5.48915566363172e-03 7.63921827876759e-05
1.70959756097561e+01 5.44312484275602e-03 7.58864853291299e-05
1.71567073170732e+01 5.39748002597806e-03 7.53836596874929e-05
1.72174390243902e+01 5.35221797635409e-03 7.48836966104350e-05
1.72781707317073e+01 5.30733548408466e-03 7.43865866388828e-05
1.73389024390244e+01 5.26282936628698e-03 7.38923202233646e-05
1.73996341463415e+01 5.21869646676922e-03 7.34008877269884e-05
1.74603658536585e+01 5.17493365580664e-03 7.29122794284000e-05
1.75210975609756e+01 5.13153782991960e-03 7.24264855245621e-05
1.75818292682927e+01 5.08850591165366e-03 7.19434961335575e-05
1.76425609756098e+01 5.04583484936119e-03 7.14633012974272e-05
1.77032926829268e+01 5.00352161698502e-03 7.09858909848172e-05
1.77640243902439e+01 4.96156321384383e-03 7.05112550936212e-05
1.78247560975610e+01 4.91995666441932e-03 7.00393835493789e-05
1.78854878048780e+01 4.87869901791597e-03 6.95702660185953e-05
1.79462195121951e+01 4.83778734874428e-03 6.91038921048276e-05
1.80069512195122e+01 4.79721875561601e-03 6.86402515476588e-05
1.80676829268293e+01 4.75699036157247e-03 6.81793339290640e-05
1.81284146341463e+01 4.71709931378052e-03 6.77211287750540e-05
1.81891463414634e+01 4.67754278333023e-03 6.72656255579688e-05
1.82498780487805e+01 4.63831796503427e-03 6.68128136987386e-05
1.83106097560976e+01 4.59942207722898e-03 6.63626825690900e-05
1.83713414634146e+01 4.56085236157707e-03 6.59152214936679e-05
1.84320731707317e+01 4.52260608287212e-03 6.54704197521696e-05
1.84928048780488e+01 4.48468052884451e-03 6.50282665814415e-05
1.85535365853659e+01 4.44707300996914e-03 6.45887511775026e-05
1.86142682926829e+01 4.40978085927465e-03 6.41518626975338e-05
1.86750000000000e+01 4.37280143215431e-03 6.37175903450095e-05
1.87357317073171e+01 4.33613210598400e-03 6.32859231205027e-05
1.87964634146341e+01 4.29977028052360e-03 6.28568499916410e-05
1.88571951219512e+01 4.26371337714122e-03 6.24303600655706e-05
1.89179268292683e+01 4.22795883882877e-03 6.20064423337517e-05
1.89786585365854e+01 4.19250413002069e-03 6.15850857599293e-05
1.90393902439024e+01 4.15734673641408e-03 6.11662792818577e-05
1.91001219512195e+01 4.12248416479045e-03 6.07500118130103e-05
1.91608536585366e+01 4.08791394283882e-03 6.03362722441975e-05
