Energy (eV)          EEDF (eV^-(3/2))     First Anisotropy
2.61627906976744e-02 6.73809948472585e-02 3.84644806163970e-05
7.84883720930233e-02 6.68430452382813e-02 6.34756374870150e-05
1.30813953488372e-01 6.63093904555594e-02 8.36887305110570e-05
1.83139534883721e-01 6.57799962144560e-02 9.89802282246636e-05
2.35465116279070e-01 6.52548284960495e-02 1.11680220042353e-04
2.87790697674419e-01 6.47338535600807e-02 1.22671119053033e-04
3.40116279069767e-01 6.42170379319957e-02 1.32410282012817e-04
3.92441860465116e-01 6.37043484036327e-02 1.41174309736623e-04
4.44767441860465e-01 6.31957520348972e-02 1.49146921968049e-04
4.97093023255814e-01 6.26912161459991e-02 1.56458159745129e-04
5.49418604651163e-01 6.21907083204453e-02 1.63204427270648e-04
6.01744186046512e-01 6.16941963992515e-02 1.69459759944652e-04
6.54069767441861e-01 6.12016484794988e-02 1.75282621258756e-04
7.06395348837209e-01 6.07130329145899e-02 1.80720233717503e-04
7.58720930232558e-01 6.02283183090626e-02 1.85811460870419e-04
8.11046511627907e-01 5.97474735195245e-02 1.90588795128917e-04
8.63372093023256e-01 5.92704676504705e-02 1.95079770717382e-04
9.15697674418605e-01 5.87972700525629e-02 1.99307993027134e-04
9.68023255813954e-01 5.83278503222490e-02 2.03293905970167e-04
1.02034883720930e+00 5.78621782976685e-02 2.07055374461996e-04
1.07267441860465e+00 5.74002240578408e-02 2.10608133643748e-04
1.12500000000000e+00 5.69419579224592e-02 2.13966141652977e-04
1.17732558139535e+00 5.64873504467171e-02 2.17141859340761e-04
1.22965116279070e+00 5.60363724209011e-02 2.20146474574490e-04
1.28197674418605e+00 5.55889948685269e-02 2.22990084830127e-04
1.33430232558140e+00 5.51451890444550e-02 2.25681847165434e-04
1.38662790697674e+00 5.47049264298537e-02 2.28230100695287e-04
1.43895348837209e+00 5.42681787401265e-02 2.30642470596225e-04
1.49127906976744e+00 5.38349179131263e-02 2.32925955608104e-04
1.54360465116279e+00 5.34051161107438e-02 2.35087000074929e-04
1.59593023255814e+00 5.29787457171202e-02 2.37131556787055e-04
1.64825581395349e+00 5.25557793368908e-02 2.39065140432604e-04
1.70058139534884e+00 5.21361897934102e-02 2.40892873966161e-04
1.75290697674419e+00 5.17199501246240e-02 2.42619527403818e-04
1.80523255813953e+00 5.13070335886020e-02 2.44249553170555e-04
1.85755813953488e+00 5.08974136544246e-02 2.45787117065066e-04
1.90988372093023e+00 5.04910640029875e-02 2.47236123744715e-04
1.96220930232558e+00 5.00879585253046e-02 2.48600240470467e-04
2.01453488372093e+00 4.96880713208490e-02 2.49882917785231e-04
2.06686046511628e+00 4.92913766958771e-02 2.51087408157270e-04
2.11918604651163e+00 4.88978491599177e-02 2.52216781420502e-04
2.17151162790698e+00 4.85074634297985e-02 2.53273939964882e-04
2.22383720930233e+00 4.81201944222682e-02 2.54261632405645e-04
2.27616279069767e+00 4.77360172543341e-02 2.55182464408112e-04
2.32848837209302e+00 4.73549072416553e-02 2.56038909569437e-04
2.38081395348837e+00 4.69768398969726e-02 2.56833318970470e-04
2.43313953488372e+00 4.66017909285270e-02 2.57567930083611e-04
2.48546511627907e+00 4.62297362369998e-02 2.58244873842964e-04
2.53779069767442e+00 4.58606519185209e-02 2.58866182309576e-04
2.59011627906977e+00 4.54945142585121e-02 2.59433795706041e-04
2.64244186046512e+00 4.51312997317260e-02 2.59949567565034e-04
2.69476744186047e+00 4.47709850007300e-02 2.60415270439688e-04
2.74709302325581e+00 4.44135469144153e-02 2.60832600895036e-04
2.79941860465116e+00 4.40589625065062e-02 2.61203184322567e-04
2.85174418604651e+00 4.37072089928491e-02 2.61528578474829e-04
2.90406976744186e+00 4.33582637736978e-02 2.61810277819838e-04
2.95639534883721e+00 4.30121044284636e-02 2.62049717599153e-04
3.00872093023256e+00 4.26687087155577e-02 2.62248276448755e-04
3.06104651162791e+00 4.23280545709593e-02 2.62407279714749e-04
3.11337209302326e+00 4.19901201068021e-02 2.62528002309804e-04
3.16569767441860e+00 4.16548836099677e-02 2.62611671569952e-04
3.21802325581395e+00 4.13223235396557e-02 2.62659469113226e-04
3.27034883720930e+00 4.09924185291364e-02 2.62672533550588e-04
3.32267441860465e+00 4.06651473812035e-02 2.62651963044112e-04
3.37500000000000e+00 4.03404890678827e-02 2.62598816684501e-04
3.42732558139535e+00 4.00184227290799e-02 2.62514116574498e-04
3.47965116279070e+00 3.96989276712422e-02 2.62398849581573e-04
3.53197674418605e+00 3.93819833660294e-02 2.62253968981490e-04
3.58430232558140e+00 3.90675694489939e-02 2.62080396177322e-04
3.63662790697674e+00 3.87556657174173e-02 2.61879021609902e-04
3.68895348837209e+00 3.84462521316046e-02 2.61650706479767e-04
3.74127906976744e+00 3.81393088109751e-02 2.61396284390993e-04
3.79360465116279e+00 3.78348160336682e-02 2.61116562007068e-04
3.84593023255814e+00 3.75327542352760e-02 2.60812320372309e-04
3.89825581395349e+00 3.72331040075892e-02 2.60484315985202e-04
3.95058139534884e+00 3.69358460973477e-02 2.60133281972160e-04
4.00290697674419e+00 3.66409614042697e-02 2.59759928561461e-04
4.05523255813953e+00 3.63484309820502e-02 2.59364944314858e-04
4.10755813953488e+00 3.60582360348940e-02 2.58948997313238e-04
4.15988372093023e+00 3.57703579170656e-02 2.58512735474288e-04
4.21220930232558e+00 3.54847781316906e-02 2.58056787489561e-04
4.26453488372093e+00 3.52014783295698e-02 2.57581763556506e-04
4.31686046511628e+00 3.49204403079986e-02 2.57088256218765e-04
4.36918604651163e+00 3.46416460089615e-02 2.56576840588679e-04
4.42151162790698e+00 3.43650775198990e-02 2.56048075269801e-04
4.47383720930233e+00 3.40907170706098e-02 2.55502503251139e-04
4.52616279069767e+00 3.38185470327645e-02 2.54940652028449e-04
4.57848837209302e+00 3.35485499187718e-02 2.54363034296864e-04
4.63081395348837e+00 3.32807083806578e-02 2.53770148468240e-04
4.68313953488372e+00 3.30150052089494e-02 2.53162479296929e-04
4.73546511627907e+00 3.27514233310146e-02 2.52540497953192e-04
4.78779069767442e+00 3.24899458116450e-02 2.51904662740428e-04
4.84011627906977e+00 3.22305558502716e-02 2.51255419794727e-04
4.89244186046512e+00 3.19732367804557e-02 2.50593203089381e-04
4.94476744186047e+00 3.17179720688181e-02 2.49918434964972e-04
4.99709302325581e+00 3.14647453139776e-02 2.49231526506162e-04
5.04941860465116e+00 3.12135402454973e-02 2.48532878022947e-04
5.10174418604651e+00 3.09643407223517e-02 2.47822879034386e-04
5.15406976744186e+00 3.07171307333640e-02 2.47101908843454e-04
5.20639534883721e+00 3.04718943946890e-02 2.46370337100516e-04
5.25872093023256e+00 3.02286159492934e-02 2.45628523738063e-04
5.31104651162791e+00 2.99872797659429e-02 2.44876819388235e-04
5.36337209302326e+00 2.97478703381984e-02 2.44115565664252e-04
5.41569767441861e+00 2.95103722834203e-02 2.43345095540794e-04
5.46802325581395e+00 2.92747703413498e-02 2.42565733283527e-04
5.52034883720930e+00 2.90410493744288e-02 2.41777794921332e-04
5.57267441860465e+00 2.88091943655149e-02 2.40981588711185e-04
5.62500000000000e+00 2.85791904173583e-02 2.40177415031465e-04
5.67732558139535e+00 2.83510227516437e-02 2.39365566718818e-04
5.72965116279070e+00 2.81246767080420e-02 2.38546329283004e-04
5.78197674418605e+00 2.79001377432678e-02 2.37719981114352e-04
5.83430232558140e+00 2.76773914301452e-02 2.36886793782340e-04
5.88662790697674e+00 2.74564234563072e-02 2.36047031929892e-04
5.93895348837209e+00 2.72372196244060e-02 2.35200953659523e-04
5.99127906976744e+00 2.70197658500611e-02 2.34348810915012e-04
6.04360465116279e+00 2.68040481613369e-02 2.33490849349203e-04
6.09593023255814e+00 2.65900526978456e-02 2.32627308593639e-04
6.14825581395349e+00 2.63777657098571e-02 2.31758422420294e-04
6.20058139534884e+00 2.61671735574149e-02 2.30884418988492e-04
6.25290697674419e+00 2.59582627091277e-02 2.30005520722092e-04
6.30523255813954e+00 2.57510197423053e-02 2.29121944639156e-04
6.35755813953488e+00 2.55454313410819e-02 2.28233902678700e-04
6.40988372093023e+00 2.53414842959016e-02 2.27341601557254e-04
6.46220930232558e+00 2.51391655026692e-02 2.26445242994941e-04
6.51453488372093e+00 2.49384619619092e-02 2.25545023843546e-04
6.56686046511628e+00 2.47393607779301e-02 2.24641136294020e-04
6.61918604651163e+00 2.45418491576987e-02 2.23733767744859e-04
6.67151162790698e+00 2.43459144109167e-02 2.22823101087241e-04
6.72383720930233e+00 2.41515439482992e-02 2.21909314988381e-04
6.77616279069767e+00 2.39587252810702e-02 2.20992583743481e-04
6.82848837209302e+00 2.37674460201603e-02 2.20073077467944e-04
6.88081395348837e+00 2.35776938754107e-02 2.19150962200222e-04
6.93313953488372e+00 2.33894566547841e-02 2.18226400078425e-04
6.98546511627907e+00 2.32027222633143e-02 2.17299549205475e-04
7.03779069767442e+00 2.30174787031346e-02 2.16370563898393e-04
7.09011627906977e+00 2.28337140718949e-02 2.15439594936445e-04
7.14244186046512e+00 2.26514165622699e-02 2.14506789412879e-04
7.19476744186047e+00 2.24705744612004e-02 2.13572290900314e-04
7.24709302325581e+00 2.22911761491406e-02 2.12636239534280e-04
7.29941860465116e+00 2.21132100993121e-02 2.11698772165264e-04
7.35174418604651e+00 2.19366648767239e-02 2.10760022224144e-04
7.40406976744186e+00 2.17615291381602e-02 2.09820119942016e-04
7.45639534883721e+00 2.15877916307232e-02 2.08879192569491e-04
7.50872093023256e+00 2.14154411913550e-02 2.07937364230893e-04
7.56104651162791e+00 2.12444667461198e-02 2.06994756068032e-04
7.61337209302326e+00 2.10748573094931e-02 2.06051486308763e-04
7.66569767441861e+00 2.09066019836555e-02 2.05107670399090e-04
7.71802325581395e+00 2.07396899575774e-02 2.04163420871233e-04
7.77034883720930e+00 2.05741105069750e-02 2.03218847538913e-04
7.82267441860465e+00 2.04098529929656e-02 2.02274057692462e-04
7.87500000000000e+00 2.02469068616038e-02 2.01329155957325e-04
7.92732558139535e+00 2.00852616432037e-02 2.00384244420058e-04
7.97965116279070e+00 1.99249069516664e-02 1.99439422685125e-04
8.03197674418605e+00 1.97658324838124e-02 1.98494787930408e-04
8.08430232558140e+00 1.96080280187199e-02 1.97550435020690e-04
8.13662790697675e+00 1.94514834168767e-02 1.96606456380611e-04
8.18895348837209e+00 1.92961886201067e-02 1.95662942166378e-04
8.24127906976744e+00 1.91421336503412e-02 1.94719980437616e-04
8.29360465116279e+00 1.89893086091731e-02 1.93777657022310e-04
8.34593023255814e+00 1.88377036772214e-02 1.92836055625889e-04
8.39825581395349e+00 1.86873091135001e-02 1.91895257877643e-04
8.45058139534884e+00 1.85381152547925e-02 1.90955343431033e-04
8.50290697674419e+00 1.83901125148567e-02 1.90016389841558e-04
8.55523255813953e+00 1.82432913843338e-02 1.89078472721155e-04
8.60755813953488e+00 1.80976424296085e-02 1.88141665892912e-04
8.65988372093023e+00 1.79531562923811e-02 1.87206041262074e-04
8.71220930232558e+00 1.78098236890652e-02 1.86271668912933e-04
8.76453488372093e+00 1.76676354101922e-02 1.85338617147911e-04
8.81686046511628e+00 1.75265823198192e-02 1.84406952576708e-04
8.86918604651163e+00 1.73866553547848e-02 1.83476739999601e-04
8.92151162790698e+00 1.72478455246016e-02 1.82548042546903e-04
8.97383720930233e+00 1.71101439104001e-02 1.81620921818775e-04
9.02616279069768e+00 1.69735416645163e-02 1.80695437762563e-04
9.07848837209302e+00 1.68380300099234e-02 1.79771648759376e-04
9.13081395348837e+00 1.67036002396677e-02 1.78849611657116e-04
9.18313953488372e+00 1.65702437163093e-02 1.77929381850133e-04
9.23546511627907e+00 1.64379518712247e-02 1.77011013168209e-04
9.28779069767442e+00 1.63067162044864e-02 1.76094558002938e-04
9.34011627906977e+00 1.61765282838836e-02 1.75180067434590e-04
9.39244186046512e+00 1.60473797445255e-02 1.74267591115802e-04
9.44476744186047e+00 1.59192622883040e-02 1.73357177349269e-04
9.49709302325581e+00 1.57921676833607e-02 1.72448873115870e-04
9.54941860465116e+00 1.56660877635581e-02 1.71542724146100e-04
9.60174418604651e+00 1.55410144278248e-02 1.70638774814817e-04
9.65406976744186e+00 1.54169396400273e-02 1.69737068256130e-04
9.70639534883721e+00 1.52938554280585e-02 1.68837646478841e-04
9.75872093023256e+00 1.51717538834582e-02 1.67940550256470e-04
9.81104651162791e+00 1.50506271609049e-02 1.67045819197229e-04
9.86337209302326e+00 1.49304674777120e-02 1.66153491768102e-04
9.91569767441861e+00 1.48112671133275e-02 1.65263605359135e-04
9.96802325581395e+00 1.46930184087199e-02 1.64376196183853e-04
1.00203488372093e+01 1.45757137662428e-02 1.63491299265137e-04
1.00726744186047e+01 1.44593456491312e-02 1.62608948977901e-04
1.01250000000000e+01 1.43439065798734e-02 1.61729178546042e-04
1.01773255813953e+01 1.42293891412355e-02 1.60852019862898e-04
1.02296511627907e+01 1.41157859752002e-02 1.59977504040165e-04
1.02819767441860e+01 1.40030897824953e-02 1.59105660845980e-04
1.03343023255814e+01 1.38912933232007e-02 1.58236519864383e-04
1.03866279069767e+01 1.37803894130308e-02 1.57370109752425e-04
1.04389534883721e+01 1.36703709261467e-02 1.56506457485865e-04
1.04912790697674e+01 1.35612307935988e-02 1.55645589541384e-04
1.05436046511628e+01 1.34529620028751e-02 1.54787531166517e-04
1.05959302325581e+01 1.33455575984579e-02 1.53932307478709e-04
1.06482558139535e+01 1.32390106783314e-02 1.53079942759749e-04
1.07005813953488e+01 1.31333143966034e-02 1.52230459739661e-04
1.07529069767442e+01 1.30284619620364e-02 1.51383880717051e-04
1.08052325581395e+01 1.29244466376126e-02 1.50540226865517e-04
1.08575581395349e+01 1.28212617410460e-02 1.49699519275251e-04
1.09098837209302e+01 1.27189006414987e-02 1.48861778283271e-04
1.09622093023256e+01 1.26173567620274e-02 1.48027022793063e-04
1.10145348837209e+01 1.25166235781965e-02 1.47195271337021e-04
1.10668604651163e+01 1.24166946176594e-02 1.46366541739641e-04
1.11191860465116e+01 1.23175634597431e-02 1.45540850813073e-04
1.11715116279070e+01 1.22192237359118e-02 1.44718215335278e-04
1.12238372093023e+01 1.21216691267115e-02 1.43898651419267e-04
1.12761627906977e+01 1.20248933640271e-02 1.43082173872881e-04
1.13284883720930e+01 1.19288902297851e-02 1.42268797196178e-04
1.13808139534884e+01 1.18336535555562e-02 1.41458534961366e-04
1.14331395348837e+01 1.17391772229798e-02 1.40651400741036e-04
1.14854651162791e+01 1.16454551608894e-02 1.39847407508703e-04
1.15377906976744e+01 1.15524813474198e-02 1.39046567030400e-04
1.15901162790698e+01 1.14602498087822e-02 1.38248890811172e-04
1.16424418604651e+01 1.13687546188807e-02 1.37454389793389e-04
1.16947674418605e+01 1.12779898989320e-02 1.36663074083689e-04
1.17470930232558e+01 1.11879498178500e-02 1.35874953824953e-04
1.17994186046512e+01 1.10986285895678e-02 1.35090038631969e-04
1.18517441860465e+01 1.10100204749840e-02 1.34308337018157e-04
1.19040697674419e+01 1.09221197808160e-02 1.33529857285291e-04
1.19563953488372e+01 1.08349208592350e-02 1.32754606968586e-04
1.20087209302326e+01 1.07484181082199e-02 1.31982593664741e-04
1.20610465116279e+01 1.06626059690325e-02 1.31213824495266e-04
1.21133720930233e+01 1.05774789280389e-02 1.30448305561775e-04
1.21656976744186e+01 1.04930315156236e-02 1.29686042790469e-04
1.22180232558140e+01 1.04092583058394e-02 1.28927041404376e-04
1.22703488372093e+01 1.03261539167316e-02 1.28171306709652e-04
1.23226744186047e+01 1.02437130079591e-02 1.27418843585394e-04
1.23750000000000e+01 1.01619302824975e-02 1.26669655965616e-04
1.24273255813953e+01 1.00808004856116e-02 1.25923747641398e-04
1.24796511627907e+01 1.00003184045185e-02 1.25181122003340e-04
1.25319767441860e+01 9.92047886805290e-03 1.24441781808120e-04
1.25843023255814e+01 9.84127674696076e-03 1.23705729918087e-04
1.26366279069767e+01 9.76270695167898e-03 1.22972968820441e-04
1.26889534883721e+01 9.68476443391107e-03 1.22243500139004e-04
1.27412790697674e+01 9.60744418566406e-03 1.21517325388824e-04
1.27936046511628e+01 9.53074123892784e-03 1.20794445503248e-04
1.28459302325581e+01 9.45465066594450e-03 1.20074861536839e-04
1.28982558139535e+01 9.37916757711312e-03 1.19358574207901e-04
1.29505813953488e+01 9.30428712246547e-03 1.18645583434159e-04
1.30029069767442e+01 9.23000449075345e-03 1.17935889049764e-04
1.30552325581395e+01 9.15631490914084e-03 1.17229490355235e-04
1.31075581395349e+01 9.08321364345083e-03 1.16526386785342e-04
1.31598837209302e+01 9.01069599618792e-03 1.15826577474064e-04
1.32122093023256e+01 8.93875730792048e-03 1.15130060812717e-04
1.32645348837209e+01 8.86739295641612e-03 1.14436835131552e-04
1.33168604651163e+01 8.79659835634477e-03 1.13746898479597e-04
1.33691860465116e+01 8.72636895898459e-03 1.13060248424830e-04
1.34215116279070e+01 8.65670025244569e-03 1.12376882683073e-04
1.34738372093023e+01 8.58758775982140e-03 1.11696798707595e-04
1.35261627906977e+01 8.51902704046928e-03 1.11019993272540e-04
1.35784883720930e+01 8.45101368919907e-03 1.10346463114553e-04
1.36308139534884e+01 8.38354333599072e-03 1.09676204529008e-04
1.36831395348837e+01 8.31661164619946e-03 1.09009213968144e-04
1.37354651162791e+01 8.25021431880900e-03 1.08345487650435e-04
1.37877906976744e+01 8.18434708763268e-03 1.07685021164064e-04
1.38401162790698e+01 8.11900572054345e-03 1.07027810077147e-04
1.38924418604651e+01 8.05418601920238e-03 1.06373849739982e-04
1.39447674418605e+01 7.98988381878895e-03 1.05723135105416e-04
1.39970930232558e+01 7.92609498818671e-03 1.05075661292135e-04
1.40494186046512e+01 7.86281542834909e-03 1.04431423216250e-04
1.41017441860465e+01 7.80004107341323e-03 1.03790415217097e-04
1.41540697674419e+01 7.73776788997665e-03 1.03152631632209e-04
1.42063953488372e+01 7.67599187683865e-03 1.02518066434810e-04
1.42587209302326e+01 7.61470906517026e-03 1.01886713769768e-04
1.43110465116279e+01 7.55391551696910e-03 1.01258567602750e-04
1.43633720930233e+01 7.49360732610453e-03 1.00633621364088e-04
1.44156976744186e+01 7.43378061763093e-03 1.00011868495648e-04
1.44680232558140e+01 7.37443154753934e-03 9.93933021055490e-05
1.45203488372093e+01 7.31555630291330e-03 9.87779154780925e-05
1.45726744186047e+01 7.25715110046711e-03 9.81657017397381e-05
1.46250000000000e+01 7.19921218752704e-03 9.75566535199282e-05
1.46773255813953e+01 7.14173584137934e-03 9.69507634715064e-05
1.47296511627907e+01 7.08471836903127e-03 9.63480241012798e-05
1.47819767441860e+01 7.02815610697397e-03 9.57484276159365e-05
1.48343023255814e+01 6.97204542132316e-03 9.51519664027222e-05
1.48866279069767e+01 6.91638270644996e-03 9.45586327141395e-05
1.49389534883721e+01 6.86116438589189e-03 9.39684183477893e-05
1.49912790697674e+01 6.80638691173957e-03 9.33813151369791e-05
1.50436046511628e+01 6.75204676440937e-03 9.27973146403876e-05
1.50959302325581e+01 6.69814045277193e-03 9.22164085996871e-05
1.51482558139535e+01 6.64466451285625e-03 9.16385886391614e-05
1.52005813953488e+01 6.59161550870536e-03 9.10638459607878e-05
1.52529069767442e+01 6.53899003179369e-03 9.04921718112064e-05
1.53052325581395e+01 6.48678470080844e-03 8.99235571860173e-05
1.53575581395349e+01 6.43499616176738e-03 8.93579932653331e-05
1.54098837209302e+01 6.38362108679171e-03 8.87954711277368e-05
1.54622093023256e+01 6.33265617491001e-03 8.82359814597204e-05
1.55145348837209e+01 6.28209815150472e-03 8.76795150003222e-05
1.55668604651163e+01 6.23194376810172e-03 8.71260623957849e-05
1.56191860465116e+01 6.18218980216192e-03 8.65756140672127e-05
1.56715116279070e+01 6.13283305718714e-03 8.60281606214782e-05
1.57238372093023e+01 6.08387036156947e-03 8.54836925810051e-05
1.57761627906977e+01 6.03529856933861e-03 8.49422001094435e-05
1.58284883720930e+01 5.98711455964043e-03 8.44036734310257e-05
1.58808139534884e+01 5.93931523653700e-03 8.38681025645369e-05
1.59331395348837e+01 5.89189752910327e-03 8.33354777146921e-05
1.59854651162791e+01 5.84485839033678e-03 8.28057890146174e-05
1.60377906976744e+01 5.79819479786033e-03 8.22790262644147e-05
1.60901162790698e+01 5.75190375342626e-03 8.17551793305788e-05
1.61424418604651e+01 5.70598228272410e-03 8.12342380151264e-05
1.61947674418605e+01 5.66042743518943e-03 8.07161919363939e-05
1.62470930232558e+01 5.61523628409086e-03 8.02010308982517e-05
1.62994186046512e+01 5.57040592550704e-03 7.96887446469028e-05
1.63517441860465e+01 5.52593347898005e-03 7.91793226238486e-05
1.64040697674419e+01 5.48181608704858e-03 7.86727543428636e-05
1.64563953488372e+01 5.43805091506456e-03 7.81690291505343e-05
1.65087209302326e+01 5.39463515127234e-03 7.76681365780455e-05
