Energy (eV)          EEDF (eV^-(3/2))     First Anisotropy
3.18965517241379e-02 3.20838097935117e-02 1.58144040927416e-05
9.56896551724138e-02 3.18933255787176e-02 2.61243804473016e-05
1.59482758620690e-01 3.17039722839917e-02 3.45144513015246e-05
2.23275862068966e-01 3.15157431958518e-02 4.09051047639518e-05
2.87068965517241e-01 3.13286316388132e-02 4.62487910049620e-05
3.50862068965517e-01 3.11426309787699e-02 5.09051258755094e-05
4.14655172413793e-01 3.09577346196344e-02 5.50599691824531e-05
4.78448275862069e-01 3.07739360055964e-02 5.88254138508632e-05
5.42241379310345e-01 3.05912286188175e-02 6.22757086450063e-05
6.06034482758621e-01 3.04096059809786e-02 6.54632655311117e-05
6.69827586206897e-01 3.02290616517799e-02 6.84268343625992e-05
7.33620689655172e-01 3.00495892289526e-02 7.11960934838435e-05
7.97413793103448e-01 2.98711823487476e-02 7.37944162983480e-05
8.61206896551724e-01 2.96938346847274e-02 7.62406318865685e-05
9.25000000000000e-01 2.95175399484506e-02 7.85501954910366e-05
9.88793103448276e-01 2.93422918884039e-02 8.07359951057498e-05
1.05258620689655e+00 2.91680842896818e-02 8.28089235941043e-05
1.11637931034483e+00 2.89949109764180e-02 8.47782959634645e-05
1.18017241379310e+00 2.88227658078693e-02 8.66521599028209e-05
1.24396551724138e+00 2.86516426783788e-02 8.84375300911914e-05
1.30775862068966e+00 2.84815355214815e-02 9.01405702063362e-05
1.37155172413793e+00 2.83124383051867e-02 9.17667354493941e-05
1.43534482758621e+00 2.81443450321559e-02 9.33208840957408e-05
1.49913793103448e+00 2.79772497431282e-02 9.48073684025485e-05
1.56293103448276e+00 2.78111465129303e-02 9.62301083714226e-05
1.62672413793103e+00 2.76460294505666e-02 9.75926508027460e-05
1.69051724137931e+00 2.74818927021369e-02 9.88982193804523e-05
1.75431034482759e+00 2.73187304473884e-02 1.00149756411620e-04
1.81810344827586e+00 2.71565368997480e-02 1.01349956598481e-04
1.88189655172414e+00 2.69953063088467e-02 1.02501296779434e-04
1.94568965517241e+00 2.68350329574914e-02 1.03606061234026e-04
2.00948275862069e+00 2.66757111616569e-02 1.04666362158882e-04
2.07327586206897e+00 2.65173352726959e-02 1.05684158407446e-04
2.13706896551724e+00 2.63598996746505e-02 1.06661271702492e-04
2.20086206896552e+00 2.62033987842081e-02 1.07599399623279e-04
2.26465517241379e+00 2.60478270526604e-02 1.08500127998212e-04
2.32844827586207e+00 2.58931789634903e-02 1.09364941775515e-04
2.39224137931034e+00 2.57394490323012e-02 1.10195233554417e-04
2.45603448275862e+00 2.55866318085680e-02 1.10992312118792e-04
2.51982758620690e+00 2.54347218734520e-02 1.11757410010534e-04
2.58362068965517e+00 2.52837138397112e-02 1.12491689287977e-04
2.64741379310345e+00 2.51336023532758e-02 1.13196247608491e-04
2.71120689655172e+00 2.49843820912547e-02 1.13872123681001e-04
2.77500000000000e+00 2.48360477618329e-02 1.14520301233696e-04
2.83879310344828e+00 2.46885941056958e-02 1.15141713580393e-04
2.90258620689655e+00 2.45420158936928e-02 1.15737247263046e-04
2.96637931034483e+00 2.43963079287582e-02 1.16307745322710e-04
3.03017241379310e+00 2.42514650441507e-02 1.16854010765542e-04
3.09396551724138e+00 2.41074821033393e-02 1.17376808751036e-04
3.15775862068966e+00 2.39643540012430e-02 1.17876869425175e-04
3.22155172413793e+00 2.38220756626025e-02 1.18354890512216e-04
3.28534482758621e+00 2.36806420418617e-02 1.18811538862303e-04
3.34913793103448e+00 2.35400481243003e-02 1.19247452670906e-04
3.41293103448276e+00 2.34002889245207e-02 1.19663243520559e-04
3.47672413793103e+00 2.32613594863274e-02 1.20059497474501e-04
3.54051724137931e+00 2.31232548837646e-02 1.20436776849830e-04
3.60431034482759e+00 2.29859702197053e-02 1.20795621856568e-04
3.66810344827586e+00 2.28495006257290e-02 1.21136551364010e-04
3.73189655172414e+00 2.27138412630758e-02 1.21460064342725e-04
3.79568965517241e+00 2.25789873213264e-02 1.21766641203064e-04
3.85948275862069e+00 2.24449340182787e-02 1.22056744322137e-04
3.92327586206897e+00 2.23116766008268e-02 1.22330819235346e-04
3.98706896551724e+00 2.21792103437247e-02 1.22589295746896e-04
4.05086206896552e+00 2.20475305494593e-02 1.22832588279473e-04
4.11465517241379e+00 2.19166325490648e-02 1.23061096873025e-04
4.17844827586207e+00 2.17865117009598e-02 1.23275208119604e-04
4.24224137931034e+00 2.16571633908191e-02 1.23475295380266e-04
4.30603448275862e+00 2.15285830323289e-02 1.23661719633470e-04
4.36982758620690e+00 2.14007660660913e-02 1.23834830272401e-04
4.43362068965517e+00 2.12737079594944e-02 1.23994965221671e-04
4.49741379310345e+00 2.11474042074145e-02 1.24142451666782e-04
4.56120689655172e+00 2.10218503311819e-02 1.24277606742251e-04
4.62500000000000e+00 2.08970418784498e-02 1.24400737572185e-04
4.68879310344828e+00 2.07729744238489e-02 1.24512141969528e-04
4.75258620689655e+00 2.06496435677480e-02 1.24612108775857e-04
4.81637931034483e+00 2.05270449371646e-02 1.24700918169474e-04
4.88017241379310e+00 2.04051741848110e-02 1.24778842287296e-04
4.94396551724138e+00 2.02840269889654e-02 1.24846145172400e-04
5.00775862068966e+00 2.01635990540615e-02 1.24903083289859e-04
5.07155172413793e+00 2.00438861097839e-02 1.24949906016699e-04
5.13534482758621e+00 1.99248839109393e-02 1.24986855552510e-04
5.19913793103448e+00 1.98065882380081e-02 1.25014167379650e-04
5.26293103448276e+00 1.96889948962839e-02 1.25032070701010e-04
5.32672413793104e+00 1.95720997157464e-02 1.25040788322365e-04
5.39051724137931e+00 1.94558985515771e-02 1.25040537066232e-04
5.45431034482759e+00 1.93403872833399e-02 1.25031528165970e-04
5.51810344827586e+00 1.92255618148556e-02 1.25013967126636e-04
5.58189655172414e+00 1.91114180746848e-02 1.24988054099824e-04
5.64568965517241e+00 1.89979520153469e-02 1.24953984240919e-04
5.70948275862069e+00 1.88851596131956e-02 1.24911947553732e-04
5.77327586206897e+00 1.87730368688720e-02 1.24862129232087e-04
5.83706896551724e+00 1.86615798065592e-02 1.24804709985887e-04
5.90086206896552e+00 1.85507844738593e-02 1.24739865873636e-04
5.96465517241379e+00 1.84406469422180e-02 1.24667768615403e-04
6.02844827586207e+00 1.83311633062134e-02 1.24588585892211e-04
6.09224137931035e+00 1.82223296834336e-02 1.24502481169724e-04
6.15603448275862e+00 1.81141422148761e-02 1.24409613986485e-04
6.21982758620690e+00 1.80065970642675e-02 1.24310140230260e-04
6.28362068965517e+00 1.78996904179422e-02 1.24204211955417e-04
6.34741379310345e+00 1.77934184852185e-02 1.24091977649648e-04
6.41120689655172e+00 1.76877774977474e-02 1.23973582490301e-04
6.47500000000000e+00 1.75827637093917e-02 1.23849168157491e-04
6.53879310344828e+00 1.74783733965815e-02 1.23718873128378e-04
6.60258620689655e+00 1.73746028575321e-02 1.23582832730070e-04
6.66637931034483e+00 1.72714484127542e-02 1.23441179182355e-04
6.73017241379310e+00 1.71689064044435e-02 1.23294041875592e-04
6.79396551724138e+00 1.70669731963626e-02 1.23141547178153e-04
6.85775862068966e+00 1.69656451741657e-02 1.22983818659028e-04
6.92155172413793e+00 1.68649187448125e-02 1.22820977302325e-04
6.98534482758621e+00 1.67647903364520e-02 1.22653141314201e-04
7.04913793103448e+00 1.66652563987290e-02 1.22480426331984e-04
7.11293103448276e+00 1.65663134022204e-02 1.22302945625665e-04
7.17672413793103e+00 1.64679578383213e-02 1.22120809905245e-04
7.24051724137931e+00 1.63701862195342e-02 1.21934127517760e-04
7.30431034482759e+00 1.62729950789268e-02 1.21743004637111e-04
7.36810344827586e+00 1.61763809700206e-02 1.21547545072547e-04
7.43189655172414e+00 1.60803404670628e-02 1.21347850454813e-04
7.49568965517241e+00 1.59848701645058e-02 1.21144020415472e-04
7.55948275862069e+00 1.58899666768967e-02 1.20936152397078e-04
7.62327586206897e+00 1.57956266391347e-02 1.20724341829409e-04
7.68706896551724e+00 1.57018467059700e-02 1.20508682299385e-04
7.75086206896552e+00 1.56086235518948e-02 1.20289265363388e-04
7.81465517241379e+00 1.55159538713865e-02 1.20066180714393e-04
7.87844827586207e+00 1.54238343784256e-02 1.19839516343391e-04
7.94224137931035e+00 1.53322618063873e-02 1.19609358354161e-04
8.00603448275862e+00 1.52412329082731e-02 1.19375791122129e-04
8.06982758620690e+00 1.51507444562445e-02 1.19138897448049e-04
8.13362068965517e+00 1.50607932415178e-02 1.18898758375472e-04
8.19741379310345e+00 1.49713760745817e-02 1.18655453342044e-04
8.26120689655172e+00 1.48824897847494e-02 1.18409060326053e-04
8.32500000000000e+00 1.47941312200532e-02 1.18159655666854e-04
8.38879310344828e+00 1.47062972474519e-02 1.17907314243682e-04
8.45258620689655e+00 1.46189847522949e-02 1.17652109477474e-04
8.51637931034483e+00 1.45321906386316e-02 1.17394113327036e-04
8.58017241379310e+00 1.44459118287875e-02 1.17133396461658e-04
8.64396551724138e+00 1.43601452632612e-02 1.16870028085609e-04
8.70775862068966e+00 1.42748879009159e-02 1.16604076072688e-04
8.77155172413793e+00 1.41901367185694e-02 1.16335607096773e-04
8.83534482758621e+00 1.41058887108934e-02 1.16064686459664e-04
8.89913793103448e+00 1.40221408905943e-02 1.15791378220048e-04
8.96293103448276e+00 1.39388902880175e-02 1.15515745318558e-04
9.02672413793104e+00 1.38561339510481e-02 1.15237849409026e-04
9.09051724137931e+00 1.37738689452828e-02 1.14957750982241e-04
9.15431034482759e+00 1.36920923536467e-02 1.14675509485908e-04
9.21810344827586e+00 1.36108012762963e-02 1.14391183159319e-04
9.28189655172414e+00 1.35299928307820e-02 1.14104829152257e-04
9.34568965517241e+00 1.34496641516778e-02 1.13816503640196e-04
9.40948275862069e+00 1.33698123904858e-02 1.13526261662431e-04
9.47327586206897e+00 1.32904347157903e-02 1.13234157236390e-04
9.53706896551724e+00 1.32115283128999e-02 1.12940243468439e-04
9.60086206896552e+00 1.31330903837531e-02 1.12644572395432e-04
9.66465517241379e+00 1.30551181470646e-02 1.12347195094702e-04
9.72844827586207e+00 1.29776088379792e-02 1.12048161790754e-04
9.79224137931035e+00 1.29005597079786e-02 1.11747521700246e-04
9.85603448275862e+00 1.28239680250207e-02 1.11445323137878e-04
9.91982758620690e+00 1.27478310732038e-02 1.11141613619240e-04
9.98362068965517e+00 1.26721461526758e-02 1.10836439600719e-04
1.00474137931034e+01 1.25969105800631e-02 1.10529846908592e-04
1.01112068965517e+01 1.25221216872483e-02 1.10221880592617e-04
1.01750000000000e+01 1.24477768222562e-02 1.09912584902531e-04
1.02387931034483e+01 1.23738733481365e-02 1.09602002865713e-04
1.03025862068966e+01 1.23004086450439e-02 1.09290176726540e-04
1.03663793103448e+01 1.22273801079581e-02 1.08977148501444e-04
1.04301724137931e+01 1.21547851473249e-02 1.08662959180668e-04
1.04939655172414e+01 1.20826211889648e-02 1.08347649015251e-04
1.05577586206897e+01 1.20108856739812e-02 1.08031257531234e-04
1.06215517241379e+01 1.19395760586699e-02 1.07713823543526e-04
1.06853448275862e+01 1.18686898144290e-02 1.07395385169425e-04
1.07491379310345e+01 1.17982244276692e-02 1.07075979841850e-04
1.08129310344828e+01 1.17281773997243e-02 1.06755644322234e-04
1.08767241379310e+01 1.16585462467632e-02 1.06434414713114e-04
1.09405172413793e+01 1.15893284997015e-02 1.06112326470486e-04
1.10043103448276e+01 1.15205217041137e-02 1.05789414415832e-04
1.10681034482759e+01 1.14521234201467e-02 1.05465712747856e-04
1.11318965517241e+01 1.13841312224330e-02 1.05141255054066e-04
1.11956896551724e+01 1.13165427000044e-02 1.04816074321867e-04
1.12594827586207e+01 1.12493554562070e-02 1.04490202949541e-04
1.13232758620690e+01 1.11825671086163e-02 1.04163672757134e-04
1.13870689655172e+01 1.11161752889522e-02 1.03836514996878e-04
1.14508620689655e+01 1.10501776429954e-02 1.03508760363472e-04
1.15146551724138e+01 1.09845718305037e-02 1.03180439004134e-04
1.15784482758621e+01 1.09193555251293e-02 1.02851580528425e-04
1.16422413793103e+01 1.08545264143360e-02 1.02522214017850e-04
1.17060344827586e+01 1.07900821993172e-02 1.02192368035273e-04
1.17698275862069e+01 1.07260205949149e-02 1.01862070634149e-04
1.18336206896552e+01 1.06623393295378e-02 1.01531349367514e-04
1.18974137931034e+01 1.05990361450817e-02 1.01200231296804e-04
1.19612068965517e+01 1.05361087968485e-02 1.00868743000507e-04
1.20250000000000e+01 1.04735550534675e-02 1.00536910787845e-04
1.20887931034483e+01 1.04113726963026e-02 1.00204760088301e-04
1.21525862068966e+01 1.03495595209217e-02 9.98723158738510e-05
1.22163793103448e+01 1.02881133354619e-02 9.95396030847977e-05
1.22801724137931e+01 1.02270319610734e-02 9.92066460082249e-05
1.23439655172414e+01 1.01663132318426e-02 9.88734684964487e-05
1.24077586206897e+01 1.01059549947148e-02 9.85400939744749e-05
1.24715517241379e+01 1.00459551094185e-02 9.82065454473146e-05
1.25353448275862e+01 9.98631144838896e-03 9.78728455071613e-05
1.25991379310345e+01 9.92702189669314e-03 9.75390163404047e-05
1.26629310344828e+01 9.86808435195442e-03 9.72050797345174e-05
1.27267241379310e+01 9.80949672427820e-03 9.68710570848055e-05
1.27905172413793e+01 9.75125693617779e-03 9.65369694010186e-05
1.28543103448276e+01 9.69336292250068e-03 9.62028373138495e-05
1.29181034482759e+01 9.63581263035536e-03 9.58686810812862e-05
1.29818965517241e+01 9.57860401903853e-03 9.55345205948812e-05
1.30456896551724e+01 9.52173505996259e-03 9.52003753857951e-05
1.31094827586207e+01 9.46520373658396e-03 9.48662646307821e-05
1.31732758620690e+01 9.40900804433143e-03 9.45322071581614e-05
1.32370689655172e+01 9.35314599053514e-03 9.41982214535635e-05
1.33008620689655e+01 9.29761559435585e-03 9.38643256655724e-05
1.33646551724138e+01 9.24241488671474e-03 9.35305376112711e-05
1.34284482758621e+01 9.18754191022357e-03 9.31968747817150e-05
1.34922413793103e+01 9.13299471911530e-03 9.28633543472689e-05
1.35560344827586e+01 9.07877137917506e-03 9.25299931628478e-05
1.36198275862069e+01 9.02486996767158e-03 9.21968077730760e-05
1.36836206896552e+01 8.97128857328901e-03 9.18638144173392e-05
1.37474137931034e+01 8.91802529605915e-03 9.15310290347467e-05
1.38112068965517e+01 8.86507824729405e-03 9.11984672689954e-05
1.38750000000000e+01 8.81244554951909e-03 9.08661446339596e-05
1.39387931034483e+01 8.76012533603219e-03 9.05340760336785e-05
1.40025862068966e+01 8.70811575196640e-03 9.02022760912697e-05
1.40663793103448e+01 8.65641495308901e-03 8.98707594808644e-05
1.41301724137931e+01 8.60502110611671e-03 8.95395404391506e-05
1.41939655172414e+01 8.55393238865053e-03 8.92086329348308e-05
1.42577586206897e+01 8.50314698911125e-03 8.88780506729054e-05
1.43215517241379e+01 8.45266310667514e-03 8.85478070988987e-05
1.43853448275862e+01 8.40247895121013e-03 8.82179154030008e-05
1.44491379310345e+01 8.35259274321229e-03 8.78883885240986e-05
1.45129310344828e+01 8.30300271374278e-03 8.75592391537907e-05
1.45767241379310e+01 8.25370710436508e-03 8.72304797403171e-05
1.46405172413793e+01 8.20470416708268e-03 8.69021224924021e-05
1.47043103448276e+01 8.15599216427705e-03 8.65741793830480e-05
1.47681034482759e+01 8.10756936864605e-03 8.62466621532407e-05
1.48318965517241e+01 8.05943406314270e-03 8.59195823156534e-05
1.48956896551724e+01 8.01158454091418e-03 8.55929511581749e-05
1.49594827586207e+01 7.96401910524150e-03 8.52667797474492e-05
1.50232758620690e+01 7.91673606947920e-03 8.49410789324062e-05
1.50870689655172e+01 7.86973375699559e-03 8.46158593476290e-05
1.51508620689655e+01 7.82301050111330e-03 8.42911314167370e-05
1.52146551724138e+01 7.77656464505015e-03 8.39669053556725e-05
1.52784482758621e+01 7.73039454186040e-03 8.36431911759265e-05
1.53422413793103e+01 7.68449855437639e-03 8.33199986877524e-05
1.54060344827586e+01 7.63887505515046e-03 8.29973375032933e-05
1.54698275862069e+01 7.59352242639724e-03 8.26752170396587e-05
1.55336206896552e+01 7.54843905993627e-03 8.23536465219678e-05
1.55974137931034e+01 7.50362335713504e-03 8.20326349863244e-05
1.56612068965517e+01 7.45907372885220e-03 8.17121912827539e-05
1.57250000000000e+01 7.41478859538130e-03 8.13923242051845e-05
1.57887931034483e+01 7.37076638611688e-03 8.10730421111778e-05
1.58525862068966e+01 7.32700554033682e-03 8.07543531810127e-05
1.59163793103448e+01 7.28350450630444e-03 8.04362656792183e-05
1.59801724137931e+01 7.24026174149583e-03 8.01187875677328e-05
1.60439655172414e+01 7.19727571254520e-03 7.98019266390243e-05
1.61077586206897e+01 7.15454489519047e-03 7.94856905187085e-05
1.61715517241379e+01 7.11206777421924e-03 7.91700866681147e-05
1.62353448275862e+01 7.06984284341504e-03 7.88551223868087e-05
1.62991379310345e+01 7.02786860550394e-03 7.85408048150923e-05
1.63629310344828e+01 6.98614357210147e-03 7.82271409364521e-05
1.64267241379310e+01 6.94466626365979e-03 7.79141375799722e-05
1.64905172413793e+01 6.90343520941529e-03 7.76018014226939e-05
1.65543103448276e+01 6.86244894733639e-03 7.72901389919593e-05
1.66181034482759e+01 6.82170602407172e-03 7.69791566677064e-05
1.66818965517241e+01 6.78120499489858e-03 7.66688606847482e-05
1.67456896551724e+01 6.74094442367166e-03 7.63592571349685e-05
1.68094827586207e+01 6.70092288277223e-03 7.60503519694944e-05
1.68732758620690e+01 6.66113895305742e-03 7.57421510009018e-05
1.69370689655172e+01 6.62159122380995e-03 7.54346599053206e-05
1.70008620689655e+01 6.58227829268809e-03 7.51278842245174e-05
1.70646551724138e+01 6.54319876567593e-03 7.48218293679594e-05
1.71284482758621e+01 6.50435125703395e-03 7.45165006148392e-05
1.71922413793103e+01 6.46573438924986e-03 7.42119031160616e-05
1.72560344827586e+01 6.42734679298981e-03 7.39080418962094e-05
1.73198275862069e+01 6.38918710704978e-03 7.36049218554746e-05
1.73836206896552e+01 6.35125397830733e-03 7.33025477715658e-05
1.74474137931035e+01 6.31354606167364e-03 7.30009243015822e-05
1.75112068965517e+01 6.27606202004577e-03 7.27000559838517e-05
1.75750000000000e+01 6.23880052425930e-03 7.23999473409214e-05
1.76387931034483e+01 6.20176025283192e-03 7.21006025764381e-05
1.77025862068966e+01 6.16493989254757e-03 7.18020257808444e-05
1.77663793103448e+01 6.12833813777557e-03 7.15042211391139e-05
1.78301724137931e+01 6.09195369063688e-03 7.12071926224480e-05
1.78939655172414e+01 6.05578526095810e-03 7.09109440937698e-05
1.79577586206897e+01 6.01983156622567e-03 7.06154793093913e-05
1.80215517241379e+01 5.98409133154044e-03 7.03208019206443e-05
1.80853448275862e+01 5.94856328957244e-03 7.00269154754917e-05
1.81491379310345e+01 5.91324618051592e-03 6.97338234201080e-05
1.82129310344828e+01 5.87813875204474e-03 6.94415291004323e-05
1.82767241379310e+01 5.84323975926790e-03 6.91500357637150e-05
1.83405172413793e+01 5.80854796468543e-03 6.88593465600365e-05
1.84043103448276e+01 5.77406213814449e-03 6.85694645437910e-05
1.84681034482759e+01 5.73978105679579e-03 6.82803926751573e-05
1.85318965517241e+01 5.70570350505017e-03 6.79921338215691e-05
1.85956896551724e+01 5.67182827453550e-03 6.77046907590973e-05
1.86594827586207e+01 5.63815416405390e-03 6.74180661738611e-05
1.87232758620690e+01 5.60467997953908e-03 6.71322626634567e-05
1.87870689655172e+01 5.57140453401405e-03 6.68472827382966e-05
1.88508620689655e+01 5.53832664754898e-03 6.65631288229444e-05
1.89146551724138e+01 5.50544514721938e-03 6.62798032574507e-05
1.89784482758621e+01 5.47275886706454e-03 6.59973082986605e-05
1.90422413793103e+01 5.44026664804613e-03 6.57156461214959e-05
1.91060344827586e+01 5.40796733800712e-03 6.54348188202196e-05
1.91698275862069e+01 5.37585979163096e-03 6.51548284096882e-05
1.92336206896552e+01 5.34394287040092e-03 6.48756768265838e-05
1.92974137931034e+01 5.31221544255975e-03 6.45973659306275e-05
1.93612068965517e+01 5.28067638306952e-03 6.43198975057714e-05
1.94250000000000e+01 5.24932457357178e-03 6.40432733423576e-05
1.94887931034483e+01 5.21815890218852e-03 6.37674949942362e-05
1.95525862068966e+01 5.18717826396317e-03 6.34925639431173e-05
1.96163793103448e+01 5.15638156033856e-03 6.32184817645878e-05
1.96801724137931e+01 5.12576769927975e-03 6.29452498810999e-05
1.97439655172414e+01 5.09533559523528e-03 6.26728696461596e-05
1.98077586206897e+01 5.06508416909874e-03 6.24013423454052e-05
1.98715517241379e+01 5.03501234817044e-03 6.21306691976723e-05
1.99353448275862e+01 5.00511906611940e-03 6.18608513560477e-05
1.99991379310345e+01 4.97540326294554e-03 6.15918899088935e-05
2.00629310344828e+01 4.94586388494208e-03 6.13237858808751e-05
2.01267241379310e+01 4.91649988465819e-03 6.10565402339607e-05
