Energy (eV)          EEDF (eV^-(3/2))     First Anisotropy
2.56250000000000e-02 4.70253514924937e-02 2.35897773591753e-05
7.68750000000000e-02 4.67359455797627e-02 3.89645539182307e-05
1.28125000000000e-01 4.64483207442342e-02 5.14671112443796e-05
1.79375000000000e-01 4.61624660247219e-02 6.09833725994291e-05
2.30625000000000e-01 4.58783705274867e-02 6.89349434849704e-05
2.81875000000000e-01 4.55960234258302e-02 7.58587470932649e-05
3.33125000000000e-01 4.53154139596841e-02 8.20323633908820e-05
3.84375000000000e-01 4.50365314352000e-02 8.76232508116135e-05
4.35625000000000e-01 4.47593652243419e-02 9.27423632885931e-05
4.86875000000000e-01 4.44839047644817e-02 9.74680452764274e-05
5.38125000000000e-01 4.42101395579960e-02 1.01858235740728e-04
5.89375000000000e-01 4.39380591718667e-02 1.05957322613161e-04
6.40625000000000e-01 4.36676532372829e-02 1.09800273839130e-04
6.91875000000000e-01 4.33989114492462e-02 1.13415266766941e-04
7.43125000000000e-01 4.31318235661776e-02 1.16825436388085e-04
7.94375000000000e-01 4.28663794095274e-02 1.20050080023239e-04
8.45625000000000e-01 4.26025688633873e-02 1.23105512621445e-04
8.96875000000000e-01 4.23403818741049e-02 1.26005689595496e-04
9.48125000000000e-01 4.20798084499003e-02 1.28762670375638e-04
9.99375000000000e-01 4.18208386604859e-02 1.31386970023471e-04
1.05062500000000e+00 4.15634626366874e-02 1.33887830418699e-04
1.10187500000000e+00 4.13076705700677e-02 1.36273432524759e-04
1.15312500000000e+00 4.10534527125538e-02 1.38551064737000e-04
1.20437500000000e+00 4.08007993760643e-02 1.40727257987467e-04
1.25562500000000e+00 4.05497009321410e-02 1.42807895334490e-04
1.30687500000000e+00 4.03001478115815e-02 1.44798301721288e-04
1.35812500000000e+00 4.00521305040749e-02 1.46703318144714e-04
1.40937500000000e+00 3.98056395578389e-02 1.48527363439843e-04
1.46062500000000e+00 3.95606655792602e-02 1.50274486132558e-04
1.51187500000000e+00 3.93171992325358e-02 1.51948408256506e-04
1.56312500000000e+00 3.90752312393178e-02 1.53552562615628e-04
1.61437500000000e+00 3.88347523783596e-02 1.55090124660183e-04
1.66562500000000e+00 3.85957534851645e-02 1.56564039904988e-04
1.71687500000000e+00 3.83582254516363e-02 1.57977047634390e-04
1.76812500000000e+00 3.81221592257324e-02 1.59331701495368e-04
1.81937500000000e+00 3.78875458111188e-02 1.60630387467804e-04
1.87062500000000e+00 3.76543762668273e-02 1.61875339612309e-04
1.92187500000000e+00 3.74226417069144e-02 1.63068653925397e-04
1.97312500000000e+00 3.71923333001232e-02 1.64212300575254e-04
2.02437500000000e+00 3.69634422695464e-02 1.65308134745645e-04
2.07562500000000e+00 3.67359598922923e-02 1.66357906278624e-04
2.12687500000000e+00 3.65098774991518e-02 1.67363268276286e-04
2.17812500000000e+00 3.62851864742683e-02 1.68325784797051e-04
2.22937500000000e+00 3.60618782548096e-02 1.69246937761613e-04
2.28062500000000e+00 3.58399443306412e-02 1.70128133166590e-04
2.33187500000000e+00 3.56193762440020e-02 1.70970706689744e-04
2.38312500000000e+00 3.54001655891824e-02 1.71775928758930e-04
2.43437500000000e+00 3.51823040122033e-02 1.72545009146959e-04
2.48562500000000e+00 3.49657832104985e-02 1.73279101146025e-04
2.53687500000000e+00 3.47505949325974e-02 1.73979305368499e-04
2.58812500000000e+00 3.45367309778116e-02 1.74646673214614e-04
2.63937500000000e+00 3.43241831959213e-02 1.75282210042557e-04
2.69062500000000e+00 3.41129434868656e-02 1.75886878072057e-04
2.74187500000000e+00 3.39030038004332e-02 1.76461599048673e-04
2.79312500000000e+00 3.36943561359560e-02 1.77007256692900e-04
2.84437500000000e+00 3.34869925420038e-02 1.77524698955216e-04
2.89562500000000e+00 3.32809051160818e-02 1.78014740095824e-04
2.94687500000000e+00 3.30760860043289e-02 1.78478162605784e-04
2.99812500000000e+00 3.28725274012188e-02 1.78915718984297e-04
3.04937500000000e+00 3.26702215492624e-02 1.79328133385284e-04
3.10062500000000e+00 3.24691607387120e-02 1.79716103145041e-04
3.15187500000000e+00 3.22693373072678e-02 1.80080300201482e-04
3.20312500000000e+00 3.20707436397856e-02 1.80421372414419e-04
3.25437500000000e+00 3.18733721679869e-02 1.80739944795349e-04
3.30562500000000e+00 3.16772153701700e-02 1.81036620654306e-04
3.35687500000000e+00 3.14822657709241e-02 1.81311982670679e-04
3.40812500000000e+00 3.12885159408435e-02 1.81566593894230e-04
3.45937500000000e+00 3.10959584962452e-02 1.81800998681813e-04
3.51062500000000e+00 3.09045860988873e-02 1.82015723574996e-04
3.56187500000000e+00 3.07143914556892e-02 1.82211278123096e-04
3.61312500000000e+00 3.05253673184537e-02 1.82388155655757e-04
3.66437500000000e+00 3.03375064835909e-02 1.82546834009079e-04
3.71562500000000e+00 3.01508017918437e-02 1.82687776208549e-04
3.76687500000000e+00 2.99652461280147e-02 1.82811431112017e-04
3.81812500000000e+00 2.97808324206955e-02 1.82918234015664e-04
3.86937500000000e+00 2.95975536419967e-02 1.83008607225474e-04
3.92062500000000e+00 2.94154028072803e-02 1.83082960596740e-04
3.97187500000000e+00 2.92343729748937e-02 1.83141692043792e-04
4.02312500000000e+00 2.90544572459048e-02 1.83185188021973e-04
4.07437500000000e+00 2.88756487638395e-02 1.83213823983703e-04
4.12562500000000e+00 2.86979407144199e-02 1.83227964810417e-04
4.17687500000000e+00 2.85213263253051e-02 1.83227965221967e-04
4.22812500000000e+00 2.83457988658329e-02 1.83214170164859e-04
4.27937500000000e+00 2.81713516467632e-02 1.83186915180783e-04
4.33062500000000e+00 2.79979780200231e-02 1.83146526756625e-04
4.38187500000000e+00 2.78256713784538e-02 1.83093322657142e-04
4.43312500000000e+00 2.76544251555586e-02 1.83027612241357e-04
4.48437500000000e+00 2.74842328252527e-02 1.82949696763652e-04
4.53562500000000e+00 2.73150879016143e-02 1.82859869660524e-04
4.58687500000000e+00 2.71469839386377e-02 1.82758416823815e-04
4.63812500000000e+00 2.69799145299877e-02 1.82645616861238e-04
4.68937500000000e+00 2.68138733087551e-02 1.82521741344901e-04
4.74062500000000e+00 2.66488539472144e-02 1.82387055048563e-04
4.79187500000000e+00 2.64848501565824e-02 1.82241816174238e-04
4.84312500000000e+00 2.63218556867788e-02 1.82086276568735e-04
4.89437500000000e+00 2.61598643261878e-02 1.81920681930726e-04
4.94562500000000e+00 2.59988699014215e-02 1.81745272008818e-04
4.99687500000000e+00 2.58388662770846e-02 1.81560280791158e-04
5.04812500000000e+00 2.56798473555404e-02 1.81365936686986e-04
5.09937500000000e+00 2.55218070766788e-02 1.81162462700582e-04
5.15062500000000e+00 2.53647394176851e-02 1.80950076598054e-04
5.20187500000000e+00 2.52086383928106e-02 1.80728991067222e-04
5.25312500000000e+00 2.50534980531441e-02 1.80499413871100e-04
5.30437500000000e+00 2.48993124863860e-02 1.80261547995178e-04
5.35562500000000e+00 2.47460758166220e-02 1.80015591788836e-04
5.40687500000000e+00 2.45937822041000e-02 1.79761739101289e-04
5.45812500000000e+00 2.44424258450071e-02 1.79500179412211e-04
5.50937500000000e+00 2.42920009712484e-02 1.79231097957325e-04
5.56062500000000e+00 2.41425018502276e-02 1.78954675849227e-04
5.61187500000000e+00 2.39939227846280e-02 1.78671090193704e-04
5.66312500000000e+00 2.38462581121958e-02 1.78380514201657e-04
5.71437500000000e+00 2.36995022055240e-02 1.78083117296923e-04
5.76562500000000e+00 2.35536494718381e-02 1.77779065220179e-04
5.81687500000000e+00 2.34086943527831e-02 1.77468520129068e-04
5.86812500000000e+00 2.32646313242113e-02 1.77151640694743e-04
5.91937500000000e+00 2.31214548959723e-02 1.76828582194971e-04
5.97062500000000e+00 2.29791596117031e-02 1.76499496604013e-04
6.02187500000000e+00 2.28377400486209e-02 1.76164532679335e-04
6.07312500000000e+00 2.26971908173158e-02 1.75823836045351e-04
6.12437500000000e+00 2.25575065615459e-02 1.75477549274312e-04
6.17562500000000e+00 2.24186819580329e-02 1.75125811964446e-04
6.22687500000000e+00 2.22807117162591e-02 1.74768760815490e-04
6.27812500000000e+00 2.21435905782663e-02 1.74406529701713e-04
6.32937500000000e+00 2.20073133184550e-02 1.74039249742522e-04
6.38062500000000e+00 2.18718747433852e-02 1.73667049370792e-04
6.43187500000000e+00 2.17372696915789e-02 1.73290054398973e-04
6.48312500000000e+00 2.16034930333229e-02 1.72908388083094e-04
6.53437500000000e+00 2.14705396704738e-02 1.72522171184706e-04
6.58562500000000e+00 2.13384045362633e-02 1.72131522030900e-04
6.63687500000000e+00 2.12070825951052e-02 1.71736556572446e-04
6.68812500000000e+00 2.10765688424038e-02 1.71337388440127e-04
6.73937500000000e+00 2.09468583043627e-02 1.70934128999365e-04
6.79062500000000e+00 2.08179460377958e-02 1.70526887403146e-04
6.84187500000000e+00 2.06898271299383e-02 1.70115770643417e-04
6.89312500000000e+00 2.05624966982600e-02 1.69700883600867e-04
6.94437500000000e+00 2.04359498902790e-02 1.69282329093263e-04
6.99562500000000e+00 2.03101818833767e-02 1.68860207922390e-04
7.04687500000000e+00 2.01851878846142e-02 1.68434618919577e-04
7.09812500000000e+00 2.00609631305496e-02 1.68005658989953e-04
7.14937500000000e+00 1.99375028870564e-02 1.67573423155365e-04
7.20062500000000e+00 1.98148024491430e-02 1.67138004596141e-04
7.25187500000000e+00 1.96928571407735e-02 1.66699494691634e-04
7.30312500000000e+00 1.95716623146899e-02 1.66257983059602e-04
7.35437500000000e+00 1.94512133522340e-02 1.65813557594585e-04
7.40562500000000e+00 1.93315056631725e-02 1.65366304505138e-04
7.45687500000000e+00 1.92125346855213e-02 1.64916308350041e-04
7.50812500000000e+00 1.90942958853719e-02 1.64463652073569e-04
7.55937500000000e+00 1.89767847567187e-02 1.64008417039778e-04
7.61062500000000e+00 1.88599968212872e-02 1.63550683065893e-04
7.66187500000000e+00 1.87439276283634e-02 1.63090528454766e-04
7.71312500000000e+00 1.86285727546238e-02 1.62628030026536e-04
7.76437500000000e+00 1.85139278039676e-02 1.62163263149410e-04
7.81562500000000e+00 1.83999884073484e-02 1.61696301769645e-04
7.86687500000000e+00 1.82867502226082e-02 1.61227218440794e-04
7.91812500000000e+00 1.81742089343116e-02 1.60756084352152e-04
7.96937500000000e+00 1.80623602535815e-02 1.60282969356494e-04
8.02062500000000e+00 1.79511999179357e-02 1.59807941997116e-04
8.07187500000000e+00 1.78407236911243e-02 1.59331069534197e-04
8.12312500000000e+00 1.77309273629686e-02 1.58852417970487e-04
8.17437500000000e+00 1.76218067492001e-02 1.58372052076352e-04
8.22562500000000e+00 1.75133576913014e-02 1.57890035414250e-04
8.27687500000000e+00 1.74055760563479e-02 1.57406430362539e-04
8.32812500000000e+00 1.72984577368498e-02 1.56921298138744e-04
8.37937500000000e+00 1.71919986505960e-02 1.56434698822256e-04
8.43062500000000e+00 1.70861947404983e-02 1.55946691376489e-04
8.48187500000000e+00 1.69810419744368e-02 1.55457333670498e-04
8.53312500000000e+00 1.68765363451063e-02 1.54966682500077e-04
8.58437500000000e+00 1.67726738698637e-02 1.54474793608391e-04
8.63562500000000e+00 1.66694505905759e-02 1.53981721706086e-04
8.68687500000000e+00 1.65668625734693e-02 1.53487520490937e-04
8.73812500000000e+00 1.64649059089797e-02 1.52992242667075e-04
8.78937500000000e+00 1.63635767116033e-02 1.52495939963742e-04
8.84062500000000e+00 1.62628711197487e-02 1.51998663153599e-04
8.89187500000000e+00 1.61627852955897e-02 1.51500462070666e-04
8.94312500000000e+00 1.60633154249192e-02 1.51001385627822e-04
8.99437500000000e+00 1.59644577170034e-02 1.50501481833934e-04
9.04562500000000e+00 1.58662084044379e-02 1.50000797810579e-04
9.09687500000000e+00 1.57685637430037e-02 1.49499379808374e-04
9.14812500000000e+00 1.56715200115247e-02 1.48997273223022e-04
9.19937500000000e+00 1.55750735117260e-02 1.48494522610940e-04
9.25062500000000e+00 1.54792205680927e-02 1.47991171704565e-04
9.30187500000000e+00 1.53839575277299e-02 1.47487263427326e-04
9.35312500000000e+00 1.52892807602236e-02 1.46982839908297e-04
9.40437500000000e+00 1.51951866575023e-02 1.46477942496523e-04
9.45562500000000e+00 1.51016716336995e-02 1.45972611775059e-04
9.50687500000000e+00 1.50087321250169e-02 1.45466887574694e-04
9.55812500000000e+00 1.49163645895890e-02 1.44960808987385e-04
9.60937500000000e+00 1.48245655073475e-02 1.44454414379430e-04
9.66062500000000e+00 1.47333313798877e-02 1.43947741404334e-04
9.71187500000000e+00 1.46426587303349e-02 1.43440827015410e-04
9.76312500000000e+00 1.45525441032120e-02 1.42933707478155e-04
9.81437500000000e+00 1.44629840643077e-02 1.42426418382343e-04
9.86562500000000e+00 1.43739752005458e-02 1.41918994653863e-04
9.91687500000000e+00 1.42855141198551e-02 1.41411470566315e-04
9.96812500000000e+00 1.41975974510398e-02 1.40903879752412e-04
1.00193750000000e+01 1.41102218436516e-02 1.40396255215109e-04
1.00706250000000e+01 1.40233839678614e-02 1.39888629338495e-04
1.01218750000000e+01 1.39370805143331e-02 1.39381033898508e-04
1.01731250000000e+01 1.38513081940966e-02 1.38873500073442e-04
1.02243750000000e+01 1.37660637384235e-02 1.38366058454189e-04
1.02756250000000e+01 1.36813438987015e-02 1.37858739054335e-04
1.03268750000000e+01 1.35971454463113e-02 1.37351571320038e-04
1.03781250000000e+01 1.35134651725034e-02 1.36844584139679e-04
1.04293750000000e+01 1.34302998882756e-02 1.36337805853392e-04
1.04806250000000e+01 1.33476464242518e-02 1.35831264262371e-04
1.05318750000000e+01 1.32655016305609e-02 1.35324986637987e-04
1.05831250000000e+01 1.31838623767170e-02 1.34818999730740e-04
1.06343750000000e+01 1.31027255514998e-02 1.34313329779055e-04
1.06856250000000e+01 1.30220880628366e-02 1.33808002517911e-04
1.07368750000000e+01 1.29419468376838e-02 1.33303043187262e-04
1.07881250000000e+01 1.28622988219101e-02 1.32798476540349e-04
1.08393750000000e+01 1.27831409801802e-02 1.32294326851836e-04
1.08906250000000e+01 1.27044702958391e-02 1.31790617925802e-04
1.09418750000000e+01 1.26262837707969e-02 1.31287373103560e-04
1.09931250000000e+01 1.25485784254148e-02 1.30784615271362e-04
1.10443750000000e+01 1.24713512983913e-02 1.30282366867946e-04
1.10956250000000e+01 1.23945994466497e-02 1.29780649891936e-04
1.11468750000000e+01 1.23183199452256e-02 1.29279485909132e-04
1.11981250000000e+01 1.22425098871557e-02 1.28778896059634e-04
1.12493750000000e+01 1.21671663833667e-02 1.28278901064857e-04
1.13006250000000e+01 1.20922865625655e-02 1.27779521234421e-04
1.13518750000000e+01 1.20178675711298e-02 1.27280776472906e-04
1.14031250000000e+01 1.19439065729989e-02 1.26782686286481e-04
1.14543750000000e+01 1.18704007495663e-02 1.26285269789414e-04
1.15056250000000e+01 1.17973472995715e-02 1.25788545710504e-04
1.15568750000000e+01 1.17247434389940e-02 1.25292532399365e-04
1.16081250000000e+01 1.16525864009468e-02 1.24797247832567e-04
1.16593750000000e+01 1.15808734355710e-02 1.24302709619730e-04
1.17106250000000e+01 1.15096018099308e-02 1.23808935009479e-04
1.17618750000000e+01 1.14387688079101e-02 1.23315940895287e-04
1.18131250000000e+01 1.13683717301079e-02 1.22823743821259e-04
1.18643750000000e+01 1.12984078937363e-02 1.22332359987753e-04
1.19156250000000e+01 1.12288746325180e-02 1.21841805256935e-04
1.19668750000000e+01 1.11597692965845e-02 1.21352095158257e-04
1.20181250000000e+01 1.10910892523753e-02 1.20863244893820e-04
1.20693750000000e+01 1.10228318825375e-02 1.20375269343620e-04
1.21206250000000e+01 1.09549945858261e-02 1.19888183070743e-04
1.21718750000000e+01 1.08875747770048e-02 1.19402000326475e-04
1.22231250000000e+01 1.08205698867473e-02 1.18916735055281e-04
1.22743750000000e+01 1.07539773615400e-02 1.18432400899734e-04
1.23256250000000e+01 1.06877946635839e-02 1.17949011205356e-04
1.23768750000000e+01 1.06220192706985e-02 1.17466579025376e-04
1.24281250000000e+01 1.05566486762252e-02 1.16985117125403e-04
1.24793750000000e+01 1.04916803889322e-02 1.16504637988024e-04
1.25306250000000e+01 1.04271119329193e-02 1.16025153817314e-04
1.25818750000000e+01 1.03629408475236e-02 1.15546676543292e-04
1.26331250000000e+01 1.02991646872258e-02 1.15069217826289e-04
1.26843750000000e+01 1.02357810215569e-02 1.14592789061239e-04
1.27356250000000e+01 1.01727874350057e-02 1.14117401381922e-04
1.27868750000000e+01 1.01101815269265e-02 1.13643065665118e-04
1.28381250000000e+01 1.00479609114479e-02 1.13169792534685e-04
1.28893750000000e+01 9.98612321738178e-03 1.12697592365582e-04
1.29406250000000e+01 9.92466608813285e-03 1.12226475287834e-04
1.29918750000000e+01 9.86358718160894e-03 1.11756451190416e-04
1.30431250000000e+01 9.80288417013167e-03 1.11287529725096e-04
1.30943750000000e+01 9.74255474034782e-03 1.10819720310187e-04
1.31456250000000e+01 9.68259659314110e-03 1.10353032134261e-04
1.31968750000000e+01 9.62300744354459e-03 1.09887474159781e-04
1.32481250000000e+01 9.56378502065361e-03 1.09423055126693e-04
1.32993750000000e+01 9.50492706753923e-03 1.08959783555972e-04
1.33506250000000e+01 9.44643134116220e-03 1.08497667753081e-04
1.34018750000000e+01 9.38829561228753e-03 1.08036715811385e-04
1.34531250000000e+01 9.33051766539948e-03 1.07576935615516e-04
1.35043750000000e+01 9.27309529861719e-03 1.07118334844688e-04
1.35556250000000e+01 9.21602632361069e-03 1.06660920975954e-04
1.36068750000000e+01 9.15930856551757e-03 1.06204701287405e-04
1.36581250000000e+01 9.10293986286007e-03 1.05749682861314e-04
1.37093750000000e+01 9.04691806746272e-03 1.05295872587260e-04
1.37606250000000e+01 8.99124104437045e-03 1.04843277165189e-04
1.38118750000000e+01 8.93590667176725e-03 1.04391903108403e-04
1.38631250000000e+01 8.88091284089531e-03 1.03941756746527e-04
1.39143750000000e+01 8.82625745597464e-03 1.03492844228433e-04
1.39656250000000e+01 8.77193843412321e-03 1.03045171525099e-04
1.40168750000000e+01 8.71795370527758e-03 1.02598744432430e-04
1.40681250000000e+01 8.66430121211400e-03 1.02153568574043e-04
1.41193750000000e+01 8.61097890997000e-03 1.01709649404016e-04
1.41706250000000e+01 8.55798476676650e-03 1.01266992209577e-04
1.42218750000000e+01 8.50531676293033e-03 1.00825602113736e-04
1.42731250000000e+01 8.45297289131732e-03 1.00385484077933e-04
1.43243750000000e+01 8.40095115713572e-03 9.99466429045971e-05
1.43756250000000e+01 8.34924957787027e-03 9.95090832396655e-05
1.44268750000000e+01 8.29786618320661e-03 9.90728095750911e-05
1.44781250000000e+01 8.24679901495618e-03 9.86378262513086e-05
1.45293750000000e+01 8.19604612698161e-03 9.82041374596361e-05
1.45806250000000e+01 8.14560558512256e-03 9.77717472446556e-05
1.46318750000000e+01 8.09547546712199e-03 9.73406595065751e-05
1.46831250000000e+01 8.04565386255292e-03 9.69108780035306e-05
1.47343750000000e+01 7.99613887274563e-03 9.64824063538553e-05
1.47856250000000e+01 7.94692861071528e-03 9.60552480383267e-05
1.48368750000000e+01 7.89802120109004e-03 9.56294064023769e-05
1.48881250000000e+01 7.84941478003954e-03 9.52048846582537e-05
1.49393750000000e+01 7.80110749520396e-03 9.47816858871769e-05
1.49906250000000e+01 7.75309750562332e-03 9.43598130414437e-05
1.50418750000000e+01 7.70538298166739e-03 9.39392689464926e-05
1.50931250000000e+01 7.65796210496595e-03 9.35200563029644e-05
1.51443750000000e+01 7.61083306833950e-03 9.31021776887120e-05
1.51956250000000e+01 7.56399407573035e-03 9.26856355607817e-05
1.52468750000000e+01 7.51744334213424e-03 9.22704322573736e-05
1.52981250000000e+01 7.47117909353225e-03 9.18565699997748e-05
1.53493750000000e+01 7.42519956682324e-03 9.14440508942504e-05
1.54006250000000e+01 7.37950300975663e-03 9.10328769339032e-05
1.54518750000000e+01 7.33408768086562e-03 9.06230500005253e-05
1.55031250000000e+01 7.28895184940088e-03 9.02145718664188e-05
1.55543750000000e+01 7.24409379526450e-03 8.98074441961792e-05
1.56056250000000e+01 7.19951180894452e-03 8.94016685484517e-05
1.56568750000000e+01 7.15520419144974e-03 8.89972463776679e-05
1.57081250000000e+01 7.11116925424498e-03 8.85941790357647e-05
1.57593750000000e+01 7.06740531918673e-03 8.81924677738624e-05
1.58106250000000e+01 7.02391071845921e-03 8.77921137439176e-05
1.58618750000000e+01 6.98068379451079e-03 8.73931180003663e-05
1.59131250000000e+01 6.93772289999084e-03 8.69954815017326e-05
1.59643750000000e+01 6.89502639768693e-03 8.65992051122262e-05
1.60156250000000e+01 6.85259266046247e-03 8.62042896033008e-05
1.60668750000000e+01 6.81042007119467e-03 8.58107356551881e-05
1.61181250000000e+01 6.76850702271291e-03 8.54185438584275e-05
1.61693750000000e+01 6.72685191773753e-03 8.50277147153616e-05
