Energy (eV)          EEDF (eV^-(3/2))     First Anisotropy
2.19565217391304e-02 2.24925985929541e-01 1.74955407447770e-04
6.58695652173913e-02 2.21563657827954e-01 2.87708993260035e-04
1.09782608695652e-01 2.18251591817060e-01 3.76663407610829e-04
1.53695652173913e-01 2.14989036560086e-01 4.42359121670951e-04
1.97608695652174e-01 2.11775251919020e-01 4.95613220076852e-04
2.41521739130435e-01 2.08609508858754e-01 5.40566382803986e-04
2.85434782608696e-01 2.05491089211667e-01 5.79386674442618e-04
3.29347826086957e-01 2.02419285570494e-01 6.13398274437861e-04
3.73260869565217e-01 1.99393401081758e-01 6.43489192222515e-04
4.17173913043478e-01 1.96412749326952e-01 6.70293896611561e-04
4.61086956521739e-01 1.93476654132781e-01 6.94287055463691e-04
5.05000000000000e-01 1.90584449447759e-01 7.15836442933525e-04
5.48913043478261e-01 1.87735479164412e-01 7.35234981201597e-04
5.92826086956522e-01 1.84929096994453e-01 7.52721233566585e-04
6.36739130434783e-01 1.82164666300412e-01 7.68493096633750e-04
6.80652173913043e-01 1.79441559971060e-01 7.82717281274093e-04
7.24565217391304e-01 1.76759160260950e-01 7.95536077357999e-04
7.68478260869565e-01 1.74116858667054e-01 8.07072304153810e-04
8.12391304347826e-01 1.71514055775195e-01 8.17433013509690e-04
8.56304347826087e-01 1.68950161138498e-01 8.26712312860268e-04
9.00217391304348e-01 1.66424593129996e-01 8.34993553941172e-04
9.44130434782609e-01 1.63936778823262e-01 8.42351054702571e-04
9.88043478260869e-01 1.61486153850655e-01 8.48851472373503e-04
1.03195652173913e+00 1.59072162286360e-01 8.54554910352028e-04
1.07586956521739e+00 1.56694256518541e-01 8.59515825373176e-04
1.11978260869565e+00 1.54351897093580e-01 8.63783765078456e-04
1.16369565217391e+00 1.52044552664994e-01 8.67403989219498e-04
1.20760869565217e+00 1.49771699806598e-01 8.70417993693267e-04
1.25152173913043e+00 1.47532822899461e-01 8.72863936494079e-04
1.29543478260870e+00 1.45327414068980e-01 8.74777014896894e-04
1.33934782608696e+00 1.43154973013530e-01 8.76189788202350e-04
1.38326086956522e+00 1.41015006895336e-01 8.77132441114444e-04
1.42717391304348e+00 1.38907030275277e-01 8.77633025439572e-04
1.47108695652174e+00 1.36830564954595e-01 8.77717670412100e-04
1.51500000000000e+00 1.34785139869850e-01 8.77410753420915e-04
1.55891304347826e+00 1.32770291026622e-01 8.76735063854396e-04
1.60282608695652e+00 1.30785561340151e-01 8.75711941148874e-04
1.64673913043478e+00 1.28830500583963e-01 8.74361396392477e-04
1.69065217391304e+00 1.26904665248692e-01 8.72702227381687e-04
1.73456521739130e+00 1.25007618444028e-01 8.70752108288007e-04
1.77847826086957e+00 1.23138929832958e-01 8.68527681103914e-04
1.82239130434783e+00 1.21298175499854e-01 8.66044637767336e-04
1.86630434782609e+00 1.19484937856496e-01 8.63317783469092e-04
1.91021739130435e+00 1.17698805576827e-01 8.60361104156477e-04
1.95413043478261e+00 1.15939373473318e-01 8.57187827660641e-04
1.99804347826087e+00 1.14206242406949e-01 8.53810469389670e-04
2.04195652173913e+00 1.12499019222880e-01 8.50240883467069e-04
2.08586956521739e+00 1.10817316634289e-01 8.46490309363771e-04
2.12978260869565e+00 1.09160753136181e-01 8.42569405483348e-04
2.17369565217391e+00 1.07528952942247e-01 8.38488288777435e-04
2.21760869565217e+00 1.05921545875561e-01 8.34256571094066e-04
2.26152173913043e+00 1.04338167285998e-01 8.29883384234745e-04
2.30543478260870e+00 1.02778457988554e-01 8.25377411242464e-04
2.34934782608696e+00 1.01242064160293e-01 8.20746915273952e-04
2.39326086956522e+00 9.97286372612647e-02 8.15999758521627e-04
2.43717391304348e+00 9.82378339744166e-02 8.11143427350674e-04
2.48108695652174e+00 9.67693161082946e-02 8.06185055613035e-04
2.52500000000000e+00 9.53227505213420e-02 8.01131439075726e-04
2.56891304347826e+00 9.38978090634880e-02 7.95989056657015e-04
2.61282608695652e+00 9.24941684788503e-02 7.90764086577065e-04
2.65673913043478e+00 9.11115103546690e-02 7.85462421127086e-04
2.70065217391304e+00 8.97495210324379e-02 7.80089684366419e-04
2.74456521739130e+00 8.84078915375861e-02 7.74651241392656e-04
2.78847826086957e+00 8.70863175241703e-02 7.69152213399616e-04
2.83239130434783e+00 8.57844991907334e-02 7.63597491780566e-04
2.87630434782609e+00 8.45021412130481e-02 7.57991745299942e-04
2.92021739130435e+00 8.32389526905687e-02 7.52339432783547e-04
2.96413043478261e+00 8.19946470666991e-02 7.46644815032518e-04
3.00804347826087e+00 8.07689420644694e-02 7.40911960381793e-04
3.05195652173913e+00 7.95615596347606e-02 7.35144755499239e-04
3.09586956521739e+00 7.83722258806949e-02 7.29346915544391e-04
3.13978260869565e+00 7.72006709961227e-02 7.23521988475195e-04
3.18369565217391e+00 7.60466292156129e-02 7.17673364315805e-04
3.22760869565217e+00 7.49098387427219e-02 7.11804283893499e-04
3.27152173913043e+00 7.37900416911492e-02 7.05917842165790e-04
3.31543478260870e+00 7.26869840364960e-02 7.00016996233053e-04
3.35934782608696e+00 7.16004155481683e-02 6.94104572910880e-04
3.40326086956522e+00 7.05300897330930e-02 6.88183271284531e-04
3.44717391304348e+00 6.94757637892178e-02 6.82255669684226e-04
3.49108695652174e+00 6.84371985408325e-02 6.76324232292277e-04
3.53500000000000e+00 6.74141583847369e-02 6.70391311084779e-04
3.57891304347826e+00 6.64064112454519e-02 6.64459152382139e-04
3.62282608695652e+00 6.54137285110476e-02 6.58529900879017e-04
3.66673913043478e+00 6.44358849925452e-02 6.52605603307972e-04
3.71065217391304e+00 6.34726588644137e-02 6.46688214275637e-04
3.75456521739130e+00 6.25238316146124e-02 6.40779597421379e-04
3.79847826086956e+00 6.15891880026340e-02 6.34881530391572e-04
3.84239130434783e+00 6.06685160029248e-02 6.28995709568734e-04
3.88630434782609e+00 5.97616067571212e-02 6.23123750895099e-04
3.93021739130435e+00 5.88682545336875e-02 6.17267194292304e-04
3.97413043478261e+00 5.79882566740959e-02 6.11427507865221e-04
4.01804347826087e+00 5.71214135471634e-02 6.05606088456314e-04
4.06195652173913e+00 5.62675285102400e-02 5.99804265589097e-04
4.10586956521739e+00 5.54264078580007e-02 5.94023305220313e-04
4.14978260869565e+00 5.45978607787888e-02 5.88264410077928e-04
4.19369565217391e+00 5.37816993173117e-02 5.82528723192175e-04
4.23760869565217e+00 5.29777383259080e-02 5.76817331258084e-04
4.28152173913043e+00 5.21857954228030e-02 5.71131264799394e-04
4.32543478260870e+00 5.14056909562724e-02 5.65471501340012e-04
4.36934782608696e+00 5.06372479582509e-02 5.59838968428377e-04
4.41326086956522e+00 4.98802921044178e-02 5.54234543661156e-04
4.45717391304348e+00 4.91346516797821e-02 5.48659057540609e-04
4.50108695652174e+00 4.84001575345099e-02 5.43113296203112e-04
4.54500000000000e+00 4.76766430457609e-02 5.37598001330338e-04
4.58891304347826e+00 4.69639440846478e-02 5.32113873006370e-04
4.63282608695652e+00 4.62618989726708e-02 5.26661571080075e-04
4.67673913043478e+00 4.55703484512403e-02 5.21241716367724e-04
4.72065217391304e+00 4.48891356409133e-02 5.15854893276804e-04
4.76456521739130e+00 4.42181060059873e-02 5.10501649565721e-04
4.80847826086957e+00 4.35571073236766e-02 5.05182498543650e-04
4.85239130434783e+00 4.29059896452770e-02 4.99897921174256e-04
4.89630434782609e+00 4.22646052623193e-02 4.94648365775399e-04
4.94021739130435e+00 4.16328086769926e-02 4.89434250020760e-04
4.98413043478261e+00 4.10104565651402e-02 4.84255962853574e-04
5.02804347826087e+00 4.03974077439035e-02 4.79113864139487e-04
5.07195652173913e+00 3.97935231433494e-02 4.74008286491476e-04
5.11586956521739e+00 3.91986657712040e-02 4.68939537014201e-04
5.15978260869565e+00 3.86127006819230e-02 4.63907896920917e-04
5.20369565217391e+00 3.80354949494778e-02 4.58913623199911e-04
5.24760869565217e+00 3.74669176337442e-02 4.53956950207868e-04
5.29152173913043e+00 3.69068397509313e-02 4.49038089259797e-04
5.33543478260870e+00 3.63551342474884e-02 4.44157230152697e-04
5.37934782608696e+00 3.58116759680638e-02 4.39314542623829e-04
5.42326086956522e+00 3.52763416272354e-02 4.34510175920915e-04
5.46717391304348e+00 3.47490097844936e-02 4.29744260197393e-04
5.51108695652174e+00 3.42295608136955e-02 4.25016907849100e-04
5.55500000000000e+00 3.37178768760382e-02 4.20328213070740e-04
5.59891304347826e+00 3.32138418960788e-02 4.15678253311827e-04
5.64282608695652e+00 3.27173415317406e-02 4.11067089795130e-04
5.68673913043478e+00 3.22282631519633e-02 4.06494767949275e-04
5.73065217391304e+00 3.17464958084693e-02 4.01961318766780e-04
5.77456521739130e+00 3.12719302106923e-02 3.97466758341957e-04
5.81847826086956e+00 3.08044587034520e-02 3.93011088985631e-04
5.86239130434783e+00 3.03439752400274e-02 3.88594300293546e-04
5.90630434782609e+00 2.98903753581917e-02 3.84216368682528e-04
5.95021739130435e+00 2.94435561588181e-02 3.79877258416717e-04
5.99413043478261e+00 2.90034162801973e-02 3.75576922590653e-04
6.03804347826087e+00 2.85698558751307e-02 3.71315302666565e-04
6.08195652173913e+00 2.81427765904297e-02 3.67092329420174e-04
6.12586956521739e+00 2.77220815424193e-02 3.62907923846192e-04
6.16978260869565e+00 2.73076752950409e-02 3.58761996699209e-04
6.21369565217391e+00 2.68994638402116e-02 3.54654449365913e-04
6.25760869565217e+00 2.64973545744570e-02 3.50585174700202e-04
6.30152173913043e+00 2.61012562779784e-02 3.46554056569602e-04
6.34543478260870e+00 2.57110790958387e-02 3.42560970660033e-04
6.38934782608696e+00 2.53267345156702e-02 3.38605785246953e-04
6.43326086956522e+00 2.49481353476637e-02 3.34688360748775e-04
6.47717391304348e+00 2.45751957065481e-02 3.30808550469977e-04
6.52108695652174e+00 2.42078309903222e-02 3.26966201313735e-04
6.56500000000000e+00 2.38459578611257e-02 3.23161153343589e-04
6.60891304347826e+00 2.34894942279797e-02 3.19393240585053e-04
6.65282608695652e+00 2.31383592259736e-02 3.15662291223348e-04
6.69673913043478e+00 2.27924732000699e-02 3.11968127750423e-04
6.74065217391304e+00 2.24517576854269e-02 3.08310567719492e-04
6.78456521739130e+00 2.21161353896557e-02 3.04689423319004e-04
6.82847826086956e+00 2.17855301767684e-02 3.01104501977823e-04
6.87239130434783e+00 2.14598670484025e-02 2.97555606945635e-04
6.91630434782609e+00 2.11390721268597e-02 2.94042536877601e-04
6.96021739130435e+00 2.08230726397359e-02 2.90565086394956e-04
7.00413043478261e+00 2.05117969020028e-02 2.87123046622276e-04
7.04804347826087e+00 2.02051742997954e-02 2.83716204783239e-04
7.09195652173913e+00 1.99031352756949e-02 2.80344344720234e-04
7.13586956521739e+00 1.96056113116283e-02 2.77007247391955e-04
7.17978260869565e+00 1.93125349133709e-02 2.73704690480608e-04
7.22369565217391e+00 1.90238395964562e-02 2.70436448873637e-04
7.26760869565217e+00 1.87394598698544e-02 2.67202295125010e-04
7.31152173913043e+00 1.84593312211587e-02 2.64001999074034e-04
7.35543478260869e+00 1.81833901030960e-02 2.60835328291988e-04
7.39934782608696e+00 1.79115739179486e-02 2.57702048510078e-04
7.44326086956522e+00 1.76438210033944e-02 2.54601923249984e-04
7.48717391304348e+00 1.73800706195925e-02 2.51534714238096e-04
7.53108695652174e+00 1.71202629343147e-02 2.48500181802715e-04
7.57500000000000e+00 1.68643390094094e-02 2.45498084516342e-04
7.61891304347826e+00 1.66122407884398e-02 2.42528179655738e-04
7.66282608695652e+00 1.63639110821716e-02 2.39590223266800e-04
7.70673913043478e+00 1.61192935569170e-02 2.36683970198086e-04
7.75065217391304e+00 1.58783327207698e-02 2.33809174536441e-04
7.79456521739130e+00 1.56409739110503e-02 2.30965589266692e-04
7.83847826086956e+00 1.54071632828173e-02 2.28152966612474e-04
7.88239130434783e+00 1.51768477957278e-02 2.25371058362988e-04
7.92630434782609e+00 1.49499752020362e-02 2.22619615544343e-04
7.97021739130435e+00 1.47264940355986e-02 2.19898388736332e-04
8.01413043478261e+00 1.45063535993284e-02 2.17207128375866e-04
8.05804347826087e+00 1.42895039537247e-02 2.14545584439771e-04
8.10195652173913e+00 1.40758959063491e-02 2.11913506739293e-04
8.14586956521739e+00 1.38654809998490e-02 2.09310645201948e-04
8.18978260869565e+00 1.36582115009929e-02 2.06736749565604e-04
8.23369565217391e+00 1.34540403905984e-02 2.04191569652266e-04
8.27760869565217e+00 1.32529213520985e-02 2.01674855630045e-04
8.32152173913043e+00 1.30548087610603e-02 1.99186357718282e-04
8.36543478260869e+00 1.28596576755463e-02 1.96725826442034e-04
8.40934782608696e+00 1.26674238251976e-02 1.94293012875697e-04
8.45326086956522e+00 1.24780636012157e-02 1.91887668358900e-04
8.49717391304348e+00 1.22915340471378e-02 1.89509544733095e-04
8.54108695652174e+00 1.21077928484148e-02 1.87158394568178e-04
8.58500000000000e+00 1.19267983228334e-02 1.84833970888892e-04
8.62891304347826e+00 1.17485094116908e-02 1.82536027445108e-04
8.67282608695652e+00 1.15728856696419e-02 1.80264318720679e-04
8.71673913043478e+00 1.13998872563475e-02 1.78018599922349e-04
8.76065217391304e+00 1.12294749268207e-02 1.75798627236771e-04
8.80456521739130e+00 1.10616100225447e-02 1.73604157572621e-04
8.84847826086956e+00 1.08962544632735e-02 1.71434948756289e-04
8.89239130434783e+00 1.07333707378150e-02 1.69290759719217e-04
8.93630434782609e+00 1.05729218955402e-02 1.67171350249844e-04
8.98021739130435e+00 1.04148715385381e-02 1.65076481175791e-04
9.02413043478261e+00 1.02591838128143e-02 1.63005914538088e-04
9.06804347826087e+00 1.01058234001749e-02 1.60959413352643e-04
9.11195652173913e+00 9.95475551072095e-03 1.58936741779852e-04
9.15586956521739e+00 9.80594587444255e-03 1.56937665286648e-04
9.19978260869565e+00 9.65936073346220e-03 1.54961950417245e-04
9.24369565217391e+00 9.51496683485259e-03 1.53009364950992e-04
9.28760869565217e+00 9.37273142261037e-03 1.51079678053165e-04
9.33152173913043e+00 9.23262223024113e-03 1.49172660054671e-04
9.37543478260869e+00 9.09460747388815e-03 1.47288082598932e-04
9.41934782608696e+00 8.95865584466752e-03 1.45425718782256e-04
9.46326086956522e+00 8.82473650158037e-03 1.43585342942190e-04
9.50717391304348e+00 8.69281906493898e-03 1.41766730794179e-04
9.55108695652174e+00 8.56287360904700e-03 1.39969659562273e-04
9.59500000000000e+00 8.43487065542428e-03 1.38193907775823e-04
9.63891304347826e+00 8.30878116651788e-03 1.36439255430322e-04
9.68282608695652e+00 8.18457653858498e-03 1.34705483973898e-04
9.72673913043478e+00 8.06222859572450e-03 1.32992376280917e-04
9.77065217391304e+00 7.94170958309616e-03 1.31299716805453e-04
9.81456521739130e+00 7.82299216063657e-03 1.29627291390583e-04
9.85847826086956e+00 7.70604939721908e-03 1.27974887381618e-04
9.90239130434782e+00 7.59085476417764e-03 1.26342293734315e-04
9.94630434782609e+00 7.47738212930035e-03 1.24729300831834e-04
9.99021739130435e+00 7.36560575124258e-03 1.23135700560959e-04
1.00341304347826e+01 7.25550027344947e-03 1.21561286645789e-04
1.00780434782609e+01 7.14704071755608e-03 1.20005853861076e-04
1.01219565217391e+01 7.04020248040419e-03 1.18469198596642e-04
1.01658695652174e+01 6.93496132553152e-03 1.16951119587664e-04
1.02097826086957e+01 6.83129337778184e-03 1.15451416273235e-04
1.02536956521739e+01 6.72917512091673e-03 1.13969889930606e-04
1.02976086956522e+01 6.62858338825173e-03 1.12506343448598e-04
1.03415217391304e+01 6.52949536135619e-03 1.11060581261402e-04
1.03854347826087e+01 6.43188856099412e-03 1.09632409420010e-04
1.04293478260870e+01 6.33574084583637e-03 1.08221635280136e-04
1.04732608695652e+01 6.24103040458759e-03 1.06828068561788e-04
1.05171739130435e+01 6.14773575113127e-03 1.05451519807728e-04
1.05610869565217e+01 6.05583572230014e-03 1.04091801384714e-04
1.06050000000000e+01 5.96530946955695e-03 1.02748727279331e-04
1.06489130434783e+01 5.87613645771880e-03 1.01422113035836e-04
1.06928260869565e+01 5.78829645690788e-03 1.00111775815985e-04
1.07367391304348e+01 5.70176954129129e-03 9.88175343379995e-05
1.07806521739130e+01 5.61653608129244e-03 9.75392089335879e-05
1.08245652173913e+01 5.53257674234681e-03 9.62766212759885e-05
1.08684782608696e+01 5.44987247811666e-03 9.50295952849538e-05
1.09123913043478e+01 5.36840452624789e-03 9.37979558003249e-05
1.09563043478261e+01 5.28815440634140e-03 9.25815294372164e-05
1.10002173913043e+01 5.20910391279684e-03 9.13801444068373e-05
1.10441304347826e+01 5.13123511359284e-03 9.01936304595369e-05
1.10880434782609e+01 5.05453034336163e-03 8.90218189324344e-05
1.11319565217391e+01 4.97897220218734e-03 8.78645425056341e-05
1.11758695652174e+01 4.90454354956061e-03 8.67216360020292e-05
1.12197826086957e+01 4.83122750055801e-03 8.55929352080871e-05
1.12636956521739e+01 4.75900742396033e-03 8.44782776298874e-05
1.13076086956522e+01 4.68786693588682e-03 8.33775023315613e-05
1.13515217391304e+01 4.61778989862462e-03 8.22904498823015e-05
1.13954347826087e+01 4.54876041446770e-03 8.12169623961014e-05
1.14393478260870e+01 4.48076282456553e-03 8.01568833130466e-05
1.14832608695652e+01 4.41378170353499e-03 7.91100581066960e-05
1.15271739130435e+01 4.34780185601962e-03 7.80763332353850e-05
1.15710869565217e+01 4.28280831494891e-03 7.70555568107026e-05
1.16150000000000e+01 4.21878633587286e-03 7.60475784520055e-05
1.16589130434783e+01 4.15572139584643e-03 7.50522492372166e-05
1.17028260869565e+01 4.09359918794572e-03 7.40694217358959e-05
1.17467391304348e+01 4.03240562017242e-03 7.30989499610689e-05
1.17906521739130e+01 3.97212681014558e-03 7.21406894007110e-05
1.18345652173913e+01 3.91274908402583e-03 7.11944968271695e-05
1.18784782608696e+01 3.85425897186309e-03 7.02602309024568e-05
1.19223913043478e+01 3.79664320458996e-03 6.93377512747130e-05
1.19663043478261e+01 3.73988871245343e-03 6.84269191501763e-05
1.20102173913043e+01 3.68398262013163e-03 6.75275971656735e-05
1.20541304347826e+01 3.62891224569713e-03 6.66396493440470e-05
1.20980434782609e+01 3.57466509588955e-03 6.57629411202400e-05
1.21419565217391e+01 3.52122886509894e-03 6.48973391704341e-05
1.21858695652174e+01 3.46859143121499e-03 6.40427119477494e-05
1.22297826086957e+01 3.41674085292020e-03 6.31989288781266e-05
1.22736956521739e+01 3.36566536824520e-03 6.23658608666924e-05
1.23176086956522e+01 3.31535339021831e-03 6.15433801828353e-05
1.23615217391304e+01 3.26579350588932e-03 6.07313604190538e-05
1.24054347826087e+01 3.21697447211752e-03 5.99296765125256e-05
1.24493478260870e+01 3.16888521461526e-03 5.91382045917806e-05
1.24932608695652e+01 3.12151482424367e-03 5.83568224511352e-05
1.25371739130435e+01 3.07485255457519e-03 5.75854088348322e-05
1.25810869565217e+01 3.02888782056533e-03 5.68238438853653e-05
1.26250000000000e+01 2.98361019467527e-03 5.60720090400241e-05
1.26689130434783e+01 2.93900940595626e-03 5.53297869929168e-05
1.27128260869565e+01 2.89507533629542e-03 5.45970617127435e-05
1.27567391304348e+01 2.85179801951944e-03 5.38737184056882e-05
1.28006521739130e+01 2.80916763775949e-03 5.31596435322772e-05
1.28445652173913e+01 2.76717452057387e-03 5.24547246737725e-05
1.28884782608696e+01 2.72580914174494e-03 5.17588509387271e-05
1.29323913043478e+01 2.68506211714942e-03 5.10719123455221e-05
1.29763043478261e+01 2.64492420356961e-03 5.03938002065359e-05
1.30202173913043e+01 2.60538629534584e-03 4.97244070375226e-05
1.30641304347826e+01 2.56643942353951e-03 4.90636265234665e-05
1.31080434782609e+01 2.52807475269149e-03 4.84113535323707e-05
1.31519565217391e+01 2.49028358000343e-03 4.77674839954231e-05
1.31958695652174e+01 2.45305733247686e-03 4.71319152672318e-05
1.32397826086957e+01 2.41638756499596e-03 4.65045455757990e-05
1.32836956521739e+01 2.38026595923760e-03 4.58852743630101e-05
1.33276086956522e+01 2.34468432068549e-03 4.52740022029896e-05
1.33715217391304e+01 2.30963457785079e-03 4.46706307707184e-05
1.34154347826087e+01 2.27510877938047e-03 4.40750628532553e-05
1.34593478260870e+01 2.24109909329550e-03 4.34872022421790e-05
1.35032608695652e+01 2.20759780443497e-03 4.29069540529661e-05
1.35471739130435e+01 2.17459731272987e-03 4.23342242349125e-05
1.35910869565217e+01 2.14209013220519e-03 4.17689198729194e-05
1.36350000000000e+01 2.11006888831561e-03 4.12109491140015e-05
1.36789130434783e+01 2.07852631722171e-03 4.06602211384636e-05
1.37228260869565e+01 2.04745526320964e-03 4.01166461689650e-05
1.37667391304348e+01 2.01684867798403e-03 3.95801354423882e-05
1.38106521739130e+01 1.98669961816888e-03 3.90506012183990e-05
1.38545652173913e+01 1.95700124461690e-03 3.85279566857001e-05
