Energy (eV)          EEDF (eV^-(3/2))     First Anisotropy
6.25384615384615e-04 9.85835500891816e+00 4.33801981909035e-03
1.87615384615385e-03 9.80609477062865e+00 7.16841579151715e-03
3.12692307692308e-03 9.75411156969290e+00 9.47667356536953e-03
4.37769230769231e-03 9.70240393749997e+00 1.12385482953923e-02
5.62846153846154e-03 9.65097041322787e+00 1.27148385648935e-02
6.87923076923077e-03 9.59980954379938e+00 1.40039238732212e-02
8.13000000000000e-03 9.54891988384050e+00 1.51566055737874e-02
9.38076923076923e-03 9.49829999558786e+00 1.62034963341619e-02
1.06315384615385e-02 9.44794844921811e+00 1.71648566820091e-02
1.18823076923077e-02 9.39786382171758e+00 1.80549765586672e-02
1.31330769230769e-02 9.34804469853264e+00 1.88844121756330e-02
1.43838461538462e-02 9.29848967216034e+00 1.96612418960944e-02
1.56346153846154e-02 9.24919734229326e+00 2.03918225501659e-02
1.68853846153846e-02 9.20016631665461e+00 2.10812708205524e-02
1.81361538461538e-02 9.15139521001806e+00 2.17337831781189e-02
1.93869230769231e-02 9.10288264428659e+00 2.23528560516180e-02
2.06376923076923e-02 9.05462724914692e+00 2.29414422615889e-02
2.18884615384615e-02 9.00662766129500e+00 2.35020648930438e-02
2.31392307692308e-02 8.95888252447132e+00 2.40369018288206e-02
2.43900000000000e-02 8.91139048999988e+00 2.45478500133266e-02
2.56407692307692e-02 8.86415021614794e+00 2.50365749815817e-02
2.68915384615385e-02 8.81716036829702e+00 2.55045495317587e-02
2.81423076923077e-02 8.77041961875827e+00 2.59530843882142e-02
2.93930769230769e-02 8.72392664718730e+00 2.63833528623044e-02
3.06438461538462e-02 8.67768014007912e+00 2.67964108675122e-02
3.18946153846154e-02 8.63167879076536e+00 2.71932131573108e-02
3.31453846153846e-02 8.58592129977113e+00 2.75746268787537e-02
3.43961538461538e-02 8.54040637437069e+00 2.79414428601739e-02
3.56469230769231e-02 8.49513272857980e+00 2.82943849412323e-02
3.68976923076923e-02 8.45009908346620e+00 2.86341179875653e-02
3.81484615384615e-02 8.40530416675548e+00 2.89612547052019e-02
3.93992307692308e-02 8.36074671281708e+00 2.92763613362605e-02
4.06500000000000e-02 8.31642546293929e+00 2.95799626824539e-02
4.19007692307692e-02 8.27233916497503e+00 2.98725464344627e-02
4.31515384615385e-02 8.22848657341537e+00 3.01545668738229e-02
4.44023076923077e-02 8.18486644926733e+00 3.04264481050307e-02
4.56530769230769e-02 8.14147756028478e+00 3.06885869358883e-02
4.69038461538462e-02 8.09831868066179e+00 3.09413554249920e-02
4.81546153846154e-02 8.05538859101198e+00 3.11851030168305e-02
4.94053846153846e-02 8.01268607857576e+00 3.14201585434964e-02
5.06561538461539e-02 7.97020993693855e+00 3.16468320047898e-02
5.19069230769231e-02 7.92795896600936e+00 3.18654160473086e-02
5.31576923076923e-02 7.88593197220767e+00 3.20761873926476e-02
5.44084615384615e-02 7.84412776820391e+00 3.22794081191226e-02
5.56592307692308e-02 7.80254517289616e+00 3.24753267112222e-02
5.69100000000000e-02 7.76118301158048e+00 3.26641791065518e-02
5.81607692307692e-02 7.72004011571024e+00 3.28461896322429e-02
5.94115384615385e-02 7.67911532293353e+00 3.30215718078383e-02
6.06623076923077e-02 7.63840747700090e+00 3.31905290767237e-02
6.19130769230769e-02 7.59791542791371e+00 3.33532555118681e-02
6.31638461538462e-02 7.55763803170749e+00 3.35099364707452e-02
6.44146153846154e-02 7.51757415042711e+00 3.36607491017117e-02
6.56653846153846e-02 7.47772265226264e+00 3.38058628976624e-02
6.69161538461538e-02 7.43808241134622e+00 3.39454402043125e-02
6.81669230769231e-02 7.39865230772721e+00 3.40796365988903e-02
6.94176923076923e-02 7.35943122749697e+00 3.42086013252659e-02
7.06684615384615e-02 7.32041806259818e+00 3.43324776954932e-02
7.19192307692308e-02 7.28161171079943e+00 3.44514033756375e-02
7.31700000000000e-02 7.24301107581052e+00 3.45655107333265e-02
7.44207692307692e-02 7.20461506710288e+00 3.46749271511759e-02
7.56715384615385e-02 7.16642259992898e+00 3.47797752798405e-02
7.69223076923077e-02 7.12843259524798e+00 3.48801732748513e-02
7.81730769230769e-02 7.09064397982819e+00 3.49762350504396e-02
7.94238461538462e-02 7.05305568608187e+00 3.50680705251299e-02
8.06746153846154e-02 7.01566665203971e+00 3.51557857737017e-02
8.19253846153846e-02 6.97847582144572e+00 3.52394832446383e-02
8.31761538461539e-02 6.94148214360054e+00 3.53192619635754e-02
8.44269230769231e-02 6.90468457333612e+00 3.53952176493948e-02
8.56776923076923e-02 6.86808207110377e+00 3.54674428959692e-02
8.69284615384616e-02 6.83167360282545e+00 3.55360273427628e-02
8.81792307692308e-02 6.79545813986836e+00 3.56010577632630e-02
8.94300000000000e-02 6.75943465912698e+00 3.56626182185436e-02
9.06807692307692e-02 6.72360214288166e+00 3.57207901943792e-02
9.19315384615385e-02 6.68795957880780e+00 3.57756526984936e-02
9.31823076923077e-02 6.65250595991355e+00 3.58272823536730e-02
9.44330769230769e-02 6.61724028461370e+00 3.58757535142459e-02
9.56838461538462e-02 6.58216155659778e+00 3.59211383838136e-02
9.69346153846154e-02 6.54726878480500e+00 3.59635070607935e-02
9.81853846153846e-02 6.51256098349318e+00 3.60029276461276e-02
9.94361538461539e-02 6.47803717211264e+00 3.60394663107418e-02
1.00686923076923e-01 6.44369637543266e+00 3.60731874880524e-02
1.01937692307692e-01 6.40953762290979e+00 3.61041537179678e-02
1.03188461538462e-01 6.37555994981007e+00 3.61324257989203e-02
1.04439230769231e-01 6.34176239620807e+00 3.61580630486613e-02
1.05690000000000e-01 6.30814400726761e+00 3.61811232060147e-02
1.06940769230769e-01 6.27470383293596e+00 3.62016623622181e-02
1.08191538461538e-01 6.24144092876003e+00 3.62197351503327e-02
1.09442307692308e-01 6.20835435500842e+00 3.62353949315248e-02
1.10693076923077e-01 6.17544317693111e+00 3.62486937059368e-02
1.11943846153846e-01 6.14270646447318e+00 3.62596820385356e-02
1.13194615384615e-01 6.11014329303720e+00 3.62684092330680e-02
1.14445384615385e-01 6.07775274266089e+00 3.62749235035651e-02
1.15696153846154e-01 6.04553389825792e+00 3.62792718218564e-02
1.16946923076923e-01 6.01348584959397e+00 3.62815000817813e-02
1.18197692307692e-01 5.98160769102008e+00 3.62816529578296e-02
1.19448461538462e-01 5.94989852217287e+00 3.62797740621377e-02
1.20699230769231e-01 5.91835744721667e+00 3.62759060997927e-02
1.21950000000000e-01 5.88698357506507e+00 3.62700907759914e-02
1.23200769230769e-01 5.85577601913013e+00 3.62623687169314e-02
1.24451538461538e-01 5.82473389797940e+00 3.62527796162199e-02
1.25702307692308e-01 5.79385633462277e+00 3.62413623799379e-02
1.26953076923077e-01 5.76314245671900e+00 3.62281550335327e-02
1.28203846153846e-01 5.73259139633930e+00 3.62131946419046e-02
1.29454615384615e-01 5.70220229058477e+00 3.61965174466204e-02
1.30705384615385e-01 5.67197428091443e+00 3.61781590020855e-02
1.31956153846154e-01 5.64190651333786e+00 3.61581540301465e-02
1.33206923076923e-01 5.61199813839252e+00 3.61365365514621e-02
1.34457692307692e-01 5.58224831092217e+00 3.61133397504735e-02
1.35708461538462e-01 5.55265619064798e+00 3.60885961019055e-02
1.36959230769231e-01 5.52322094154481e+00 3.60623374965948e-02
1.38210000000000e-01 5.49394173201964e+00 3.60345951508955e-02
1.39460769230769e-01 5.46481773470210e+00 3.60053995280225e-02
1.40711538461538e-01 5.43584812698296e+00 3.59747804576658e-02
1.41962307692308e-01 5.40703209042435e+00 3.59427672551045e-02
1.43213076923077e-01 5.37836881092687e+00 3.59093886319956e-02
1.44463846153846e-01 5.34985747853132e+00 3.58746726186254e-02
1.45714615384615e-01 5.32149728792691e+00 3.58386466773453e-02
1.46965384615385e-01 5.29328743789304e+00 3.58013378156467e-02
1.48216153846154e-01 5.26522713145599e+00 3.57627724521492e-02
1.49466923076923e-01 5.23731557586744e+00 3.57229765261399e-02
1.50717692307692e-01 5.20955198241771e+00 3.56819753728187e-02
1.51968461538462e-01 5.18193556690853e+00 3.56397938292315e-02
1.53219230769231e-01 5.15446554913191e+00 3.55964563400216e-02
1.54470000000000e-01 5.12714115301601e+00 3.55519868727634e-02
1.55720769230769e-01 5.09996160644788e+00 3.55064088436678e-02
1.56971538461538e-01 5.07292614172083e+00 3.54597452185823e-02
1.58222307692308e-01 5.04603399503989e+00 3.54120186139062e-02
1.59473076923077e-01 5.01928440665892e+00 3.53632512138549e-02
1.60723846153846e-01 4.99267662071211e+00 3.53134646976654e-02
1.61974615384615e-01 4.96620988563789e+00 3.52626803360770e-02
1.63225384615385e-01 4.93988345370897e+00 3.52109190877997e-02
1.64476153846154e-01 4.91369658116150e+00 3.51582014776170e-02
1.65726923076923e-01 4.88764852817482e+00 3.51045476900822e-02
1.66977692307692e-01 4.86173855871218e+00 3.50499774557598e-02
1.68228461538462e-01 4.83596594091672e+00 3.49945101420673e-02
1.69479230769231e-01 4.81032994667091e+00 3.49381648442008e-02
1.70730000000000e-01 4.78482985171720e+00 3.48809603074207e-02
1.71980769230769e-01 4.75946493550627e+00 3.48229148583570e-02
1.73231538461538e-01 4.73423448157304e+00 3.47640464920825e-02
1.74482307692308e-01 4.70913777711711e+00 3.47043729593241e-02
1.75733076923077e-01 4.68417411311666e+00 3.46439116907681e-02
1.76983846153846e-01 4.65934278418374e+00 3.45826797300425e-02
1.78234615384615e-01 4.63464308892151e+00 3.45206938172806e-02
1.79485384615385e-01 4.61007432952450e+00 3.44579704728590e-02
1.80736153846154e-01 4.58563581188611e+00 3.43945258870895e-02
1.81986923076923e-01 4.56132684557959e+00 3.43303760016850e-02
1.83237692307692e-01 4.53714674372093e+00 3.42655364065949e-02
1.84488461538462e-01 4.51309482330370e+00 3.42000224191103e-02
1.85739230769231e-01 4.48917040482296e+00 3.41338491632151e-02
1.86990000000000e-01 4.46537281237601e+00 3.40670314988080e-02
1.88240769230769e-01 4.44170137353143e+00 3.39995839588130e-02
1.89491538461538e-01 4.41815541964777e+00 3.39315208252791e-02
1.90742307692308e-01 4.39473428551457e+00 3.38628562057454e-02
1.91993076923077e-01 4.37143730944767e+00 3.37936039644191e-02
1.93243846153846e-01 4.34826383316397e+00 3.37237776609284e-02
1.94494615384615e-01 4.32521320208506e+00 3.36533906236046e-02
1.95745384615385e-01 4.30228476499422e+00 3.35824560230264e-02
1.96996153846154e-01 4.27947787412673e+00 3.35109867723538e-02
1.98246923076923e-01 4.25679188515196e+00 3.34389955989528e-02
1.99497692307692e-01 4.23422615705442e+00 3.33664949510194e-02
2.00748461538462e-01 4.21178005241919e+00 3.32934970672146e-02
2.01999230769231e-01 4.18945293710830e+00 3.32200140466106e-02
2.03250000000000e-01 4.16724418034550e+00 3.31460577844429e-02
2.04500769230769e-01 4.14515315460234e+00 3.30716399147969e-02
2.05751538461538e-01 4.12317923587044e+00 3.29967718777750e-02
2.07002307692308e-01 4.10132180335193e+00 3.29214649869691e-02
2.08253076923077e-01 4.07958023953979e+00 3.28457303670256e-02
2.09503846153846e-01 4.05795393010872e+00 3.27695788978901e-02
2.10754615384615e-01 4.03644226417506e+00 3.26930212796266e-02
2.12005384615385e-01 4.01504463400036e+00 3.26160680975466e-02
2.13256153846154e-01 3.99376043506772e+00 3.25387297321567e-02
2.14506923076923e-01 3.97258906606503e+00 3.24610164226478e-02
2.15757692307692e-01 3.95152992878105e+00 3.23829381823903e-02
2.17008461538462e-01 3.93058242835040e+00 3.23045048607011e-02
2.18259230769231e-01 3.90974597297312e+00 3.22257262049622e-02
2.19510000000000e-01 3.88901997398653e+00 3.21466118023701e-02
2.20760769230769e-01 3.86840384576550e+00 3.20671710278003e-02
2.22011538461538e-01 3.84789700595659e+00 3.19874131034938e-02
2.23262307692308e-01 3.82749887520928e+00 3.19073471590954e-02
2.24513076923077e-01 3.80720887724420e+00 3.18269821750525e-02
2.25763846153846e-01 3.78702643875746e+00 3.17463269319138e-02
2.27014615384615e-01 3.76695098964447e+00 3.16653900680367e-02
2.28265384615385e-01 3.74698196274223e+00 3.15841801376268e-02
2.29516153846154e-01 3.72711879389422e+00 3.15027055293153e-02
2.30766923076923e-01 3.70736092193472e+00 3.14209745227651e-02
2.32017692307692e-01 3.68770778859752e+00 3.13389952121451e-02
2.33268461538462e-01 3.66815883872740e+00 3.12567755612481e-02
2.34519230769231e-01 3.64871352003571e+00 3.11743234589639e-02
2.35770000000000e-01 3.62937128316162e+00 3.10916466664567e-02
2.37020769230769e-01 3.61013158158441e+00 3.10087527697738e-02
2.38271538461538e-01 3.59099387182575e+00 3.09256492331715e-02
2.39522307692308e-01 3.57195761321528e+00 3.08423434528054e-02
2.40773076923077e-01 3.55302226794872e+00 3.07588427054120e-02
2.42023846153846e-01 3.53418730100361e+00 3.06751541022234e-02
2.43274615384615e-01 3.51545218033304e+00 3.05912846405817e-02
2.44525384615385e-01 3.49681637664046e+00 3.05072412559164e-02
2.45776153846154e-01 3.47827936343505e+00 3.04230307480388e-02
2.47026923076923e-01 3.45984061701710e+00 3.03386598318417e-02
2.48277692307692e-01 3.44149961639748e+00 3.02541350679558e-02
2.49528461538462e-01 3.42325584348094e+00 3.01694629121326e-02
2.50779230769231e-01 3.40510878285221e+00 3.00846497650017e-02
2.52030000000000e-01 3.38705792182834e+00 2.99997019241536e-02
2.53280769230769e-01 3.36910275038116e+00 2.99146255410468e-02
2.54531538461538e-01 3.35124276131306e+00 2.98294266688577e-02
2.55782307692308e-01 3.33347745005132e+00 2.97441113106793e-02
2.57033076923077e-01 3.31580631469797e+00 2.96586853729570e-02
2.58283846153846e-01 3.29822885595521e+00 2.95731546235952e-02
2.59534615384615e-01 3.28074457729385e+00 2.94875247383111e-02
2.60785384615385e-01 3.26335298475562e+00 2.94018013473453e-02
2.62036153846154e-01 3.24605358700069e+00 2.93159899686656e-02
2.63286923076923e-01 3.22884589529395e+00 2.92300960535491e-02
2.64537692307692e-01 3.21172942343368e+00 2.91441249236579e-02
2.65788461538462e-01 3.19470368791119e+00 2.90580818154639e-02
2.67039230769231e-01 3.17776820772274e+00 2.89719719250225e-02
2.68290000000000e-01 3.16092250441445e+00 2.88858003644681e-02
2.69540769230769e-01 3.14416610201354e+00 2.87995721228234e-02
2.70791538461538e-01 3.12749852718162e+00 2.87132921090636e-02
2.72042307692308e-01 3.11091930903357e+00 2.86269651955357e-02
2.73293076923077e-01 3.09442797918045e+00 2.85405961756744e-02
2.74543846153846e-01 3.07802407166323e+00 2.84541897258840e-02
2.75794615384615e-01 3.06170712309988e+00 2.83677504473037e-02
2.77045384615385e-01 3.04547667251105e+00 2.82812829079249e-02
2.78296153846154e-01 3.02933226136103e+00 2.81947915819646e-02
2.79546923076923e-01 3.01327343354494e+00 2.81082808909752e-02
2.80797692307692e-01 2.99729973532520e+00 2.80217551466895e-02
2.82048461538462e-01 2.98141071547124e+00 2.79352185910886e-02
2.83299230769231e-01 2.96560592509333e+00 2.78486754368208e-02
2.84550000000000e-01 2.94988491768138e+00 2.77621298276549e-02
2.85800769230769e-01 2.93424724904370e+00 2.76755858028079e-02
2.87051538461538e-01 2.91869247744112e+00 2.75890473358216e-02
2.88302307692308e-01 2.90322016342700e+00 2.75025183737791e-02
2.89553076923077e-01 2.88782986988420e+00 2.74160027988627e-02
2.90803846153846e-01 2.87252116196604e+00 2.73295043936536e-02
2.92054615384615e-01 2.85729360722516e+00 2.72430268788634e-02
2.93305384615385e-01 2.84214677545933e+00 2.71565739513908e-02
2.94556153846154e-01 2.82708023874679e+00 2.70701492292458e-02
2.95806923076923e-01 2.81209357143432e+00 2.69837562887113e-02
2.97057692307692e-01 2.79718635008053e+00 2.68973986123652e-02
2.98308461538462e-01 2.78235815357844e+00 2.68110796253172e-02
2.99559230769231e-01 2.76760856300827e+00 2.67248027317708e-02
3.00810000000000e-01 2.75293716167100e+00 2.66385712790471e-02
3.02060769230769e-01 2.73834353503366e+00 2.65523885250896e-02
3.03311538461538e-01 2.72382727084713e+00 2.64662576736409e-02
3.04562307692308e-01 2.70938795900422e+00 2.63801819097388e-02
3.05813076923077e-01 2.69502519157178e+00 2.62941643647394e-02
3.07063846153846e-01 2.68073856273779e+00 2.62082080846995e-02
3.08314615384615e-01 2.66652766892471e+00 2.61223160645326e-02
3.09565384615385e-01 2.65239210865257e+00 2.60364912824822e-02
3.10816153846154e-01 2.63833148256965e+00 2.59507366500234e-02
3.12066923076923e-01 2.62434539344129e+00 2.58650550455267e-02
3.13317692307692e-01 2.61043344609916e+00 2.57794492669390e-02
3.14568461538462e-01 2.59659524754911e+00 2.56939220646205e-02
3.15819230769231e-01 2.58283040684036e+00 2.56084761744890e-02
3.17070000000000e-01 2.56913853509465e+00 2.55231142852592e-02
3.18320769230769e-01 2.55551924545716e+00 2.54378390088128e-02
3.19571538461538e-01 2.54197215320035e+00 2.53526529120909e-02
3.20822307692308e-01 2.52849687559765e+00 2.52675585492936e-02
3.22073076923077e-01 2.51509303195142e+00 2.51825584300146e-02
3.23323846153846e-01 2.50176024354544e+00 2.50976549904067e-02
3.24574615384615e-01 2.48849813374488e+00 2.50128506241724e-02
3.25825384615385e-01 2.47530632787443e+00 2.49281477138417e-02
3.27076153846154e-01 2.46218445324491e+00 2.48435485851438e-02
3.28326923076923e-01 2.44913213914287e+00 2.47590555375653e-02
3.29577692307692e-01 2.43614901678507e+00 2.46746708012334e-02
3.30828461538462e-01 2.42323471941357e+00 2.45903965667164e-02
3.32079230769231e-01 2.41038888217928e+00 2.45062350151260e-02
3.33330000000000e-01 2.39761114216723e+00 2.44221882882562e-02
3.34580769230769e-01 2.38490113835254e+00 2.43382584615400e-02
3.35831538461539e-01 2.37225851169206e+00 2.42544475730200e-02
3.37082307692308e-01 2.35968290501184e+00 2.41707576525978e-02
3.38333076923077e-01 2.34717396303132e+00 2.40871906929838e-02
3.39583846153846e-01 2.33473133232079e+00 2.40037486233816e-02
3.40834615384615e-01 2.32235466138959e+00 2.39204333376387e-02
3.42085384615385e-01 2.31004360057746e+00 2.38372467226804e-02
3.43336153846154e-01 2.29779780207767e+00 2.37541906169173e-02
3.44586923076923e-01 2.28561691992730e+00 2.36712668380189e-02
3.45837692307692e-01 2.27350060996629e+00 2.35884771435836e-02
3.47088461538462e-01 2.26144852992159e+00 2.35058232582340e-02
3.48339230769231e-01 2.24946033930311e+00 2.34233069009920e-02
3.49590000000000e-01 2.23753569942574e+00 2.33409297580390e-02
3.50840769230769e-01 2.22567427336974e+00 2.32586934580190e-02
3.52091538461539e-01 2.21387572606184e+00 2.31765995983831e-02
3.53342307692308e-01 2.20213972417465e+00 2.30946497720087e-02
3.54593076923077e-01 2.19046593614779e+00 2.30128455406833e-02
3.55843846153846e-01 2.17885403214952e+00 2.29311884110710e-02
3.57094615384615e-01 2.16730368415489e+00 2.28496798603275e-02
3.58345384615385e-01 2.15581456584855e+00 2.27683213619796e-02
3.59596153846154e-01 2.14438635264495e+00 2.26871143479682e-02
3.60846923076923e-01 2.13301872167925e+00 2.26060602339334e-02
3.62097692307692e-01 2.12171135177039e+00 2.25251603833097e-02
3.63348461538462e-01 2.11046392349570e+00 2.24444161319895e-02
3.64599230769231e-01 2.09927611909778e+00 2.23638288132552e-02
3.65850000000000e-01 2.08814762250368e+00 2.22833997329053e-02
3.67100769230769e-01 2.07707811928922e+00 2.22031301466835e-02
3.68351538461539e-01 2.06606729675089e+00 2.21230212842730e-02
3.69602307692308e-01 2.05511484381576e+00 2.20430743735438e-02
3.70853076923077e-01 2.04422045105993e+00 2.19632906163359e-02
3.72103846153846e-01 2.03338381067394e+00 2.18836711664925e-02
3.73354615384615e-01 2.02260461653206e+00 2.18042171531912e-02
3.74605384615385e-01 2.01188256410527e+00 2.17249297045306e-02
3.75856153846154e-01 2.00121735047884e+00 2.16458099128685e-02
3.77106923076923e-01 1.99060867434384e+00 2.15668588578660e-02
3.78357692307692e-01 1.98005623596386e+00 2.14880775736751e-02
3.79608461538462e-01 1.96955973724122e+00 2.14094670714173e-02
3.80859230769231e-01 1.95911888163345e+00 2.13310283619246e-02
3.82110000000000e-01 1.94873337417008e+00 2.12527624330045e-02
3.83360769230769e-01 1.93840292142040e+00 2.11746702287939e-02
3.84611538461539e-01 1.92812723155732e+00 2.10967526716407e-02
3.85862307692308e-01 1.91790601427657e+00 2.10190106842159e-02
3.87113076923077e-01 1.90773898081281e+00 2.09414451673842e-02
3.88363846153846e-01 1.89762584390836e+00 2.08640569800992e-02
3.89614615384615e-01 1.88756631787482e+00 2.07868469606897e-02
3.90865384615385e-01 1.87756011851491e+00 2.07098159483819e-02
3.92116153846154e-01 1.86760696313788e+00 2.06329647516114e-02
3.93366923076923e-01 1.85770657055156e+00 2.05562941690493e-02
3.94617692307692e-01 1.84785866103228e+00 2.04798049595906e-02
