Energy (eV)          EEDF (eV^-(3/2))     First Anisotropy
2.52272727272727e-03 2.18779281107319e+00 1.21449197458323e-03
7.56818181818182e-03 2.17065115206073e+00 2.00435311358764e-03
1.26136363636364e-02 2.15364380031888e+00 2.64301225795583e-03
1.76590909090909e-02 2.13676970358427e+00 3.12640820565353e-03
2.27045454545455e-02 2.12002781768059e+00 3.52808082375437e-03
2.77500000000000e-02 2.10341710679934e+00 3.87587378303096e-03
3.27954545454545e-02 2.08693654310200e+00 4.18421549104315e-03
3.78409090909091e-02 2.07058510692211e+00 4.46183020379832e-03
4.28863636363636e-02 2.05436178648146e+00 4.71451144954100e-03
4.79318181818182e-02 2.03826557801652e+00 4.94635920003844e-03
5.29772727272727e-02 2.02229548555136e+00 5.16041231624712e-03
5.80227272727273e-02 2.00645052098231e+00 5.35900407995182e-03
6.30681818181818e-02 1.99072970391075e+00 5.54397666662259e-03
6.81136363636364e-02 1.97513206160043e+00 5.71681775638392e-03
7.31590909090909e-02 1.95965662898232e+00 5.87875146129923e-03
7.82045454545455e-02 1.94430244850623e+00 6.03080102885147e-03
8.32500000000000e-02 1.92906857016422e+00 6.17383339945021e-03
8.82954545454546e-02 1.91395405135453e+00 6.30859168284916e-03
9.33409090909091e-02 1.89895795689580e+00 6.43571934947848e-03
9.83863636363636e-02 1.88407935890094e+00 6.55577859861357e-03
1.03431818181818e-01 1.86931733676970e+00 6.66926452244925e-03
1.08477272727273e-01 1.85467097719287e+00 6.77661624960544e-03
1.13522727272727e-01 1.84013937380916e+00 6.87822573229538e-03
1.18568181818182e-01 1.82572162749012e+00 6.97444479733427e-03
1.23613636363636e-01 1.81141684627150e+00 7.06559097517116e-03
1.28659090909091e-01 1.79722414494007e+00 7.15195215952842e-03
1.33704545454545e-01 1.78314264544318e+00 7.23379051651451e-03
1.38750000000000e-01 1.76917147639498e+00 7.31134573985718e-03
1.43795454545455e-01 1.75530977343922e+00 7.38483777780268e-03
1.48840909090909e-01 1.74155667879984e+00 7.45446914687050e-03
1.53886363636364e-01 1.72791134160470e+00 7.52042689456865e-03
1.58931818181818e-01 1.71437291747371e+00 7.58288428653207e-03
1.63977272727273e-01 1.70094056880955e+00 7.64200225297786e-03
1.69022727272727e-01 1.68761346441793e+00 7.69793065662452e-03
1.74068181818182e-01 1.67439077969649e+00 7.75080933985798e-03
1.79113636363636e-01 1.66127169657752e+00 7.80076914136082e-03
1.84159090909091e-01 1.64825540325582e+00 7.84793269110728e-03
1.89204545454545e-01 1.63534109442811e+00 7.89241515490510e-03
1.94250000000000e-01 1.62252797096499e+00 7.93432488799484e-03
1.99295454545455e-01 1.60981524012901e+00 7.97376401000923e-03
2.04340909090909e-01 1.59720211526818e+00 8.01082892150421e-03
2.09386363636364e-01 1.58468781601523e+00 8.04561076069299e-03
2.14431818181818e-01 1.57227156800031e+00 8.07819581691545e-03
2.19477272727273e-01 1.55995260303369e+00 8.10866589784523e-03
2.24522727272727e-01 1.54773015883557e+00 8.13709867245678e-03
2.29568181818182e-01 1.53560347915302e+00 8.16356793685711e-03
2.34613636363636e-01 1.52357181370948e+00 8.18814393682207e-03
2.39659090909091e-01 1.51163441800501e+00 8.21089358193903e-03
2.44704545454545e-01 1.49979055347153e+00 8.23188067691216e-03
2.49750000000000e-01 1.48803948723230e+00 8.25116612811575e-03
2.54795454545455e-01 1.47638049224526e+00 8.26880812874234e-03
2.59840909090909e-01 1.46481284707518e+00 8.28486233167413e-03
2.64886363636364e-01 1.45333583602634e+00 8.29938200469483e-03
2.69931818181818e-01 1.44194874892621e+00 8.31241817629486e-03
2.74977272727273e-01 1.43065088124850e+00 8.32401976673682e-03
2.80022727272727e-01 1.41944153390740e+00 8.33423371860920e-03
2.85068181818182e-01 1.40832001333429e+00 8.34310508142170e-03
2.90113636363636e-01 1.39728563143225e+00 8.35067715746649e-03
2.95159090909091e-01 1.38633770542068e+00 8.35699157164031e-03
3.00204545454545e-01 1.37547555794163e+00 8.36208836684249e-03
3.05250000000000e-01 1.36469851687334e+00 8.36600608874631e-03
3.10295454545455e-01 1.35400591542933e+00 8.36878186196212e-03
3.15340909090909e-01 1.34339709198021e+00 8.37045146359750e-03
3.20386363636364e-01 1.33287139014609e+00 8.37104938930312e-03
3.25431818181818e-01 1.32242815862605e+00 8.37060891743768e-03
3.30477272727273e-01 1.31206675128442e+00 8.36916216661955e-03
3.35522727272727e-01 1.30178652698748e+00 8.36674015758089e-03
3.40568181818182e-01 1.29158684965516e+00 8.36337284105318e-03
3.45613636363636e-01 1.28146708821993e+00 8.35908918080388e-03
3.50659090909091e-01 1.27142661650120e+00 8.35391717647567e-03
3.55704545454545e-01 1.26146481328077e+00 8.34788391108024e-03
3.60750000000000e-01 1.25158106215297e+00 8.34101559227903e-03
3.65795454545455e-01 1.24177475159521e+00 8.33333758912250e-03
3.70840909090909e-01 1.23204527482411e+00 8.32487446877242e-03
3.75886363636364e-01 1.22239202986146e+00 8.31565002911041e-03
3.80931818181818e-01 1.21281441939585e+00 8.30568733152970e-03
3.85977272727273e-01 1.20331185084455e+00 8.29500872997238e-03
3.91022727272727e-01 1.19388373622025e+00 8.28363590508689e-03
3.96068181818182e-01 1.18452949216637e+00 8.27158987105052e-03
4.01113636363636e-01 1.17524853991965e+00 8.25889103049191e-03
4.06159090909091e-01 1.16604030520621e+00 8.24555917946354e-03
4.11204545454545e-01 1.15690421829599e+00 8.23161353449410e-03
4.16250000000000e-01 1.14783971387952e+00 8.21707275526677e-03
4.21295454545455e-01 1.13884623111899e+00 8.20195496442891e-03
4.26340909090909e-01 1.12992321352937e+00 8.18627776813834e-03
4.31386363636364e-01 1.12107010902634e+00 8.17005827393991e-03
4.36431818181818e-01 1.11228636981153e+00 8.15331310942988e-03
4.41477272727273e-01 1.10357145241752e+00 8.13605843843142e-03
4.46522727272727e-01 1.09492481759696e+00 8.11830998209257e-03
4.51568181818182e-01 1.08634593034663e+00 8.10008301713755e-03
4.56613636363636e-01 1.07783425987333e+00 8.08139241587340e-03
4.61659090909091e-01 1.06938927950626e+00 8.06225264380032e-03
4.66704545454545e-01 1.06101046673685e+00 8.04267777663981e-03
4.71750000000000e-01 1.05269730311549e+00 8.02268151395965e-03
4.76795454545455e-01 1.04444927428897e+00 8.00227719076077e-03
4.81840909090909e-01 1.03626586990053e+00 7.98147778999060e-03
4.86886363636364e-01 1.02814658362502e+00 7.96029595313369e-03
4.91931818181818e-01 1.02009091307218e+00 7.93874399172677e-03
4.96977272727273e-01 1.01209835981966e+00 7.91683389705598e-03
5.02022727272727e-01 1.00416842931930e+00 7.89457735432444e-03
5.07068181818182e-01 9.96300630913347e-01 7.87198573733894e-03
5.12113636363636e-01 9.88494477803217e-01 7.84907013951520e-03
5.17159090909091e-01 9.80749486974764e-01 7.82584136842577e-03
5.22204545454546e-01 9.73065179227472e-01 7.80230995735894e-03
5.27250000000000e-01 9.65441079086826e-01 7.77848617408126e-03
5.32295454545455e-01 9.57876714831787e-01 7.75438002804675e-03
5.37340909090909e-01 9.50371618409774e-01 7.73000127853188e-03
5.42386363636364e-01 9.42925325462495e-01 7.70535944128764e-03
5.47431818181818e-01 9.35537375243434e-01 7.68046379610078e-03
5.52477272727273e-01 9.28207310642142e-01 7.65532339294286e-03
5.57522727272727e-01 9.20934678104113e-01 7.62994706209900e-03
5.62568181818182e-01 9.13719027641311e-01 7.60434340748907e-03
5.67613636363636e-01 9.06559912803671e-01 7.57852083168710e-03
5.72659090909091e-01 8.99456890614572e-01 7.55248752931634e-03
5.77704545454546e-01 8.92409521592292e-01 7.52625149536264e-03
5.82750000000000e-01 8.85417369674825e-01 7.49982053111789e-03
5.87795454545455e-01 8.78480002240035e-01 7.47320224888504e-03
5.92840909090909e-01 8.71596990032588e-01 7.44640407754205e-03
5.97886363636364e-01 8.64767907182879e-01 7.41943326691479e-03
6.02931818181818e-01 8.57992331135988e-01 7.39229689299235e-03
6.07977272727273e-01 8.51269842669450e-01 7.36500186199756e-03
6.13022727272727e-01 8.44600025824162e-01 7.33755491798062e-03
6.18068181818182e-01 8.37982467910788e-01 7.30996263579470e-03
6.23113636363636e-01 8.31416759483690e-01 7.28223144183709e-03
6.28159090909091e-01 8.24902494284809e-01 7.25436760718614e-03
6.33204545454546e-01 8.18439269259310e-01 7.22637725385128e-03
6.38250000000000e-01 8.12026684490555e-01 7.19826635897834e-03
6.43295454545455e-01 8.05664343214770e-01 7.17004075803524e-03
6.48340909090909e-01 7.99351851757742e-01 7.14170614877572e-03
6.53386363636364e-01 7.93088819548570e-01 7.11326809421953e-03
6.58431818181818e-01 7.86874859058026e-01 7.08473202639162e-03
6.63477272727273e-01 7.80709585811425e-01 7.05610324911104e-03
6.68522727272727e-01 7.74592618328595e-01 7.02738694389320e-03
6.73568181818182e-01 7.68523578127280e-01 6.99858816306004e-03
6.78613636363636e-01 7.62502089699281e-01 6.96971184725953e-03
6.83659090909091e-01 7.56527780461325e-01 6.94076281877348e-03
6.88704545454546e-01 7.50600280766334e-01 6.91174578637515e-03
6.93750000000000e-01 7.44719223846788e-01 6.88266534840867e-03
6.98795454545455e-01 7.38884245825252e-01 6.85352599501148e-03
7.03840909090909e-01 7.33094985659172e-01 6.82433211103077e-03
7.08886363636364e-01 7.27351085150705e-01 6.79508797811281e-03
7.13931818181818e-01 7.21652188892899e-01 6.76579777746863e-03
7.18977272727273e-01 7.15997944278855e-01 6.73646559183845e-03
7.24022727272727e-01 7.10388001449251e-01 6.70709541020574e-03
7.29068181818182e-01 7.04822013293549e-01 6.67769112126977e-03
7.34113636363636e-01 6.99299635428151e-01 6.64825652844091e-03
7.39159090909091e-01 6.93820526153156e-01 6.61879534351537e-03
7.44204545454546e-01 6.88384346460297e-01 6.58931119055450e-03
7.49250000000000e-01 6.82990759983340e-01 6.55980760820018e-03
7.54295454545455e-01 6.77639433005451e-01 6.53028805126259e-03
7.59340909090909e-01 6.72330034410805e-01 6.50075589292406e-03
7.64386363636364e-01 6.67062235691415e-01 6.47121442623558e-03
7.69431818181818e-01 6.61835710899906e-01 6.44166686621670e-03
7.74477272727273e-01 6.56650136655837e-01 6.41211635126808e-03
7.79522727272727e-01 6.51505192099605e-01 6.38256594701832e-03
7.84568181818182e-01 6.46400558892046e-01 6.35301864025465e-03
7.89613636363636e-01 6.41335921194431e-01 6.32347735188217e-03
7.94659090909091e-01 6.36310965630233e-01 6.29394493105084e-03
7.99704545454546e-01 6.31325381290523e-01 6.26442415831590e-03
8.04750000000000e-01 6.26378859690323e-01 6.23491774741926e-03
8.09795454545455e-01 6.21471094773562e-01 6.20542834644451e-03
8.14840909090909e-01 6.16601782870451e-01 6.17595853951795e-03
8.19886363636364e-01 6.11770622702031e-01 6.14651084790159e-03
8.24931818181818e-01 6.06977315338544e-01 6.11708773161844e-03
8.29977272727273e-01 6.02221564203581e-01 6.08769159048713e-03
8.35022727272727e-01 5.97503075033421e-01 6.05832476731395e-03
8.40068181818182e-01 5.92821555875468e-01 6.02898954230892e-03
8.45113636363636e-01 5.88176717069923e-01 5.99968814436920e-03
8.50159090909091e-01 5.83568271215866e-01 5.97042274568148e-03
8.55204545454545e-01 5.78995933174694e-01 5.94119546433920e-03
8.60250000000000e-01 5.74459420031564e-01 5.91200836573727e-03
8.65295454545455e-01 5.69958451098503e-01 5.88286346342526e-03
8.70340909090909e-01 5.65492747876721e-01 5.85376272044500e-03
8.75386363636364e-01 5.61062034059405e-01 5.82470805013700e-03
8.80431818181818e-01 5.56666035494887e-01 5.79570131742257e-03
8.85477272727273e-01 5.52304480189133e-01 5.76674433957153e-03
8.90522727272727e-01 5.47977098269740e-01 5.73783888888387e-03
8.95568181818182e-01 5.43683621983542e-01 5.70898668758867e-03
9.00613636363636e-01 5.39423785679825e-01 5.68018941772369e-03
9.05659090909091e-01 5.35197325780126e-01 5.65144871620622e-03
9.10704545454545e-01 5.31003980780182e-01 5.62276617702721e-03
9.15750000000000e-01 5.26843491215756e-01 5.59414335236182e-03
9.20795454545455e-01 5.22715599664321e-01 5.56558175320524e-03
9.25840909090909e-01 5.18620050711639e-01 5.53708285043818e-03
9.30886363636364e-01 5.14556590953212e-01 5.50864807543275e-03
9.35931818181818e-01 5.10524968961586e-01 5.48027882107500e-03
9.40977272727273e-01 5.06524935287574e-01 5.45197644234007e-03
9.46022727272727e-01 5.02556242428275e-01 5.42374225856947e-03
9.51068181818182e-01 4.98618644824109e-01 5.39557754883063e-03
9.56113636363636e-01 4.94711898843433e-01 5.36748356060621e-03
9.61159090909091e-01 4.90835762755581e-01 5.33946150530948e-03
9.66204545454545e-01 4.86989996731682e-01 5.31151256014465e-03
9.71250000000000e-01 4.83174362814264e-01 5.28363786900016e-03
9.76295454545455e-01 4.79388624917871e-01 5.25583854292751e-03
9.81340909090909e-01 4.75632548799329e-01 5.22811566100186e-03
9.86386363636364e-01 4.71905902058170e-01 5.20047027077765e-03
9.91431818181818e-01 4.68208454107535e-01 5.17290338911529e-03
9.96477272727273e-01 4.64539976174428e-01 5.14541600261521e-03
1.00152272727273e+00 4.60900241271239e-01 5.11800906381593e-03
1.00656818181818e+00 4.57289024209521e-01 5.09068351118538e-03
1.01161363636364e+00 4.53706101513811e-01 5.06344023888558e-03
1.01665909090909e+00 4.50151251527746e-01 5.03628011845802e-03
1.02170454545455e+00 4.46624254264351e-01 5.00920399503001e-03
1.02675000000000e+00 4.43124891526786e-01 4.98221268621891e-03
1.03179545454545e+00 4.39652946762107e-01 4.95530698429978e-03
1.03684090909091e+00 4.36208205179006e-01 4.92848765511864e-03
1.04188636363636e+00 4.32790453604960e-01 4.90175544020758e-03
1.04693181818182e+00 4.29399480601044e-01 4.87511105570860e-03
1.05197727272727e+00 4.26035076322385e-01 4.84855519443549e-03
1.05702272727273e+00 4.22697032630121e-01 4.82208851450293e-03
1.06206818181818e+00 4.19385142984968e-01 4.79571168265398e-03
1.06711363636364e+00 4.16099202436594e-01 4.76942531146633e-03
1.07215909090909e+00 4.12839007699716e-01 4.74323000133164e-03
1.07720454545455e+00 4.09604357023285e-01 4.71712633160397e-03
1.08225000000000e+00 4.06395050294839e-01 4.69111485957664e-03
1.08729545454545e+00 4.03210888912668e-01 4.66519612236104e-03
1.09234090909091e+00 4.00051675887613e-01 4.63937063587445e-03
1.09738636363636e+00 3.96917215718140e-01 4.61363889667523e-03
1.10243181818182e+00 3.93807314489649e-01 4.58800138096134e-03
1.10747727272727e+00 3.90721779752382e-01 4.56245854636150e-03
1.11252272727273e+00 3.87660420618315e-01 4.53701082173133e-03
1.11756818181818e+00 3.84623047667876e-01 4.51165864583810e-03
1.12261363636364e+00 3.81609472940064e-01 4.48640241118810e-03
1.12765909090909e+00 3.78619509998211e-01 4.46124250151201e-03
1.13270454545455e+00 3.75652973815375e-01 4.43617928380872e-03
1.13775000000000e+00 3.72709680864760e-01 4.41121310739657e-03
1.14279545454545e+00 3.69789449007679e-01 4.38634430555043e-03
1.14784090909091e+00 3.66892097581796e-01 4.36157319456347e-03
1.15288636363636e+00 3.64017447291592e-01 4.33690007534719e-03
1.15793181818182e+00 3.61165320294482e-01 4.31232523250514e-03
1.16297727272727e+00 3.58335540093732e-01 4.28784893589545e-03
1.16802272727273e+00 3.55527931622502e-01 4.26347143146883e-03
1.17306818181818e+00 3.52742321161905e-01 4.23919297585554e-03
1.17811363636364e+00 3.49978536331824e-01 4.21501378605854e-03
1.18315909090909e+00 3.47236406147883e-01 4.19093407297272e-03
1.18820454545455e+00 3.44515760920790e-01 4.16695403422990e-03
1.19325000000000e+00 3.41816432334881e-01 4.14307385332295e-03
1.19829545454545e+00 3.39138253349685e-01 4.11929370103739e-03
1.20334090909091e+00 3.36481058276599e-01 4.09561373458662e-03
1.20838636363636e+00 3.33844682682622e-01 4.07203409901245e-03
1.21343181818182e+00 3.31228963465212e-01 4.04855492633130e-03
1.21847727272727e+00 3.28633738758135e-01 4.02517633690223e-03
1.22352272727273e+00 3.26058848004547e-01 4.00189843119516e-03
1.22856818181818e+00 3.23504131884837e-01 3.97872132075301e-03
1.23361363636364e+00 3.20969432308112e-01 3.95564508309027e-03
1.23865909090909e+00 3.18454592461660e-01 3.93266979170344e-03
1.24370454545455e+00 3.15959456722349e-01 3.90979550963259e-03
1.24875000000000e+00 3.13483870725000e-01 3.88702228865610e-03
1.25379545454545e+00 3.11027681275719e-01 3.86435017054691e-03
1.25884090909091e+00 3.08590736418662e-01 3.84177918627754e-03
1.26388636363636e+00 3.06172885351251e-01 3.81930935724968e-03
1.26893181818182e+00 3.03773978489375e-01 3.79694069451023e-03
1.27397727272727e+00 3.01393867384442e-01 3.77467319995282e-03
1.27902272727273e+00 2.99032404787056e-01 3.75250685891606e-03
1.28406818181818e+00 2.96689444583347e-01 3.73044166793290e-03
1.28911363636364e+00 2.94364841787088e-01 3.70847759425646e-03
1.29415909090909e+00 2.92058452582713e-01 3.68661460275929e-03
1.29920454545455e+00 2.89770134247185e-01 3.66485265013659e-03
1.30425000000000e+00 2.87499745209625e-01 3.64319168416740e-03
1.30929545454545e+00 2.85247144974854e-01 3.62163164482029e-03
1.31434090909091e+00 2.83012194181645e-01 3.60017246352422e-03
1.31938636363636e+00 2.80794754527902e-01 3.57881406425131e-03
1.32443181818182e+00 2.78594688827563e-01 3.55755636279820e-03
1.32947727272727e+00 2.76411860937380e-01 3.53639926784457e-03
1.33452272727273e+00 2.74246135812507e-01 3.51534267429311e-03
1.33956818181818e+00 2.72097379450208e-01 3.49438648816458e-03
1.34461363636364e+00 2.69965458882575e-01 3.47353059024484e-03
1.34965909090909e+00 2.67850242214003e-01 3.45277486021892e-03
1.35470454545455e+00 2.65751598552162e-01 3.43211917144960e-03
1.35975000000000e+00 2.63669398060094e-01 3.41156339030020e-03
1.36479545454545e+00 2.61603511888645e-01 3.39110737711059e-03
1.36984090909091e+00 2.59553812227376e-01 3.37075098553058e-03
1.37488636363636e+00 2.57520172238415e-01 3.35049406347384e-03
1.37993181818182e+00 2.55502466106210e-01 3.33033645246133e-03
1.38497727272727e+00 2.53500568972777e-01 3.31027798855573e-03
1.39002272727273e+00 2.51514356986315e-01 3.29031849636525e-03
1.39506818181818e+00 2.49543707251352e-01 3.27045781139897e-03
1.40011363636364e+00 2.47588497822015e-01 3.25069574738733e-03
1.40515909090909e+00 2.45648607734741e-01 3.23103211795680e-03
1.41020454545455e+00 2.43723916947175e-01 3.21146673192309e-03
1.41525000000000e+00 2.41814306383780e-01 3.19199939267255e-03
1.42029545454545e+00 2.39919657876011e-01 3.17262989902439e-03
1.42534090909091e+00 2.38039854206884e-01 3.15335804462119e-03
1.43038636363636e+00 2.36174779052413e-01 3.13418361877348e-03
1.43543181818182e+00 2.34324317025164e-01 3.11510640585897e-03
1.44047727272727e+00 2.32488353616912e-01 3.09612618614936e-03
1.44552272727273e+00 2.30666775241218e-01 3.07724273040797e-03
1.45056818181818e+00 2.28859469189212e-01 3.05845581998270e-03
1.45561363636364e+00 2.27066323623372e-01 3.03976521740604e-03
1.46065909090909e+00 2.25287227606121e-01 3.02117068587669e-03
1.46570454545455e+00 2.23522071045667e-01 3.00267198501563e-03
1.47075000000000e+00 2.21770744735977e-01 2.98426887030020e-03
1.47579545454545e+00 2.20033140303736e-01 2.96596109382836e-03
1.48084090909091e+00 2.18309150247427e-01 2.94774840376187e-03
1.48588636363636e+00 2.16598667885389e-01 2.92963054507468e-03
1.49093181818182e+00 2.14901587394018e-01 2.91160725900402e-03
1.49597727272727e+00 2.13217803756899e-01 2.89367828378383e-03
1.50102272727273e+00 2.11547212802152e-01 2.87584334977472e-03
1.50606818181818e+00 2.09889711163155e-01 2.85810219753618e-03
1.51111363636364e+00 2.08245196272804e-01 2.84045455135958e-03
1.51615909090909e+00 2.06613566388545e-01 2.82290013679219e-03
1.52120454545455e+00 2.04994720544292e-01 2.80543867680781e-03
1.52625000000000e+00 2.03388558585518e-01 2.78806989129054e-03
1.53129545454545e+00 2.01794981122163e-01 2.77079349771254e-03
1.53634090909091e+00 2.00213889562946e-01 2.75360921062594e-03
1.54138636363636e+00 1.98645186069229e-01 2.73651674232707e-03
1.54643181818182e+00 1.97088773588575e-01 2.71951580235557e-03
1.55147727272727e+00 1.95544555809554e-01 2.70260609814533e-03
1.55652272727273e+00 1.94012437194554e-01 2.68578733063219e-03
1.56156818181818e+00 1.92492322944836e-01 2.66905921052125e-03
1.56661363636364e+00 1.90984118995246e-01 2.65242143444274e-03
1.57165909090909e+00 1.89487732036151e-01 2.63587370072802e-03
1.57670454545455e+00 1.88003069470700e-01 2.61941570595231e-03
1.58175000000000e+00 1.86530039445669e-01 2.60304714446331e-03
1.58679545454545e+00 1.85068550809589e-01 2.58676770898399e-03
1.59184090909091e+00 1.83618513142914e-01 2.57057709014867e-03
