Energy (eV)          EEDF (eV^-(3/2))     First Anisotropy
1.06973684210526e-03 9.83950075384025e+00 5.65207464077720e-03
3.20921052631579e-03 9.75044691973756e+00 9.32228576669122e-03
5.34868421052632e-03 9.66219908020102e+00 1.22776421579826e-02
7.48815789473684e-03 9.57474994066150e+00 1.45053794069973e-02
9.62763157894737e-03 9.48809227223250e+00 1.63489382437900e-02
1.17671052631579e-02 9.40221891181498e+00 1.79385886183073e-02
1.39065789473684e-02 9.31712276064630e+00 1.93419521521556e-02
1.60460526315790e-02 9.23279678449736e+00 2.05999856453419e-02
1.81855263157895e-02 9.14923401280650e+00 2.17399324587484e-02
2.03250000000000e-02 9.06642753809803e+00 2.27811038346634e-02
2.24644736842105e-02 8.98437051575376e+00 2.37378363800339e-02
2.46039473684211e-02 8.90305616237982e+00 2.46211556585041e-02
2.67434210526316e-02 8.82247775635237e+00 2.54397803301035e-02
2.88828947368421e-02 8.74262863687892e+00 2.62007623480688e-02
3.10223684210526e-02 8.66350220344921e+00 2.69099131948807e-02
3.31618421052632e-02 8.58509191529395e+00 2.75720980414121e-02
3.53013157894737e-02 8.50739129104299e+00 2.81914449702314e-02
3.74407894736842e-02 8.43039390757052e+00 2.87714974978905e-02
3.95802631578947e-02 8.35409340009764e+00 2.93153282589614e-02
4.17197368421053e-02 8.27848346145016e+00 2.98256254441428e-02
4.38592105263158e-02 8.20355784153554e+00 3.03047595156736e-02
4.59986842105263e-02 8.12931034683040e+00 3.07548355227384e-02
4.81381578947368e-02 8.05573483986633e+00 3.11777346465743e-02
5.02776315789474e-02 7.98282523885520e+00 3.15751476422416e-02
5.24171052631579e-02 7.91057551678205e+00 3.19486019525602e-02
5.45565789473684e-02 7.83897970131846e+00 3.22994839476933e-02
5.66960526315790e-02 7.76803187418855e+00 3.26290573915288e-02
5.88355263157895e-02 7.69772617068093e+00 3.29384788052028e-02
6.09750000000000e-02 7.62805677916380e+00 3.32288103833559e-02
6.31144736842105e-02 7.55901794070331e+00 3.35010309675092e-02
6.52539473684211e-02 7.49060394828594e+00 3.37560453458009e-02
6.73934210526316e-02 7.42280914665286e+00 3.39946922193427e-02
6.95328947368421e-02 7.35562793172868e+00 3.42177511171058e-02
7.16723684210526e-02 7.28905475015823e+00 3.44259483459878e-02
7.38118421052632e-02 7.22308409884816e+00 3.46199621697324e-02
7.59513157894737e-02 7.15771052458905e+00 3.48004273713130e-02
7.80907894736842e-02 7.09292862336914e+00 3.49679392162586e-02
8.02302631578947e-02 7.02873304016634e+00 3.51230569439737e-02
8.23697368421053e-02 6.96511846842486e+00 3.52663069007008e-02
8.45092105263158e-02 6.90207964961623e+00 3.53981852872211e-02
8.66486842105263e-02 6.83961137280546e+00 3.55191606152373e-02
8.87881578947368e-02 6.77770847421979e+00 3.56296758952116e-02
9.09276315789474e-02 6.71636583688270e+00 3.57301506276787e-02
9.30671052631579e-02 6.65557839000636e+00 3.58209825570561e-02
9.52065789473684e-02 6.59534110875925e+00 3.59025492511377e-02
9.73460526315790e-02 6.53564901378761e+00 3.59752095667764e-02
9.94855263157895e-02 6.47649717080413e+00 3.60393049346996e-02
1.01625000000000e-01 6.41788069028243e+00 3.60951606079693e-02
1.03764473684211e-01 6.35979472659138e+00 3.61430866730916e-02
1.05903947368421e-01 6.30223447821820e+00 3.61833789419975e-02
1.08043421052632e-01 6.24519518758557e+00 3.62163201365910e-02
1.10182894736842e-01 6.18867213921051e+00 3.62421805458182e-02
1.12322368421053e-01 6.13266066077279e+00 3.62612185854749e-02
1.14461842105263e-01 6.07715612267892e+00 3.62736818857759e-02
1.16601315789474e-01 6.02215393635328e+00 3.62798077402797e-02
1.18740789473684e-01 5.96764955519234e+00 3.62798235110303e-02
1.20880263157895e-01 5.91363847414655e+00 3.62739475445615e-02
1.23019736842105e-01 5.86011622812914e+00 3.62623894969460e-02
1.25159210526316e-01 5.80707839287080e+00 3.62453506264255e-02
1.27298684210526e-01 5.75452058451801e+00 3.62230245780051e-02
1.29438157894737e-01 5.70243845814643e+00 3.61955976173084e-02
1.31577631578947e-01 5.65082770853051e+00 3.61632488405755e-02
1.33717105263158e-01 5.59968406975386e+00 3.61261508565291e-02
1.35856578947368e-01 5.54900331381883e+00 3.60844699520786e-02
1.37996052631579e-01 5.49878125134046e+00 3.60383662409472e-02
1.40135526315789e-01 5.44901373116845e+00 3.59879942636963e-02
1.42275000000000e-01 5.39969663908358e+00 3.59335031022169e-02
1.44414473684211e-01 5.35082589842447e+00 3.58750365294274e-02
1.46553947368421e-01 5.30239746942609e+00 3.58127333532649e-02
1.48693421052632e-01 5.25440734917666e+00 3.57467277296157e-02
1.50832894736842e-01 5.20685157040783e+00 3.56771492771912e-02
1.52972368421053e-01 5.15972620205167e+00 3.56041231331794e-02
1.55111842105263e-01 5.11302734889007e+00 3.55277704194986e-02
1.57251315789474e-01 5.06675115041429e+00 3.54482082797995e-02
1.59390789473684e-01 5.02089378132892e+00 3.53655499102369e-02
1.61530263157895e-01 4.97545145121313e+00 3.52799049826946e-02
1.63669736842105e-01 4.93042040344386e+00 3.51913796614221e-02
1.65809210526316e-01 4.88579691565226e+00 3.51000766146594e-02
1.67948684210526e-01 4.84157729939618e+00 3.50060954014310e-02
1.70088157894737e-01 4.79775789914156e+00 3.49095324723669e-02
1.72227631578947e-01 4.75433509267722e+00 3.48104811667550e-02
1.74367105263158e-01 4.71130529079651e+00 3.47090320681142e-02
1.76506578947368e-01 4.66866493633340e+00 3.46052729926206e-02
1.78646052631579e-01 4.62641050453940e+00 3.44992889750869e-02
1.80785526315790e-01 4.58453850277419e+00 3.43911625974716e-02
1.82925000000000e-01 4.54304546959210e+00 3.42809739677434e-02
1.85064473684211e-01 4.50192797508490e+00 3.41688007325408e-02
1.87203947368421e-01 4.46118262038717e+00 3.40547182408836e-02
1.89343421052632e-01 4.42080603758688e+00 3.39387996920734e-02
1.91482894736842e-01 4.38079488886849e+00 3.38211161423967e-02
1.93622368421053e-01 4.34114586681937e+00 3.37017364731929e-02
1.95761842105263e-01 4.30185569414123e+00 3.35807276701395e-02
1.97901315789474e-01 4.26292112283545e+00 3.34581547871828e-02
2.00040789473684e-01 4.22433893448151e+00 3.33340809099278e-02
2.02180263157895e-01 4.18610593995731e+00 3.32085674169701e-02
2.04319736842105e-01 4.14821897866387e+00 3.30816739402665e-02
2.06459210526316e-01 4.11067491877829e+00 3.29534583250233e-02
2.08598684210526e-01 4.07347065698264e+00 3.28239768749510e-02
2.10738157894737e-01 4.03660311772525e+00 3.26932843099476e-02
2.12877631578947e-01 4.00006925345104e+00 3.25614337235456e-02
2.15017105263158e-01 3.96386604433784e+00 3.24284768136632e-02
2.17156578947368e-01 3.92799049759251e+00 3.22944638382625e-02
2.19296052631579e-01 3.89243964766038e+00 3.21594435711777e-02
2.21435526315789e-01 3.85721055596888e+00 3.20234635196899e-02
2.23575000000000e-01 3.82230031025616e+00 3.18865698788009e-02
2.25714473684211e-01 3.78770602476159e+00 3.17488075128254e-02
2.27853947368421e-01 3.75342483984250e+00 3.16102200533969e-02
2.29993421052632e-01 3.71945392187015e+00 3.14708499872505e-02
2.32132894736842e-01 3.68579046259580e+00 3.13307386378030e-02
2.34272368421053e-01 3.65243167932084e+00 3.11899261185391e-02
2.36411842105263e-01 3.61937481465712e+00 3.10484515251815e-02
2.38551315789474e-01 3.58661713592101e+00 3.09063528882697e-02
2.40690789473684e-01 3.55415593528766e+00 3.07636671262887e-02
2.42830263157895e-01 3.52198852955841e+00 3.06204302279266e-02
2.44969736842105e-01 3.49011225958119e+00 3.04766772047923e-02
2.47109210526316e-01 3.45852449039033e+00 3.03324420445823e-02
2.49248684210526e-01 3.42722261098069e+00 3.01877578841868e-02
2.51388157894737e-01 3.39620403375292e+00 3.00426569627065e-02
2.53527631578947e-01 3.36546619464025e+00 2.98971705749616e-02
2.55667105263158e-01 3.33500655288874e+00 2.97513292361200e-02
2.57806578947368e-01 3.30482259052626e+00 2.96051626351160e-02
2.59946052631579e-01 3.27491181247725e+00 2.94586995887339e-02
2.62085526315790e-01 3.24527174634894e+00 2.93119681983397e-02
2.64225000000000e-01 3.21589994192278e+00 2.91649958038539e-02
2.66364473684211e-01 3.18679397125806e+00 2.90178089593184e-02
2.68503947368421e-01 3.15795142838848e+00 2.88704334989383e-02
2.70643421052632e-01 3.12936992921772e+00 2.87228945958190e-02
2.72782894736842e-01 3.10104711103715e+00 2.85752167388727e-02
2.74922368421053e-01 3.07298063261754e+00 2.84274236882420e-02
2.77061842105263e-01 3.04516817400909e+00 2.82795386162899e-02
2.79201315789474e-01 3.01760743607868e+00 2.81315840631243e-02
2.81340789473684e-01 2.99029614059231e+00 2.79835818928335e-02
2.83480263157895e-01 2.96323203002084e+00 2.78355534281237e-02
2.85619736842105e-01 2.93641286709588e+00 2.76875194068271e-02
2.87759210526316e-01 2.90983643488367e+00 2.75394999390171e-02
2.89898684210526e-01 2.88350053659634e+00 2.73915146356875e-02
2.92038157894737e-01 2.85740299516543e+00 2.72435825662402e-02
2.94177631578947e-01 2.83154165330812e+00 2.70957222165787e-02
2.96317105263158e-01 2.80591437334351e+00 2.69479516121757e-02
2.98456578947368e-01 2.78051903678319e+00 2.68002882765230e-02
3.00596052631579e-01 2.75535354439021e+00 2.66527491902681e-02
3.02735526315790e-01 2.73041581600042e+00 2.65053509089848e-02
3.04875000000000e-01 2.70570379012909e+00 2.63581095226090e-02
3.07014473684211e-01 2.68121542402332e+00 2.62110406319154e-02
3.09153947368421e-01 2.65694869341843e+00 2.60641593959832e-02
3.11293421052632e-01 2.63290159243967e+00 2.59174805742009e-02
3.13432894736842e-01 2.60907213322796e+00 2.57710185042774e-02
3.15572368421053e-01 2.58545834598534e+00 2.56247870635451e-02
3.17711842105263e-01 2.56205827880755e+00 2.54787997759715e-02
3.19851315789474e-01 2.53886999732418e+00 2.53330697738078e-02
3.21990789473684e-01 2.51589158473842e+00 2.51876097598895e-02
3.24130263157895e-01 2.49312114166448e+00 2.50424321102304e-02
3.26269736842105e-01 2.47055678578126e+00 2.48975488367548e-02
3.28409210526316e-01 2.44819665186705e+00 2.47529715506006e-02
3.30548684210526e-01 2.42603889164146e+00 2.46087115605288e-02
3.32688157894737e-01 2.40408167343211e+00 2.44647798367012e-02
3.34827631578947e-01 2.38232318220471e+00 2.43211869750150e-02
3.36967105263158e-01 2.36076161940925e+00 2.41779432915394e-02
3.39106578947368e-01 2.33939520265920e+00 2.40350587872919e-02
3.41246052631579e-01 2.31822216575729e+00 2.38925431136153e-02
3.43385526315790e-01 2.29724075854586e+00 2.37504056628398e-02
3.45525000000000e-01 2.27644924659803e+00 2.36086555340409e-02
3.47664473684211e-01 2.25584591123950e+00 2.34673015123218e-02
3.49803947368421e-01 2.23542904935108e+00 2.33263521042393e-02
3.51943421052632e-01 2.21519697327921e+00 2.31858155690283e-02
3.54082894736842e-01 2.19514801054152e+00 2.30456998992968e-02
3.56222368421053e-01 2.17528050384451e+00 2.29060127885520e-02
3.58361842105263e-01 2.15559281094326e+00 2.27667617140793e-02
3.60501315789474e-01 2.13608330435776e+00 2.26279539048540e-02
3.62640789473684e-01 2.11675037138713e+00 2.24895963100018e-02
3.64780263157895e-01 2.09759241397338e+00 2.23516956784541e-02
3.66919736842105e-01 2.07860784842786e+00 2.22142585278444e-02
3.69059210526316e-01 2.05979510544254e+00 2.20772911138856e-02
3.71198684210526e-01 2.04115262995742e+00 2.19407995069597e-02
3.73338157894737e-01 2.02267888089690e+00 2.18047895619519e-02
3.75477631578947e-01 2.00437233117822e+00 2.16692668885520e-02
3.77617105263158e-01 1.98623146758249e+00 2.15342369249152e-02
3.79756578947368e-01 1.96825479050050e+00 2.13997049083878e-02
3.81896052631579e-01 1.95044081393861e+00 2.12656758467310e-02
3.84035526315790e-01 1.93278806539329e+00 2.11321545889807e-02
3.86175000000000e-01 1.91529508560592e+00 2.09991457970416e-02
3.88314473684211e-01 1.89796042856642e+00 2.08666539280634e-02
3.90453947368421e-01 1.88078266135203e+00 2.07346832615074e-02
3.92593421052632e-01 1.86376036404751e+00 2.06032379229378e-02
3.94732894736842e-01 1.84689212951104e+00 2.04723218676089e-02
3.96872368421053e-01 1.83017656337540e+00 2.03419388535904e-02
3.99011842105263e-01 1.81361228393030e+00 2.02120925068071e-02
4.01151315789474e-01 1.79719792189643e+00 2.00827862945161e-02
4.03290789473684e-01 1.78093212042469e+00 1.99540234992395e-02
4.05430263157895e-01 1.76481353498179e+00 1.98258072813858e-02
4.07569736842105e-01 1.74884083313215e+00 1.96981406535638e-02
4.09709210526316e-01 1.73301269453529e+00 1.95710264553003e-02
4.11848684210526e-01 1.71732781083462e+00 1.94444674133471e-02
4.13988157894737e-01 1.70178488544689e+00 1.93184661167956e-02
4.16127631578947e-01 1.68638263355795e+00 1.91930249925781e-02
4.18267105263158e-01 1.67111978201453e+00 1.90681463635587e-02
4.20406578947368e-01 1.65599506912098e+00 1.89438324244033e-02
4.22546052631579e-01 1.64100724463358e+00 1.88200852178580e-02
4.24685526315790e-01 1.62615506965520e+00 1.86969066907118e-02
4.26825000000000e-01 1.61143731643905e+00 1.85742986704050e-02
4.28964473684211e-01 1.59685276838164e+00 1.84522628502679e-02
4.31103947368421e-01 1.58240021989051e+00 1.83308008105257e-02
4.33243421052632e-01 1.56807847631406e+00 1.82099140367295e-02
4.35382894736842e-01 1.55388635375384e+00 1.80896039060084e-02
4.37522368421053e-01 1.53982267905616e+00 1.79698716649536e-02
4.39661842105263e-01 1.52588628971342e+00 1.78507184811346e-02
4.41801315789474e-01 1.51207603368266e+00 1.77321454212933e-02
4.43940789473684e-01 1.49839076937619e+00 1.76141534299059e-02
4.46080263157895e-01 1.48482936556547e+00 1.74967433788421e-02
4.48219736842105e-01 1.47139070120594e+00 1.73799160462548e-02
4.50359210526316e-01 1.45807366542651e+00 1.72636720957983e-02
4.52498684210526e-01 1.44487715743614e+00 1.71480121245104e-02
4.54638157894737e-01 1.43180008635454e+00 1.70329366423629e-02
4.56777631578947e-01 1.41884137120076e+00 1.69184460521317e-02
4.58917105263158e-01 1.40599994080230e+00 1.68045406955733e-02
4.61056578947368e-01 1.39327473363148e+00 1.66912208336028e-02
4.63196052631579e-01 1.38066469779323e+00 1.65784866268057e-02
4.65335526315790e-01 1.36816879093668e+00 1.64663381799702e-02
4.67475000000000e-01 1.35578598009694e+00 1.63547755228794e-02
4.69614473684211e-01 1.34351524168223e+00 1.62437985980414e-02
4.71753947368421e-01 1.33135556136492e+00 1.61334072771773e-02
4.73893421052632e-01 1.31930593402035e+00 1.60236013756557e-02
4.76032894736842e-01 1.30736536357536e+00 1.59143806410633e-02
4.78172368421053e-01 1.29553286299476e+00 1.58057447350508e-02
4.80311842105263e-01 1.28380745419841e+00 1.56976932744133e-02
4.82451315789474e-01 1.27218816791474e+00 1.55902258131969e-02
4.84590789473684e-01 1.26067404366664e+00 1.54833418251020e-02
4.86730263157895e-01 1.24926412969082e+00 1.53770407431244e-02
4.88869736842105e-01 1.23795748279613e+00 1.52713219422312e-02
4.91009210526316e-01 1.22675316834895e+00 1.51661847223061e-02
4.93148684210526e-01 1.21565026019476e+00 1.50616283464059e-02
4.95288157894737e-01 1.20464784052105e+00 1.49576520239814e-02
4.97427631578947e-01 1.19374499984235e+00 1.48542548943567e-02
4.99567105263158e-01 1.18294083692383e+00 1.47514360636549e-02
5.01706578947368e-01 1.17223445864878e+00 1.46491945885359e-02
5.03846052631579e-01 1.16162498000319e+00 1.45475294602009e-02
5.05985526315790e-01 1.15111152400145e+00 1.44464396400374e-02
5.08125000000000e-01 1.14069322155813e+00 1.43459240438578e-02
5.10264473684211e-01 1.13036921147223e+00 1.42459815317397e-02
5.12403947368421e-01 1.12013864033718e+00 1.41466109210709e-02
5.14543421052632e-01 1.11000066248783e+00 1.40478109979545e-02
5.16682894736842e-01 1.09995443987756e+00 1.39495805077389e-02
5.18822368421053e-01 1.08999914206236e+00 1.38519181401190e-02
5.20961842105263e-01 1.08013394613109e+00 1.37548225620741e-02
5.23101315789474e-01 1.07035803658666e+00 1.36582924031914e-02
5.25240789473684e-01 1.06067060532973e+00 1.35623262412236e-02
5.27380263157895e-01 1.05107085159098e+00 1.34669226338974e-02
5.29519736842105e-01 1.04155798181606e+00 1.33720801047008e-02
5.31659210526316e-01 1.03213120964909e+00 1.32777971288848e-02
5.33798684210526e-01 1.02278975586682e+00 1.31840721641857e-02
5.35938157894737e-01 1.01353284826719e+00 1.30909036370558e-02
5.38077631578947e-01 1.00435972165276e+00 1.29982899291057e-02
5.40217105263158e-01 9.95269617766607e-01 1.29062294067759e-02
5.42356578947368e-01 9.86261785184440e-01 1.28147204079912e-02
5.44496052631579e-01 9.77335479297949e-01 1.27237612290333e-02
5.46635526315789e-01 9.68489962252384e-01 1.26333501532016e-02
5.48775000000000e-01 9.59724502842167e-01 1.25434854378791e-02
5.50914473684211e-01 9.51038376494116e-01 1.24541653061342e-02
5.53053947368421e-01 9.42430865192903e-01 1.23653879571060e-02
5.55193421052632e-01 9.33901257435376e-01 1.22771515750717e-02
5.57332894736842e-01 9.25448848130458e-01 1.21894543216131e-02
5.59472368421053e-01 9.17072938582406e-01 1.21022943233899e-02
5.61611842105263e-01 9.08772836432281e-01 1.20156696986594e-02
5.63751315789474e-01 9.00547855561008e-01 1.19295785452287e-02
5.65890789473684e-01 8.92397316072601e-01 1.18440189286037e-02
5.68030263157895e-01 8.84320544237225e-01 1.17589889076130e-02
5.70169736842105e-01 8.76316872397324e-01 1.16744865227425e-02
5.72309210526316e-01 8.68385638950823e-01 1.15905097846457e-02
5.74448684210526e-01 8.60526188295751e-01 1.15070566989071e-02
5.76588157894737e-01 8.52737870739310e-01 1.14241252547395e-02
5.78727631578947e-01 8.45020042481115e-01 1.13417134138521e-02
5.80867105263158e-01 8.37372065559294e-01 1.12598191343835e-02
5.83006578947369e-01 8.29793307762430e-01 1.11784403599454e-02
5.85146052631579e-01 8.22283142612832e-01 1.10975750088424e-02
5.87285526315790e-01 8.14840949314096e-01 1.10172209972006e-02
5.89425000000000e-01 8.07466112665806e-01 1.09373762283489e-02
5.91564473684211e-01 8.00158023046868e-01 1.08580385858792e-02
5.93703947368421e-01 7.92916076353655e-01 1.07792059419561e-02
5.95843421052632e-01 7.85739673960781e-01 1.07008761645629e-02
5.97982894736842e-01 7.78628222639267e-01 1.06230471110254e-02
6.00122368421053e-01 7.71581134540057e-01 1.05457166179684e-02
6.02261842105263e-01 7.64597827144824e-01 1.04688825227426e-02
6.04401315789474e-01 7.57677723186682e-01 1.03925426535307e-02
6.06540789473684e-01 7.50820250633788e-01 1.03166948196117e-02
6.08680263157895e-01 7.44024842641488e-01 1.02413368320738e-02
6.10819736842105e-01 7.37290937475492e-01 1.01664664942317e-02
6.12959210526316e-01 7.30617978495576e-01 1.00920815921873e-02
6.15098684210526e-01 7.24005414109036e-01 1.00181799148574e-02
6.17238157894737e-01 7.17452697696232e-01 9.94475924468731e-03
6.19377631578947e-01 7.10959287594428e-01 9.87181734850281e-03
6.21517105263158e-01 7.04524647052484e-01 9.79935199687625e-03
6.23656578947368e-01 6.98148244158723e-01 9.72736095512399e-03
6.25796052631579e-01 6.91829551824891e-01 9.65584197444437e-03
6.27935526315790e-01 6.85568047742081e-01 9.58479281064272e-03
6.30075000000000e-01 6.79363214310823e-01 9.51421121540367e-03
6.32214473684211e-01 6.73214538625195e-01 9.44409493055862e-03
6.34353947368421e-01 6.67121512421406e-01 9.37444169475865e-03
6.36493421052632e-01 6.61083632044217e-01 9.30524924928855e-03
6.38632894736842e-01 6.55100398379833e-01 9.23651533271373e-03
6.40772368421053e-01 6.49171316840279e-01 9.16823767262331e-03
6.42911842105263e-01 6.43295897322050e-01 9.10041400299199e-03
6.45051315789474e-01 6.37473654141062e-01 9.03304205604624e-03
6.47190789473684e-01 6.31704106017184e-01 8.96611955425933e-03
6.49330263157895e-01 6.25986776034013e-01 8.89964422714290e-03
6.51469736842105e-01 6.20321191575817e-01 8.83361380336683e-03
6.53609210526316e-01 6.14706884312239e-01 8.76802600299688e-03
6.55748684210526e-01 6.09143390159156e-01 8.70287855373742e-03
6.57888157894737e-01 6.03630249217555e-01 8.63816918329337e-03
6.60027631578948e-01 5.98167005758415e-01 8.57389561184691e-03
6.62167105263158e-01 5.92753208184617e-01 8.51005556776945e-03
6.64306578947369e-01 5.87388408971699e-01 8.44664678021573e-03
6.66446052631579e-01 5.82072164652907e-01 8.38366697183353e-03
6.68585526315790e-01 5.76804035782150e-01 8.32111387396299e-03
6.70725000000000e-01 5.71583586876544e-01 8.25898521945597e-03
6.72864473684211e-01 5.66410386401672e-01 8.19727873793759e-03
6.75003947368421e-01 5.61284006728778e-01 8.13599216118433e-03
