Energy (eV)          EEDF (eV^-(3/2))     First Anisotropy
1.24027777777778e-04 2.70151572526670e+02 0.00000000000000e+00
3.72083333333333e-04 2.67571785418537e+02 0.00000000000000e+00
6.20138888888889e-04 2.65016633745135e+02 0.00000000000000e+00
8.68194444444444e-04 2.62485882252946e+02 0.00000000000000e+00
1.11625000000000e-03 2.59979297934778e+02 0.00000000000000e+00
1.36430555555556e-03 2.57496650008485e+02 0.00000000000000e+00
1.61236111111111e-03 2.55037709895745e+02 0.00000000000000e+00
1.86041666666667e-03 2.52602251201019e+02 0.00000000000000e+00
2.10847222222222e-03 2.50190049690711e+02 0.00000000000000e+00
2.35652777777778e-03 2.47800883272521e+02 0.00000000000000e+00
2.60458333333333e-03 2.45434531974996e+02 0.00000000000000e+00
2.85263888888889e-03 2.43090777927283e+02 0.00000000000000e+00
3.10069444444444e-03 2.40769405339064e+02 0.00000000000000e+00
3.34875000000000e-03 2.38470200480689e+02 0.00000000000000e+00
3.59680555555556e-03 2.36192951663504e+02 0.00000000000000e+00
3.84486111111111e-03 2.33937449220350e+02 0.00000000000000e+00
4.09291666666667e-03 2.31703485486269e+02 0.00000000000000e+00
4.34097222222222e-03 2.29490854779378e+02 0.00000000000000e+00
4.58902777777778e-03 2.27299353381935e+02 0.00000000000000e+00
4.83708333333333e-03 2.25128779521581e+02 0.00000000000000e+00
5.08513888888889e-03 2.22978933352762e+02 0.00000000000000e+00
5.33319444444444e-03 2.20849616938332e+02 0.00000000000000e+00
5.58125000000000e-03 2.18740634231328e+02 0.00000000000000e+00
5.82930555555556e-03 2.16651791056915e+02 0.00000000000000e+00
6.07736111111111e-03 2.14582895094518e+02 0.00000000000000e+00
6.32541666666667e-03 2.12533755860105e+02 0.00000000000000e+00
6.57347222222222e-03 2.10504184688654e+02 0.00000000000000e+00
6.82152777777778e-03 2.08493994716784e+02 0.00000000000000e+00
7.06958333333333e-03 2.06503000865547e+02 0.00000000000000e+00
7.31763888888889e-03 2.04531019823389e+02 0.00000000000000e+00
7.56569444444444e-03 2.02577870029272e+02 0.00000000000000e+00
7.81375000000000e-03 2.00643371655959e+02 0.00000000000000e+00
8.06180555555556e-03 1.98727346593457e+02 0.00000000000000e+00
8.30986111111111e-03 1.96829618432616e+02 0.00000000000000e+00
8.55791666666667e-03 1.94950012448888e+02 0.00000000000000e+00
8.80597222222222e-03 1.93088355586245e+02 0.00000000000000e+00
9.05402777777778e-03 1.91244476441236e+02 0.00000000000000e+00
9.30208333333333e-03 1.89418205247214e+02 0.00000000000000e+00
9.55013888888889e-03 1.87609373858703e+02 0.00000000000000e+00
9.79819444444444e-03 1.85817815735916e+02 0.00000000000000e+00
1.00462500000000e-02 1.84043365929420e+02 0.00000000000000e+00
1.02943055555556e-02 1.82285861064954e+02 0.00000000000000e+00
1.05423611111111e-02 1.80545139328383e+02 0.00000000000000e+00
1.07904166666667e-02 1.78821040450801e+02 0.00000000000000e+00
1.10384722222222e-02 1.77113405693775e+02 0.00000000000000e+00
1.12865277777778e-02 1.75422077834729e+02 0.00000000000000e+00
1.15345833333333e-02 1.73746901152471e+02 0.00000000000000e+00
1.17826388888889e-02 1.72087721412852e+02 0.00000000000000e+00
1.20306944444444e-02 1.70444385854568e+02 0.00000000000000e+00
1.22787500000000e-02 1.68816743175097e+02 0.00000000000000e+00
1.25268055555556e-02 1.67204643516762e+02 0.00000000000000e+00
1.27748611111111e-02 1.65607938452942e+02 0.00000000000000e+00
1.30229166666667e-02 1.64026480974399e+02 0.00000000000000e+00
1.32709722222222e-02 1.62460125475748e+02 0.00000000000000e+00
1.35190277777778e-02 1.60908727742048e+02 0.00000000000000e+00
1.37670833333333e-02 1.59372144935525e+02 0.00000000000000e+00
1.40151388888889e-02 1.57850235582421e+02 0.00000000000000e+00
1.42631944444444e-02 1.56342859559970e+02 0.00000000000000e+00
1.45112500000000e-02 1.54849878083492e+02 0.00000000000000e+00
1.47593055555556e-02 1.53371153693621e+02 0.00000000000000e+00
1.50073611111111e-02 1.51906550243645e+02 0.00000000000000e+00
1.52554166666667e-02 1.50455932886973e+02 0.00000000000000e+00
1.55034722222222e-02 1.49019168064718e+02 0.00000000000000e+00
1.57515277777778e-02 1.47596123493402e+02 0.00000000000000e+00
1.59995833333333e-02 1.46186668152776e+02 0.00000000000000e+00
1.62476388888889e-02 1.44790672273755e+02 0.00000000000000e+00
1.64956944444444e-02 1.43408007326472e+02 0.00000000000000e+00
1.67437500000000e-02 1.42038546008445e+02 0.00000000000000e+00
1.69918055555556e-02 1.40682162232855e+02 0.00000000000000e+00
1.72398611111111e-02 1.39338731116937e+02 0.00000000000000e+00
1.74879166666667e-02 1.38008128970481e+02 0.00000000000000e+00
1.77359722222222e-02 1.36690233284447e+02 0.00000000000000e+00
1.79840277777778e-02 1.35384922719682e+02 0.00000000000000e+00
1.82320833333333e-02 1.34092077095751e+02 0.00000000000000e+00
1.84801388888889e-02 1.32811577379871e+02 0.00000000000000e+00
1.87281944444444e-02 1.31543305675950e+02 0.00000000000000e+00
1.89762500000000e-02 1.30287145213735e+02 0.00000000000000e+00
1.92243055555556e-02 1.29042980338058e+02 0.00000000000000e+00
1.94723611111111e-02 1.27810696498192e+02 0.00000000000000e+00
1.97204166666667e-02 1.26590180237298e+02 0.00000000000000e+00
1.99684722222222e-02 1.25381319181985e+02 0.00000000000000e+00
2.02165277777778e-02 1.24184002031959e+02 0.00000000000000e+00
2.04645833333333e-02 1.22998118549781e+02 0.00000000000000e+00
2.07126388888889e-02 1.21823559550711e+02 0.00000000000000e+00
2.09606944444444e-02 1.20660216892660e+02 0.00000000000000e+00
2.12087500000000e-02 1.19507983466230e+02 0.00000000000000e+00
2.14568055555556e-02 1.18366753184856e+02 0.00000000000000e+00
2.17048611111111e-02 1.17236420975037e+02 0.00000000000000e+00
2.19529166666667e-02 1.16116882766660e+02 0.00000000000000e+00
2.22009722222222e-02 1.15008035483420e+02 0.00000000000000e+00
2.24490277777778e-02 1.13909777033330e+02 0.00000000000000e+00
2.26970833333333e-02 1.12822006299322e+02 0.00000000000000e+00
2.29451388888889e-02 1.11744623129933e+02 0.00000000000000e+00
2.31931944444444e-02 1.10677528330090e+02 0.00000000000000e+00
2.34412500000000e-02 1.09620623651972e+02 0.00000000000000e+00
2.36893055555556e-02 1.08573811785967e+02 0.00000000000000e+00
2.39373611111111e-02 1.07536996351714e+02 0.00000000000000e+00
2.41854166666667e-02 1.06510081889223e+02 0.00000000000000e+00
2.44334722222222e-02 1.05492973850095e+02 0.00000000000000e+00
2.46815277777778e-02 1.04485578588807e+02 0.00000000000000e+00
2.49295833333333e-02 1.03487803354100e+02 0.00000000000000e+00
2.51776388888889e-02 1.02499556280431e+02 0.00000000000000e+00
2.54256944444444e-02 1.01520746379521e+02 0.00000000000000e+00
2.56737500000000e-02 1.00551283531972e+02 0.00000000000000e+00
2.59218055555556e-02 9.95910784789758e+01 0.00000000000000e+00
2.61698611111111e-02 9.86400428140908e+01 0.00000000000000e+00
2.64179166666667e-02 9.76980889751053e+01 0.00000000000000e+00
2.66659722222222e-02 9.67651302359743e+01 0.00000000000000e+00
2.69140277777778e-02 9.58410806988355e+01 0.00000000000000e+00
2.71620833333333e-02 9.49258552860998e+01 0.00000000000000e+00
2.74101388888889e-02 9.40193697326187e+01 0.00000000000000e+00
2.76581944444444e-02 9.31215405779258e+01 0.00000000000000e+00
2.79062500000000e-02 9.22322851585526e+01 0.00000000000000e+00
2.81543055555556e-02 9.13515216004177e+01 0.00000000000000e+00
2.84023611111111e-02 9.04791688112885e+01 0.00000000000000e+00
2.86504166666667e-02 8.96151464733151e+01 0.00000000000000e+00
2.88984722222222e-02 8.87593750356354e+01 0.00000000000000e+00
2.91465277777778e-02 8.79117757070508e+01 0.00000000000000e+00
2.93945833333333e-02 8.70722704487717e+01 0.00000000000000e+00
2.96426388888889e-02 8.62407819672328e+01 0.00000000000000e+00
2.98906944444444e-02 8.54172337069764e+01 0.00000000000000e+00
3.01387500000000e-02 8.46015498436039e+01 0.00000000000000e+00
3.03868055555556e-02 8.37936552767948e+01 0.00000000000000e+00
3.06348611111111e-02 8.29934756233920e+01 0.00000000000000e+00
3.08829166666667e-02 8.22009372105534e+01 0.00000000000000e+00
3.11309722222222e-02 8.14159670689686e+01 0.00000000000000e+00
3.13790277777778e-02 8.06384929261412e+01 0.00000000000000e+00
3.16270833333333e-02 7.98684431997339e+01 0.00000000000000e+00
3.18751388888889e-02 7.91057469909782e+01 0.00000000000000e+00
3.21231944444444e-02 7.83503340781470e+01 0.00000000000000e+00
3.23712500000000e-02 7.76021349100888e+01 0.00000000000000e+00
3.26193055555556e-02 7.68610805998244e+01 0.00000000000000e+00
3.28673611111111e-02 7.61271029182042e+01 0.00000000000000e+00
3.31154166666667e-02 7.54001342876268e+01 0.00000000000000e+00
3.33634722222222e-02 7.46801077758162e+01 0.00000000000000e+00
3.36115277777778e-02 7.39669570896605e+01 0.00000000000000e+00
3.38595833333333e-02 7.32606165691072e+01 0.00000000000000e+00
3.41076388888889e-02 7.25610211811186e+01 0.00000000000000e+00
3.43556944444444e-02 7.18681065136838e+01 0.00000000000000e+00
3.46037500000000e-02 7.11818087698883e+01 0.00000000000000e+00
3.48518055555556e-02 7.05020647620403e+01 0.00000000000000e+00
3.50998611111111e-02 6.98288119058530e+01 0.00000000000000e+00
3.53479166666667e-02 6.91619882146822e+01 0.00000000000000e+00
3.55959722222222e-02 6.85015322938196e+01 0.00000000000000e+00
3.58440277777778e-02 6.78473833348397e+01 0.00000000000000e+00
3.60920833333333e-02 6.71994811100015e+01 0.00000000000000e+00
3.63401388888889e-02 6.65577659667030e+01 0.00000000000000e+00
3.65881944444444e-02 6.59221788219892e+01 0.00000000000000e+00
3.68362500000000e-02 6.52926611571124e+01 0.00000000000000e+00
3.70843055555556e-02 6.46691550121440e+01 0.00000000000000e+00
3.73323611111111e-02 6.40516029806383e+01 0.00000000000000e+00
3.75804166666667e-02 6.34399482043471e+01 0.00000000000000e+00
3.78284722222222e-02 6.28341343679848e+01 0.00000000000000e+00
3.80765277777778e-02 6.22341056940433e+01 0.00000000000000e+00
3.83245833333333e-02 6.16398069376566e+01 0.00000000000000e+00
3.85726388888889e-02 6.10511833815142e+01 0.00000000000000e+00
3.88206944444444e-02 6.04681808308237e+01 0.00000000000000e+00
3.90687500000000e-02 5.98907456083205e+01 0.00000000000000e+00
3.93168055555556e-02 5.93188245493262e+01 0.00000000000000e+00
3.95648611111111e-02 5.87523649968535e+01 0.00000000000000e+00
3.98129166666667e-02 5.81913147967580e+01 0.00000000000000e+00
4.00609722222222e-02 5.76356222929364e+01 0.00000000000000e+00
4.03090277777778e-02 5.70852363225705e+01 0.00000000000000e+00
4.05570833333333e-02 5.65401062114167e+01 0.00000000000000e+00
4.08051388888889e-02 5.60001817691404e+01 0.00000000000000e+00
4.10531944444444e-02 5.54654132846948e+01 0.00000000000000e+00
4.13012500000000e-02 5.49357515217441e+01 0.00000000000000e+00
4.15493055555556e-02 5.44111477141301e+01 0.00000000000000e+00
4.17973611111111e-02 5.38915535613829e+01 0.00000000000000e+00
4.20454166666667e-02 5.33769212242729e+01 0.00000000000000e+00
4.22934722222222e-02 5.28672033204069e+01 0.00000000000000e+00
4.25415277777778e-02 5.23623529198657e+01 0.00000000000000e+00
4.27895833333333e-02 5.18623235408826e+01 0.00000000000000e+00
4.30376388888889e-02 5.13670691455645e+01 0.00000000000000e+00
4.32856944444444e-02 5.08765441356524e+01 0.00000000000000e+00
4.35337500000000e-02 5.03907033483240e+01 0.00000000000000e+00
4.37818055555556e-02 4.99095020520350e+01 0.00000000000000e+00
4.40298611111111e-02 4.94328959424007e+01 0.00000000000000e+00
4.42779166666667e-02 4.89608411381172e+01 0.00000000000000e+00
4.45259722222222e-02 4.84932941769207e+01 0.00000000000000e+00
4.47740277777778e-02 4.80302120115865e+01 0.00000000000000e+00
4.50220833333333e-02 4.75715520059650e+01 0.00000000000000e+00
4.52701388888889e-02 4.71172719310569e+01 0.00000000000000e+00
4.55181944444444e-02 4.66673299611244e+01 0.00000000000000e+00
4.57662500000000e-02 4.62216846698410e+01 0.00000000000000e+00
4.60143055555556e-02 4.57802950264768e+01 0.00000000000000e+00
4.62623611111111e-02 4.53431203921211e+01 0.00000000000000e+00
4.65104166666667e-02 4.49101205159405e+01 0.00000000000000e+00
4.67584722222222e-02 4.44812555314734e+01 0.00000000000000e+00
4.70065277777778e-02 4.40564859529591e+01 0.00000000000000e+00
4.72545833333333e-02 4.36357726717024e+01 0.00000000000000e+00
4.75026388888889e-02 4.32190769524732e+01 0.00000000000000e+00
4.77506944444444e-02 4.28063604299396e+01 0.00000000000000e+00
4.79987500000000e-02 4.23975851051358e+01 0.00000000000000e+00
4.82468055555556e-02 4.19927133419638e+01 0.00000000000000e+00
4.84948611111111e-02 4.15917078637277e+01 0.00000000000000e+00
4.87429166666667e-02 4.11945317497022e+01 0.00000000000000e+00
4.89909722222222e-02 4.08011484317328e+01 0.00000000000000e+00
4.92390277777778e-02 4.04115216908692e+01 0.00000000000000e+00
4.94870833333333e-02 4.00256156540307e+01 0.00000000000000e+00
4.97351388888889e-02 3.96433947907030e+01 0.00000000000000e+00
4.99831944444444e-02 3.92648239096673e+01 0.00000000000000e+00
5.02312500000000e-02 3.88898681557600e+01 0.00000000000000e+00
5.04793055555556e-02 3.85184930066635e+01 0.00000000000000e+00
5.07273611111111e-02 3.81506642697280e+01 0.00000000000000e+00
5.09754166666667e-02 3.77863480788231e+01 0.00000000000000e+00
5.12234722222222e-02 3.74255108912199e+01 0.00000000000000e+00
5.14715277777778e-02 3.70681194845026e+01 0.00000000000000e+00
5.17195833333333e-02 3.67141409535097e+01 0.00000000000000e+00
5.19676388888889e-02 3.63635427073045e+01 0.00000000000000e+00
5.22156944444444e-02 3.60162924661745e+01 0.00000000000000e+00
5.24637500000000e-02 3.56723582586591e+01 0.00000000000000e+00
5.27118055555556e-02 3.53317084186063e+01 0.00000000000000e+00
5.29598611111111e-02 3.49943115822571e+01 0.00000000000000e+00
5.32079166666667e-02 3.46601366853574e+01 0.00000000000000e+00
5.34559722222222e-02 3.43291529602989e+01 0.00000000000000e+00
5.37040277777778e-02 3.40013299332851e+01 0.00000000000000e+00
5.39520833333333e-02 3.36766374215265e+01 0.00000000000000e+00
5.42001388888889e-02 3.33550455304613e+01 0.00000000000000e+00
5.44481944444444e-02 3.30365246510028e+01 0.00000000000000e+00
5.46962500000000e-02 3.27210454568138e+01 0.00000000000000e+00
5.49443055555556e-02 3.24085789016059e+01 0.00000000000000e+00
5.51923611111111e-02 3.20990962164658e+01 0.00000000000000e+00
5.54404166666667e-02 3.17925689072060e+01 0.00000000000000e+00
5.56884722222222e-02 3.14889687517418e+01 0.00000000000000e+00
5.59365277777778e-02 3.11882677974923e+01 0.00000000000000e+00
5.61845833333333e-02 3.08904383588075e+01 0.00000000000000e+00
5.64326388888889e-02 3.05954530144188e+01 0.00000000000000e+00
5.66806944444444e-02 3.03032846049144e+01 0.00000000000000e+00
5.69287500000000e-02 3.00139062302388e+01 0.00000000000000e+00
5.71768055555556e-02 2.97272912472159e+01 0.00000000000000e+00
5.74248611111111e-02 2.94434132670964e+01 0.00000000000000e+00
5.76729166666667e-02 2.91622461531277e+01 0.00000000000000e+00
5.79209722222222e-02 2.88837640181477e+01 0.00000000000000e+00
5.81690277777778e-02 2.86079412222013e+01 0.00000000000000e+00
5.84170833333333e-02 2.83347523701798e+01 0.00000000000000e+00
5.86651388888889e-02 2.80641723094827e+01 0.00000000000000e+00
5.89131944444444e-02 2.77961761277019e+01 0.00000000000000e+00
5.91612500000000e-02 2.75307391503279e+01 0.00000000000000e+00
5.94093055555556e-02 2.72678369384783e+01 0.00000000000000e+00
5.96573611111111e-02 2.70074452866474e+01 0.00000000000000e+00
5.99054166666667e-02 2.67495402204777e+01 0.00000000000000e+00
6.01534722222222e-02 2.64940979945525e+01 0.00000000000000e+00
6.04015277777778e-02 2.62410950902100e+01 0.00000000000000e+00
6.06495833333333e-02 2.59905082133775e+01 0.00000000000000e+00
6.08976388888889e-02 2.57423142924267e+01 0.00000000000000e+00
6.11456944444444e-02 2.54964904760500e+01 0.00000000000000e+00
6.13937500000000e-02 2.52530141311558e+01 0.00000000000000e+00
6.16418055555556e-02 2.50118628407855e+01 0.00000000000000e+00
6.18898611111111e-02 2.47730144020489e+01 0.00000000000000e+00
6.21379166666667e-02 2.45364468240802e+01 0.00000000000000e+00
6.23859722222222e-02 2.43021383260134e+01 0.00000000000000e+00
6.26340277777778e-02 2.40700673349769e+01 0.00000000000000e+00
6.28820833333333e-02 2.38402124841071e+01 0.00000000000000e+00
6.31301388888889e-02 2.36125526105813e+01 0.00000000000000e+00
6.33781944444445e-02 2.33870667536691e+01 0.00000000000000e+00
6.36262500000000e-02 2.31637341528028e+01 0.00000000000000e+00
6.38743055555556e-02 2.29425342456657e+01 0.00000000000000e+00
6.41223611111111e-02 2.27234466662990e+01 0.00000000000000e+00
6.43704166666667e-02 2.25064512432268e+01 0.00000000000000e+00
6.46184722222222e-02 2.22915279975987e+01 0.00000000000000e+00
6.48665277777778e-02 2.20786571413505e+01 0.00000000000000e+00
6.51145833333333e-02 2.18678190753823e+01 0.00000000000000e+00
6.53626388888889e-02 2.16589943877539e+01 0.00000000000000e+00
6.56106944444445e-02 2.14521638518977e+01 0.00000000000000e+00
6.58587500000000e-02 2.12473084248484e+01 0.00000000000000e+00
6.61068055555556e-02 2.10444092454896e+01 0.00000000000000e+00
6.63548611111111e-02 2.08434476328173e+01 0.00000000000000e+00
6.66029166666667e-02 2.06444050842204e+01 0.00000000000000e+00
6.68509722222222e-02 2.04472632737763e+01 0.00000000000000e+00
6.70990277777778e-02 2.02520040505642e+01 0.00000000000000e+00
6.73470833333333e-02 2.00586094369940e+01 0.00000000000000e+00
6.75951388888889e-02 1.98670616271506e+01 0.00000000000000e+00
6.78431944444444e-02 1.96773429851552e+01 0.00000000000000e+00
6.80912500000000e-02 1.94894360435408e+01 0.00000000000000e+00
6.83393055555556e-02 1.93033235016447e+01 0.00000000000000e+00
6.85873611111111e-02 1.91189882240148e+01 0.00000000000000e+00
6.88354166666667e-02 1.89364132388328e+01 0.00000000000000e+00
6.90834722222222e-02 1.87555817363510e+01 0.00000000000000e+00
6.93315277777778e-02 1.85764770673449e+01 0.00000000000000e+00
6.95795833333333e-02 1.83990827415802e+01 0.00000000000000e+00
6.98276388888889e-02 1.82233824262943e+01 0.00000000000000e+00
7.00756944444444e-02 1.80493599446931e+01 0.00000000000000e+00
7.03237500000000e-02 1.78769992744612e+01 0.00000000000000e+00
7.05718055555556e-02 1.77062845462868e+01 0.00000000000000e+00
7.08198611111111e-02 1.75372000424004e+01 0.00000000000000e+00
7.10679166666667e-02 1.73697301951282e+01 0.00000000000000e+00
7.13159722222222e-02 1.72038595854582e+01 0.00000000000000e+00
7.15640277777778e-02 1.70395729416209e+01 0.00000000000000e+00
7.18120833333333e-02 1.68768551376831e+01 0.00000000000000e+00
7.20601388888889e-02 1.67156911921554e+01 0.00000000000000e+00
7.23081944444444e-02 1.65560662666124e+01 0.00000000000000e+00
7.25562500000000e-02 1.63979656643273e+01 0.00000000000000e+00
7.28043055555556e-02 1.62413748289180e+01 0.00000000000000e+00
7.30523611111111e-02 1.60862793430072e+01 0.00000000000000e+00
7.33004166666667e-02 1.59326649268953e+01 0.00000000000000e+00
7.35484722222222e-02 1.57805174372450e+01 0.00000000000000e+00
7.37965277777778e-02 1.56298228657796e+01 0.00000000000000e+00
7.40445833333333e-02 1.54805673379933e+01 0.00000000000000e+00
7.42926388888889e-02 1.53327371118732e+01 0.00000000000000e+00
7.45406944444444e-02 1.51863185766348e+01 0.00000000000000e+00
7.47887500000000e-02 1.50412982514685e+01 0.00000000000000e+00
7.50368055555556e-02 1.48976627842982e+01 0.00000000000000e+00
7.52848611111111e-02 1.47553989505524e+01 0.00000000000000e+00
7.55329166666667e-02 1.46144936519463e+01 0.00000000000000e+00
7.57809722222222e-02 1.44749339152760e+01 0.00000000000000e+00
7.60290277777778e-02 1.43367068912240e+01 0.00000000000000e+00
7.62770833333333e-02 1.41997998531760e+01 0.00000000000000e+00
7.65251388888889e-02 1.40642001960496e+01 0.00000000000000e+00
7.67731944444444e-02 1.39298954351332e+01 0.00000000000000e+00
7.70212500000000e-02 1.37968732049369e+01 0.00000000000000e+00
7.72693055555556e-02 1.36651212580538e+01 0.00000000000000e+00
7.75173611111111e-02 1.35346274640325e+01 0.00000000000000e+00
7.77654166666667e-02 1.34053798082604e+01 0.00000000000000e+00
7.80134722222222e-02 1.32773663908570e+01 0.00000000000000e+00
7.82615277777778e-02 1.31505754255787e+01 0.00000000000000e+00
