Energy (eV)          EEDF (eV^-(3/2))     First Anisotropy
5.40983606557377e-03 4.25896311447533e-01 2.03581999288092e-04
1.62295081967213e-02 4.23491857686189e-01 3.36353549484770e-04
2.70491803278689e-02 4.21100978572997e-01 4.44506690229571e-04
3.78688524590164e-02 4.18723597488724e-01 5.26965459597011e-04
4.86885245901639e-02 4.16359638224322e-01 5.95980894344271e-04
5.95081967213115e-02 4.14009025000120e-01 6.56176664569854e-04
7.03278688524590e-02 4.11671682474377e-01 7.09941464923128e-04
8.11475409836066e-02 4.09347535724959e-01 7.58715370119727e-04
9.19672131147541e-02 4.07036510253048e-01 8.03451899190434e-04
1.02786885245902e-01 4.04738531978379e-01 8.44823880824334e-04
1.13606557377049e-01 4.02453527249485e-01 8.83328569191528e-04
1.24426229508197e-01 4.00181422817750e-01 9.19346667428896e-04
1.35245901639344e-01 3.97922145835513e-01 9.53177882732156e-04
1.46065573770492e-01 3.95675623902155e-01 9.85063560812658e-04
1.56885245901639e-01 3.93441785006911e-01 1.01520173091524e-03
1.67704918032787e-01 3.91220557545658e-01 1.04375746281714e-03
1.78524590163934e-01 3.89011870318481e-01 1.07087022390580e-03
1.89344262295082e-01 3.86815652527593e-01 1.09665923391806e-03
2.00163934426230e-01 3.84631833774985e-01 1.12122744928183e-03
2.10983606557377e-01 3.82460344060110e-01 1.14466458577462e-03
2.21803278688525e-01 3.80301113767901e-01 1.16704944430004e-03
2.32622950819672e-01 3.78154073696411e-01 1.18845173657859e-03
2.43442622950820e-01 3.76019155023988e-01 1.20893353320573e-03
2.54262295081967e-01 3.73896289317535e-01 1.22855041938309e-03
2.65081967213115e-01 3.71785408530274e-01 1.24735243670885e-03
2.75901639344262e-01 3.69686444999675e-01 1.26538485324517e-03
2.86721311475410e-01 3.67599331445213e-01 1.28268880074034e-03
2.97540983606557e-01 3.65524000959239e-01 1.29930180116463e-03
3.08360655737705e-01 3.63460387026135e-01 1.31525821340198e-03
3.19180327868852e-01 3.61408423498474e-01 1.33058961091643e-03
3.30000000000000e-01 3.59368044602282e-01 1.34532509769142e-03
3.40819672131148e-01 3.57339184934907e-01 1.35949158236382e-03
3.51639344262295e-01 3.55321779462948e-01 1.37311401298943e-03
3.62459016393443e-01 3.53315763520186e-01 1.38621557996835e-03
3.73278688524590e-01 3.51321072805486e-01 1.39881789316840e-03
3.84098360655738e-01 3.49337643375601e-01 1.41094113295695e-03
3.94918032786885e-01 3.47365411658759e-01 1.42260418671726e-03
4.05737704918033e-01 3.45404314436746e-01 1.43382476912355e-03
4.16557377049180e-01 3.43454288848259e-01 1.44461952396856e-03
4.27377049180328e-01 3.41515272386871e-01 1.45500411774809e-03
4.38196721311475e-01 3.39587202899066e-01 1.46499332203149e-03
4.49016393442623e-01 3.37670018582228e-01 1.47460108771097e-03
4.59836065573770e-01 3.35763657978534e-01 1.48384060832513e-03
4.70655737704918e-01 3.33868059985520e-01 1.49272438060285e-03
4.81475409836066e-01 3.31983163841415e-01 1.50126425907191e-03
4.92295081967213e-01 3.30108909127490e-01 1.50947150144030e-03
5.03114754098361e-01 3.28245235766114e-01 1.51735681263290e-03
5.13934426229508e-01 3.26392084018829e-01 1.52493038395087e-03
5.24754098360656e-01 3.24549394484451e-01 1.53220192864291e-03
5.35573770491803e-01 3.22717108097156e-01 1.53918071497050e-03
5.46393442622951e-01 3.20895166121277e-01 1.54587559365612e-03
5.57213114754098e-01 3.19083510159459e-01 1.55229502626861e-03
5.68032786885246e-01 3.17282082140631e-01 1.55844711132692e-03
5.78852459016393e-01 3.15490824321570e-01 1.56433960484730e-03
5.89672131147541e-01 3.13709679285046e-01 1.56997994187949e-03
6.00491803278689e-01 3.11938589937990e-01 1.57537525567471e-03
6.11311475409836e-01 3.10177499509664e-01 1.58053239536229e-03
6.22131147540984e-01 3.08426351549837e-01 1.58545794287809e-03
6.32950819672131e-01 3.06685089924255e-01 1.59015822621562e-03
6.43770491803279e-01 3.04953658821093e-01 1.59463933464326e-03
6.54590163934426e-01 3.03232002740824e-01 1.59890713290549e-03
6.65409836065574e-01 3.01520066497251e-01 1.60296727138848e-03
6.76229508196721e-01 2.99817795215732e-01 1.60682519794217e-03
6.87049180327869e-01 2.98125134331437e-01 1.61048616830489e-03
6.97868852459016e-01 2.96442029587587e-01 1.61395525637930e-03
7.08688524590164e-01 2.94768427031380e-01 1.61723736162768e-03
7.19508196721311e-01 2.93104273019347e-01 1.62033721867380e-03
7.30327868852459e-01 2.91449514208472e-01 1.62325940635813e-03
7.41147540983607e-01 2.89804097556895e-01 1.62600835345907e-03
7.51967213114754e-01 2.88167970322212e-01 1.62858834622675e-03
7.62786885245902e-01 2.86541080059778e-01 1.63100353491402e-03
7.73606557377049e-01 2.84923374621040e-01 1.63325793991411e-03
7.84426229508197e-01 2.83314802151853e-01 1.63535545803130e-03
7.95245901639344e-01 2.81715311088835e-01 1.63729986640314e-03
8.06065573770492e-01 2.80124850163735e-01 1.63909482862918e-03
8.16885245901639e-01 2.78543368395707e-01 1.64074390060914e-03
8.27704918032787e-01 2.76970815091726e-01 1.64225053355976e-03
8.38524590163934e-01 2.75407139844960e-01 1.64361807882695e-03
8.49344262295082e-01 2.73852292533155e-01 1.64484979194837e-03
8.60163934426230e-01 2.72306223317033e-01 1.64594883649847e-03
8.70983606557377e-01 2.70768882638690e-01 1.64691828817883e-03
8.81803278688525e-01 2.69240221218294e-01 1.64776113689881e-03
8.92622950819672e-01 2.67720190057690e-01 1.64848029096134e-03
9.03442622950820e-01 2.66208740433601e-01 1.64907858108379e-03
9.14262295081967e-01 2.64705823897822e-01 1.64955876195133e-03
9.25081967213115e-01 2.63211392275668e-01 1.64992351547880e-03
9.35901639344262e-01 2.61725397664434e-01 1.65017545347025e-03
9.46721311475410e-01 2.60247792431854e-01 1.65031712056788e-03
9.57540983606557e-01 2.58778529213063e-01 1.65035099539784e-03
9.68360655737705e-01 2.57317560913662e-01 1.65027949371071e-03
9.79180327868852e-01 2.55864840703582e-01 1.65010497141730e-03
9.90000000000000e-01 2.54420322017142e-01 1.64982972539023e-03
1.00081967213115e+00 2.52983958551550e-01 1.64945599667911e-03
1.01163934426230e+00 2.51555704262614e-01 1.64898596922146e-03
1.02245901639344e+00 2.50135513374524e-01 1.64842177487427e-03
1.03327868852459e+00 2.48723340364154e-01 1.64776549673121e-03
1.04409836065574e+00 2.47319139965426e-01 1.64701917049929e-03
1.05491803278689e+00 2.45922867154769e-01 1.64618477634931e-03
1.06573770491803e+00 2.44534477189157e-01 1.64526424808405e-03
1.07655737704918e+00 2.43153925564841e-01 1.64425948226412e-03
1.08737704918033e+00 2.41781168029325e-01 1.64317233161026e-03
1.09819672131148e+00 2.40416160567689e-01 1.64200459930338e-03
1.10901639344262e+00 2.39058859438302e-01 1.64075804762187e-03
1.11983606557377e+00 2.37709221133967e-01 1.63943440654476e-03
1.13065573770492e+00 2.36367202393089e-01 1.63803536377828e-03
1.14147540983607e+00 2.35032760198333e-01 1.63656257305842e-03
1.15229508196721e+00 2.33705851763871e-01 1.63501764488607e-03
1.16311475409836e+00 2.32386434568365e-01 1.63340215453525e-03
1.17393442622951e+00 2.31074466318964e-01 1.63171765005347e-03
1.18475409836066e+00 2.29769904961558e-01 1.62996564265447e-03
1.19557377049180e+00 2.28472708679497e-01 1.62814761445534e-03
1.20639344262295e+00 2.27182835881668e-01 1.62626500954907e-03
1.21721311475410e+00 2.25900245233037e-01 1.62431924147043e-03
1.22803278688525e+00 2.24624895621195e-01 1.62231170066083e-03
1.23885245901639e+00 2.23356746165832e-01 1.62024374837931e-03
1.24967213114754e+00 2.22095756207487e-01 1.61811671137320e-03
1.26049180327869e+00 2.20841885336355e-01 1.61593188898964e-03
1.27131147540984e+00 2.19595093360628e-01 1.61369056027996e-03
1.28213114754098e+00 2.18355340315393e-01 1.61139397504619e-03
1.29295081967213e+00 2.17122586461374e-01 1.60904336072443e-03
1.30377049180328e+00 2.15896792274381e-01 1.60663991404026e-03
1.31459016393443e+00 2.14677918472074e-01 1.60418480767769e-03
1.32540983606557e+00 2.13465925984455e-01 1.60167919695945e-03
1.33622950819672e+00 2.12260775962076e-01 1.59912421125282e-03
1.34704918032787e+00 2.11062429774848e-01 1.59652096044970e-03
1.35786885245902e+00 2.09870849002118e-01 1.59387052696018e-03
1.36868852459016e+00 2.08685995457591e-01 1.59117397198633e-03
1.37950819672131e+00 2.07507831161756e-01 1.58843234181281e-03
1.39032786885246e+00 2.06336318349515e-01 1.58564665957342e-03
1.40114754098361e+00 2.05171419468993e-01 1.58281793136669e-03
1.41196721311475e+00 2.04013097172240e-01 1.57994713856715e-03
1.42278688524590e+00 2.02861314338448e-01 1.57703524375103e-03
1.43360655737705e+00 2.01716034048161e-01 1.57408319663154e-03
1.44442622950820e+00 2.00577219590360e-01 1.57109192878245e-03
1.45524590163934e+00 1.99444834453614e-01 1.56806234897034e-03
1.46606557377049e+00 1.98318842348099e-01 1.56499534883491e-03
1.47688524590164e+00 1.97199207181071e-01 1.56189180858769e-03
1.48770491803279e+00 1.96085893063538e-01 1.55875258936733e-03
1.49852459016393e+00 1.94978864309139e-01 1.55557853877846e-03
1.50934426229508e+00 1.93878085425800e-01 1.55237048374922e-03
1.52016393442623e+00 1.92783521136310e-01 1.54912923590684e-03
1.53098360655738e+00 1.91695136355317e-01 1.54585559697649e-03
1.54180327868852e+00 1.90612896195540e-01 1.54255035145909e-03
1.55262295081967e+00 1.89536765966674e-01 1.53921427188600e-03
1.56344262295082e+00 1.88466711167520e-01 1.53584811196783e-03
1.57426229508197e+00 1.87402697505245e-01 1.53245261169621e-03
1.58508196721311e+00 1.86344690873771e-01 1.52902850246300e-03
1.59590163934426e+00 1.85292657359571e-01 1.52557650234234e-03
1.60672131147541e+00 1.84246563234169e-01 1.52209731189489e-03
1.61754098360656e+00 1.83206374972443e-01 1.51859161907667e-03
1.62836065573771e+00 1.82172059232029e-01 1.51506010416806e-03
1.63918032786885e+00 1.81143582858789e-01 1.51150343298014e-03
1.65000000000000e+00 1.80120912885772e-01 1.50792226165217e-03
1.66081967213115e+00 1.79104016526112e-01 1.50431723028826e-03
1.67163934426230e+00 1.78092861190205e-01 1.50068896762157e-03
1.68245901639344e+00 1.77087414466312e-01 1.49703809570351e-03
1.69327868852459e+00 1.76087644125671e-01 1.49336522339291e-03
1.70409836065574e+00 1.75093518121481e-01 1.48967095092412e-03
1.71491803278689e+00 1.74105004582190e-01 1.48595586380451e-03
1.72573770491803e+00 1.73122071827617e-01 1.48222053725509e-03
1.73655737704918e+00 1.72144688350673e-01 1.47846554067279e-03
1.74737704918033e+00 1.71172822822143e-01 1.47469143341854e-03
1.75819672131148e+00 1.70206444084275e-01 1.47089876105699e-03
1.76901639344262e+00 1.69245521166138e-01 1.46708805964049e-03
1.77983606557377e+00 1.68290023266155e-01 1.46325986001354e-03
1.79065573770492e+00 1.67339919756636e-01 1.45941468177039e-03
1.80147540983607e+00 1.66395180182811e-01 1.45555303744799e-03
1.81229508196721e+00 1.65455774256738e-01 1.45167542685452e-03
1.82311475409836e+00 1.64521671871759e-01 1.44778234115195e-03
1.83393442622951e+00 1.63592843086009e-01 1.44387426696303e-03
1.84475409836066e+00 1.62669258126655e-01 1.43995168057575e-03
1.85557377049180e+00 1.61750887388959e-01 1.43601505194686e-03
1.86639344262295e+00 1.60837701430501e-01 1.43206483926159e-03
1.87721311475410e+00 1.59929670984788e-01 1.42810149282910e-03
1.88803278688525e+00 1.59026766945668e-01 1.42412545900115e-03
1.89885245901639e+00 1.58128960371306e-01 1.42013717641179e-03
1.90967213114754e+00 1.57236222478661e-01 1.41613707260926e-03
1.92049180327869e+00 1.56348524656471e-01 1.41212556782177e-03
1.93131147540984e+00 1.55465838450332e-01 1.40810307874261e-03
1.94213114754098e+00 1.54588135566478e-01 1.40407001314684e-03
1.95295081967213e+00 1.53715387870882e-01 1.40002677358163e-03
1.96377049180328e+00 1.52847567383998e-01 1.39597375230478e-03
1.97459016393443e+00 1.51984646293012e-01 1.39191133488071e-03
1.98540983606557e+00 1.51126596937718e-01 1.38783990380062e-03
1.99622950819672e+00 1.50273391814063e-01 1.38375983331479e-03
2.00704918032787e+00 1.49425003573278e-01 1.37967149296277e-03
2.01786885245902e+00 1.48581405016878e-01 1.37557524271674e-03
2.02868852459016e+00 1.47742569108221e-01 1.37147143641827e-03
2.03950819672131e+00 1.46908468959129e-01 1.36736042523953e-03
2.05032786885246e+00 1.46079077833224e-01 1.36324255272592e-03
2.06114754098361e+00 1.45254369145076e-01 1.35911815817459e-03
2.07196721311475e+00 1.44434316455451e-01 1.35498757196907e-03
2.08278688524590e+00 1.43618893482224e-01 1.35085111886985e-03
2.09360655737705e+00 1.42808074087698e-01 1.34670912132390e-03
2.10442622950820e+00 1.42001832281742e-01 1.34256189623937e-03
2.11524590163934e+00 1.41200142217225e-01 1.33840975208696e-03
2.12606557377049e+00 1.40402978200455e-01 1.33425299208266e-03
2.13688524590164e+00 1.39610314679015e-01 1.33009191739298e-03
2.14770491803279e+00 1.38822126244744e-01 1.32592682252071e-03
2.15852459016393e+00 1.38038387632931e-01 1.32175799843167e-03
2.16934426229508e+00 1.37259073717961e-01 1.31758572821141e-03
2.18016393442623e+00 1.36484159523191e-01 1.31341029011240e-03
2.19098360655738e+00 1.35713620209403e-01 1.30923196062334e-03
2.20180327868852e+00 1.34947431077611e-01 1.30505101003849e-03
2.21262295081967e+00 1.34185567568273e-01 1.30086770545513e-03
2.22344262295082e+00 1.33428005257148e-01 1.29668230659941e-03
2.23426229508197e+00 1.32674719864634e-01 1.29249506874676e-03
2.24508196721311e+00 1.31925687244807e-01 1.28830624566179e-03
2.25590163934426e+00 1.31180883388059e-01 1.28411608671060e-03
2.26672131147541e+00 1.30440284417117e-01 1.27992483426007e-03
2.27754098360656e+00 1.29703866595989e-01 1.27573272650666e-03
2.28836065573770e+00 1.28971606319428e-01 1.27154000032471e-03
2.29918032786885e+00 1.28243480115450e-01 1.26734688713872e-03
2.31000000000000e+00 1.27519464644588e-01 1.26315361570378e-03
2.32081967213115e+00 1.26799536696088e-01 1.25896040821505e-03
2.33163934426230e+00 1.26083673196383e-01 1.25476748301859e-03
2.34245901639344e+00 1.25371851199075e-01 1.25057505734340e-03
2.35327868852459e+00 1.24664047887315e-01 1.24638334333480e-03
2.36409836065574e+00 1.23960240573070e-01 1.24219255072234e-03
2.37491803278689e+00 1.23260406693495e-01 1.23800288307979e-03
2.38573770491803e+00 1.22564523818965e-01 1.23381454042564e-03
2.39655737704918e+00 1.21872569643544e-01 1.22962772184294e-03
2.40737704918033e+00 1.21184521987230e-01 1.22544262289050e-03
2.41819672131148e+00 1.20500358792452e-01 1.22125943326691e-03
2.42901639344262e+00 1.19820058131781e-01 1.21707833933219e-03
2.43983606557377e+00 1.19143598198760e-01 1.21289952664750e-03
2.45065573770492e+00 1.18470957310038e-01 1.20872317627630e-03
2.46147540983607e+00 1.17802113904685e-01 1.20454946726387e-03
2.47229508196721e+00 1.17137046540848e-01 1.20037857314727e-03
2.48311475409836e+00 1.16475733903054e-01 1.19621066437452e-03
2.49393442622951e+00 1.15818154793492e-01 1.19204591074318e-03
2.50475409836066e+00 1.15164288134022e-01 1.18788447784305e-03
2.51557377049180e+00 1.14514112965506e-01 1.18372652943797e-03
2.52639344262295e+00 1.13867608444615e-01 1.17957222410947e-03
2.53721311475410e+00 1.13224753850761e-01 1.17542171757900e-03
2.54803278688525e+00 1.12585528577789e-01 1.17127516504890e-03
2.55885245901639e+00 1.11949912135877e-01 1.16713271887814e-03
2.56967213114754e+00 1.11317884148457e-01 1.16299452648199e-03
2.58049180327869e+00 1.10689424358880e-01 1.15886073258568e-03
2.59131147540984e+00 1.10064512622404e-01 1.15473148149440e-03
2.60213114754098e+00 1.09443128908014e-01 1.15060691377408e-03
2.61295081967213e+00 1.08825253297787e-01 1.14648716846832e-03
2.62377049180328e+00 1.08210865983941e-01 1.14237237996278e-03
2.63459016393443e+00 1.07599947275162e-01 1.13826268014923e-03
2.64540983606557e+00 1.06992477588973e-01 1.13415820060783e-03
2.65622950819672e+00 1.06388437453451e-01 1.13005906941221e-03
2.66704918032787e+00 1.05787807506606e-01 1.12596541326063e-03
2.67786885245902e+00 1.05190568493562e-01 1.12187735445980e-03
2.68868852459016e+00 1.04596701272568e-01 1.11779501300352e-03
2.69950819672131e+00 1.04006186807716e-01 1.11371850866915e-03
2.71032786885246e+00 1.03419006170570e-01 1.10964795794445e-03
2.72114754098361e+00 1.02835140539557e-01 1.10558347607692e-03
2.73196721311475e+00 1.02254571197272e-01 1.10152517416922e-03
2.74278688524590e+00 1.01677279536189e-01 1.09747316117840e-03
2.75360655737705e+00 1.01103247051717e-01 1.09342754593030e-03
2.76442622950820e+00 1.00532455343735e-01 1.08938843510885e-03
2.77524590163934e+00 9.99648861139884e-02 1.08535593143637e-03
2.78606557377049e+00 9.94005211715810e-02 1.08133013561340e-03
2.79688524590164e+00 9.88393424262777e-02 1.07731114827501e-03
2.80770491803279e+00 9.82813318899724e-02 1.07329906711804e-03
2.81852459016393e+00 9.77264716761155e-02 1.06929398881188e-03
2.82934426229508e+00 9.71747439972181e-02 1.06529600628392e-03
2.84016393442623e+00 9.66261311700745e-02 1.06130521058435e-03
2.85098360655738e+00 9.60806156093702e-02 1.05732169276713e-03
2.86180327868852e+00 9.55381798290700e-02 1.05334554112471e-03
2.87262295081967e+00 9.49988064418601e-02 1.04937684302691e-03
2.88344262295082e+00 9.44624781567582e-02 1.04541568230619e-03
2.89426229508197e+00 9.39291777840821e-02 1.04146214105161e-03
2.90508196721311e+00 9.33988882293447e-02 1.03751630141753e-03
2.91590163934426e+00 9.28715924945683e-02 1.03357824381330e-03
2.92672131147541e+00 9.23472736759755e-02 1.02964804526257e-03
2.93754098360656e+00 9.18259149687702e-02 1.02572578114547e-03
2.94836065573771e+00 9.13074996612464e-02 1.02181152695529e-03
2.95918032786885e+00 9.07920111360445e-02 1.01790535571198e-03
2.97000000000000e+00 9.02794328696220e-02 1.01400733967891e-03
2.98081967213115e+00 8.97697484300387e-02 1.01011754791658e-03
2.99163934426230e+00 8.92629414815087e-02 1.00623604795817e-03
3.00245901639344e+00 8.87589957787700e-02 1.00236290750037e-03
3.01327868852459e+00 8.82578951682741e-02 9.98498191912105e-04
3.02409836065574e+00 8.77596235876714e-02 9.94641965887224e-04
3.03491803278689e+00 8.72641650636871e-02 9.90794291087581e-04
3.04573770491803e+00 8.67715037164568e-02 9.86955227756038e-04
3.05655737704918e+00 8.62816237541433e-02 9.83124836343229e-04
3.06737704918033e+00 8.57945094740644e-02 9.79303175875111e-04
3.07819672131148e+00 8.53101452606398e-02 9.75490302472382e-04
3.08901639344262e+00 8.48285155895663e-02 9.71686270917884e-04
3.09983606557377e+00 8.43496050226183e-02 9.67891136236618e-04
3.11065573770492e+00 8.38733982087278e-02 9.64104951364076e-04
3.12147540983607e+00 8.33998798834943e-02 9.60327768690813e-04
3.13229508196721e+00 8.29290348672144e-02 9.56559637855555e-04
3.14311475409836e+00 8.24608480688599e-02 9.52800607253317e-04
3.15393442622951e+00 8.19953044811053e-02 9.49050725557287e-04
3.16475409836066e+00 8.15323891813497e-02 9.45310039472059e-04
3.17557377049180e+00 8.10720873312410e-02 9.41578595220974e-04
3.18639344262295e+00 8.06143841747851e-02 9.37856436419433e-04
3.19721311475410e+00 8.01592650421375e-02 9.34143605527276e-04
3.20803278688525e+00 7.97067153448453e-02 9.30440145313842e-04
3.21885245901639e+00 7.92567205768162e-02 9.26746097384766e-04
3.22967213114754e+00 7.88092663124899e-02 9.23061500844389e-04
3.24049180327869e+00 7.83643382104914e-02 9.19386393707533e-04
3.25131147540984e+00 7.79219220090331e-02 9.15720814323032e-04
3.26213114754098e+00 7.74820035268433e-02 9.12064799269508e-04
3.27295081967213e+00 7.70445686627130e-02 9.08418384746724e-04
3.28377049180328e+00 7.66096033937394e-02 9.04781604582766e-04
3.29459016393443e+00 7.61770937788104e-02 9.01154491593303e-04
3.30540983606557e+00 7.57470259542023e-02 8.97537078953250e-04
3.31622950819672e+00 7.53193861344598e-02 8.93929398167884e-04
3.32704918032787e+00 7.48941606119565e-02 8.90331480413891e-04
3.33786885245902e+00 7.44713357552071e-02 8.86743354618344e-04
3.34868852459016e+00 7.40508980121917e-02 8.83165048767697e-04
3.35950819672131e+00 7.36328339061398e-02 8.79596591229261e-04
3.37032786885246e+00 7.32171300363655e-02 8.76038008795697e-04
3.38114754098361e+00 7.28037730778394e-02 8.72489327977404e-04
3.39196721311475e+00 7.23927497795673e-02 8.68950573149666e-04
3.40278688524590e+00 7.19840469677627e-02 8.65421767814494e-04
3.41360655737705e+00 7.15776515418081e-02 8.61902935873522e-04
