Energy (eV)          EEDF (eV^-(3/2))     First Anisotropy
3.11403508771930e-02 3.40817078239503e-02 1.69350952329662e-05
9.34210526315789e-02 3.38760441397717e-02 2.79743245466227e-05
1.55701754385965e-01 3.36716215175986e-02 3.69549016115336e-05
2.17982456140351e-01 3.34684324709989e-02 4.37931367416377e-05
2.80263157894737e-01 3.32664695542793e-02 4.95092555537132e-05
3.42543859649123e-01 3.30657253684792e-02 5.44885179304887e-05
4.04824561403509e-01 3.28661925593219e-02 5.89300637937835e-05
4.67105263157895e-01 3.26678638173588e-02 6.29540110653087e-05
5.29385964912281e-01 3.24707318762256e-02 6.66399343873873e-05
5.91666666666667e-01 3.22747895139211e-02 7.00440124030753e-05
6.53947368421053e-01 3.20800295520343e-02 7.32077850073142e-05
7.16228070175439e-01 3.18864448557580e-02 7.61630716058827e-05
7.78508771929825e-01 3.16940283327363e-02 7.89349349841129e-05
8.40789473684211e-01 3.15027729337144e-02 8.15435676555961e-05
9.03070175438596e-01 3.13126716519790e-02 8.40055460908861e-05
9.65350877192982e-01 3.11237175233036e-02 8.63346949332722e-05
1.02763157894737e+00 3.09359036250643e-02 8.85427004580832e-05
1.08991228070175e+00 3.07492230766232e-02 9.06395572182623e-05
1.15219298245614e+00 3.05636690391869e-02 9.26339006632198e-05
1.21447368421053e+00 3.03792347148692e-02 9.45332594681217e-05
1.27675438596491e+00 3.01959133453477e-02 9.63442493492565e-05
1.33903508771930e+00 3.00136982161121e-02 9.80727257138197e-05
1.40131578947368e+00 2.98325826516021e-02 9.97239047557265e-05
1.46359649122807e+00 2.96525600165420e-02 1.01302459731475e-04
1.52587719298246e+00 2.94736237156925e-02 1.02812599728175e-04
1.58815789473684e+00 2.92957671936278e-02 1.04258134171784e-04
1.65043859649123e+00 2.91189839333995e-02 1.05642525513222e-04
1.71271929824561e+00 2.89432674596092e-02 1.06968933844291e-04
1.77500000000000e+00 2.87686113347913e-02 1.08240254388349e-04
1.83728070175439e+00 2.85950091603238e-02 1.09459148406259e-04
1.89956140350877e+00 2.84224545761997e-02 1.10628070068103e-04
1.96184210526316e+00 2.82509412607968e-02 1.11749289435793e-04
2.02412280701754e+00 2.80804629297945e-02 1.12824911691054e-04
2.08640350877193e+00 2.79110133385260e-02 1.13856894404540e-04
2.14868421052632e+00 2.77425862791219e-02 1.14847062572236e-04
2.21096491228070e+00 2.75751755811703e-02 1.15797121058396e-04
2.27324561403509e+00 2.74087751114990e-02 1.16708666021585e-04
2.33552631578947e+00 2.72433787739480e-02 1.17583194963236e-04
2.39780701754386e+00 2.70789805084584e-02 1.18422115120876e-04
2.46008771929825e+00 2.69155742929397e-02 1.19226751485334e-04
2.52236842105263e+00 2.67531541409275e-02 1.19998353955603e-04
2.58464912280702e+00 2.65917141020795e-02 1.20738103118336e-04
2.64692982456140e+00 2.64312482619651e-02 1.21447115998798e-04
2.70921052631579e+00 2.62717507412526e-02 1.22126450667635e-04
2.77149122807018e+00 2.61132156972927e-02 1.22777110918092e-04
2.83377192982456e+00 2.59556373220805e-02 1.23400050506973e-04
2.89605263157895e+00 2.57990098426581e-02 1.23996176436248e-04
2.95833333333333e+00 2.56433275209045e-02 1.24566352358063e-04
3.02061403508772e+00 2.54885846533269e-02 1.25111401664070e-04
3.08289473684211e+00 2.53347755703503e-02 1.25632109900243e-04
3.14517543859649e+00 2.51818946376281e-02 1.26129227454434e-04
3.20745614035088e+00 2.50299362542976e-02 1.26603472030730e-04
3.26973684210526e+00 2.48788948532931e-02 1.27055530414057e-04
3.33201754385965e+00 2.47287649011439e-02 1.27486060481169e-04
3.39429824561403e+00 2.45795408977719e-02 1.27895693045248e-04
3.45657894736842e+00 2.44312173758602e-02 1.28285033191133e-04
3.51885964912281e+00 2.42837889019539e-02 1.28654661950050e-04
3.58114035087719e+00 2.41372500749449e-02 1.29005137860982e-04
3.64342105263158e+00 2.39915955263158e-02 1.29336997957205e-04
3.70570175438596e+00 2.38468199199473e-02 1.29650759124751e-04
3.76798245614035e+00 2.37029179515381e-02 1.29946918936712e-04
3.83026315789474e+00 2.35598843495710e-02 1.30225956841910e-04
3.89254385964912e+00 2.34177138739463e-02 1.30488335283175e-04
3.95482456140351e+00 2.32764013161851e-02 1.30734500312247e-04
4.01710526315789e+00 2.31359414992381e-02 1.30964882497882e-04
4.07938596491228e+00 2.29963292772980e-02 1.31179897770039e-04
4.14166666666667e+00 2.28575595352744e-02 1.31379947897982e-04
4.20394736842105e+00 2.27196271896221e-02 1.31565421319414e-04
4.26622807017544e+00 2.25825271871288e-02 1.31736693927749e-04
4.32850877192982e+00 2.24462545050748e-02 1.31894129417486e-04
4.39078947368421e+00 2.23108041510499e-02 1.32038079917425e-04
4.45307017543860e+00 2.21761711627710e-02 1.32168886582195e-04
4.51535087719298e+00 2.20423506076036e-02 1.32286879861013e-04
4.57763157894737e+00 2.19093375832779e-02 1.32392380104193e-04
4.63991228070175e+00 2.17771272168032e-02 1.32485698143748e-04
4.70219298245614e+00 2.16457146645940e-02 1.32567135477597e-04
4.76447368421053e+00 2.15150951122940e-02 1.32636984797977e-04
4.82675438596491e+00 2.13852637743296e-02 1.32695530149784e-04
4.88903508771930e+00 2.12562158945499e-02 1.32743047413035e-04
4.95131578947368e+00 2.11279467452295e-02 1.32779804767317e-04
5.01359649122807e+00 2.10004516271719e-02 1.32806062790043e-04
5.07587719298246e+00 2.08737258695373e-02 1.32822074818866e-04
5.13815789473684e+00 2.07477648296723e-02 1.32828087292135e-04
5.20043859649123e+00 2.06225638926989e-02 1.32824339820982e-04
5.26271929824561e+00 2.04981184720736e-02 1.32811065567389e-04
5.32500000000000e+00 2.03744240086842e-02 1.32788491610489e-04
5.38728070175439e+00 2.02514759709299e-02 1.32756838977281e-04
5.44956140350877e+00 2.01292698545557e-02 1.32716322922677e-04
5.51184210526316e+00 2.00078011824874e-02 1.32667153193091e-04
5.57412280701754e+00 1.98870655044514e-02 1.32609534043571e-04
5.63640350877193e+00 1.97670583974659e-02 1.32543664542968e-04
5.69868421052632e+00 1.96477754650183e-02 1.32469738871165e-04
5.76096491228070e+00 1.95292123371263e-02 1.32387946306775e-04
5.82324561403509e+00 1.94113646701782e-02 1.32298471449472e-04
5.88552631578947e+00 1.92942281467740e-02 1.32201494429556e-04
5.94780701754386e+00 1.91777984753712e-02 1.32097190889599e-04
6.01008771929825e+00 1.90620713907186e-02 1.31985732237032e-04
6.07236842105263e+00 1.89470426531046e-02 1.31867285891176e-04
6.13464912280702e+00 1.88327080484010e-02 1.31742015243362e-04
6.19692982456140e+00 1.87190633879103e-02 1.31610079889700e-04
6.25921052631579e+00 1.86061045080312e-02 1.31471635593003e-04
6.32149122807018e+00 1.84938272706511e-02 1.31326834502077e-04
6.38377192982456e+00 1.83822275624448e-02 1.31175825367082e-04
6.44605263157895e+00 1.82713012949089e-02 1.31018753484293e-04
6.50833333333333e+00 1.81610444042115e-02 1.30855760850428e-04
6.57061403508772e+00 1.80514528510438e-02 1.30686986308286e-04
6.63289473684210e+00 1.79425226203083e-02 1.30512565492780e-04
6.69517543859649e+00 1.78342497214670e-02 1.30332631019023e-04
6.75745614035088e+00 1.77266301878956e-02 1.30147312667639e-04
6.81973684210526e+00 1.76196600769058e-02 1.29956737317598e-04
6.88201754385965e+00 1.75133354696016e-02 1.29761029076135e-04
6.94429824561403e+00 1.74076524707353e-02 1.29560309401312e-04
7.00657894736842e+00 1.73026072084153e-02 1.29354697038119e-04
7.06885964912281e+00 1.71981958344164e-02 1.29144308182210e-04
7.13114035087719e+00 1.70944145235830e-02 1.28929256641676e-04
7.19342105263158e+00 1.69912594738417e-02 1.28709653762730e-04
7.25570175438596e+00 1.68887269060632e-02 1.28485608584140e-04
7.31798245614035e+00 1.67868130637837e-02 1.28257227768126e-04
7.38026315789474e+00 1.66855142134882e-02 1.28024615747746e-04
7.44254385964912e+00 1.65848266440498e-02 1.27787874872851e-04
7.50482456140351e+00 1.64847466667360e-02 1.27547105332228e-04
7.56710526315789e+00 1.63852706150739e-02 1.27302405251988e-04
7.62938596491228e+00 1.62863948447156e-02 1.27053870788342e-04
7.69166666666667e+00 1.61881157331774e-02 1.26801596054768e-04
7.75394736842105e+00 1.60904296800924e-02 1.26545673253161e-04
7.81622807017544e+00 1.59933331066900e-02 1.26286192803980e-04
7.87850877192982e+00 1.58968224557956e-02 1.26023243266255e-04
7.94078947368421e+00 1.58008941917001e-02 1.25756911423657e-04
8.00307017543860e+00 1.57055448000304e-02 1.25487282365658e-04
8.06535087719298e+00 1.56107707875036e-02 1.25214439412993e-04
8.12763157894737e+00 1.55165686821530e-02 1.24938464235386e-04
8.18991228070175e+00 1.54229350328441e-02 1.24659436968653e-04
8.25219298245614e+00 1.53298664092678e-02 1.24377436134198e-04
8.31447368421053e+00 1.52373594018153e-02 1.24092538751667e-04
8.37675438596491e+00 1.51454106213434e-02 1.23804820264046e-04
8.43903508771930e+00 1.50540166993810e-02 1.23514354646028e-04
8.50131578947368e+00 1.49631742876727e-02 1.23221214511894e-04
8.56359649122807e+00 1.48728800581679e-02 1.22925471035420e-04
8.62587719298246e+00 1.47831307028987e-02 1.22627194018943e-04
8.68815789473684e+00 1.46939229338592e-02 1.22326451958396e-04
8.75043859649123e+00 1.46052534827836e-02 1.22023311968904e-04
8.81271929824561e+00 1.45171191013318e-02 1.21717839883381e-04
8.87500000000000e+00 1.44295165606632e-02 1.21410100350851e-04
8.93728070175439e+00 1.43424426514211e-02 1.21100156757580e-04
8.99956140350877e+00 1.42558941836157e-02 1.20788071289032e-04
9.06184210526316e+00 1.41698679865069e-02 1.20473904988265e-04
9.12412280701754e+00 1.40843609083947e-02 1.20157717682693e-04
9.18640350877193e+00 1.39993698167864e-02 1.19839568074295e-04
9.24868421052632e+00 1.39148915979969e-02 1.19519513829716e-04
9.31096491228070e+00 1.38309231571306e-02 1.19197611503195e-04
9.37324561403509e+00 1.37474614179677e-02 1.18873916592528e-04
9.43552631578947e+00 1.36645033228519e-02 1.18548483591821e-04
9.49780701754386e+00 1.35820458324914e-02 1.18221365919920e-04
9.56008771929825e+00 1.35000859261093e-02 1.17892616003372e-04
9.62236842105263e+00 1.34186206010694e-02 1.17562285359338e-04
9.68464912280702e+00 1.33376468728546e-02 1.17230424520698e-04
9.74692982456140e+00 1.32571617749579e-02 1.16897083116343e-04
9.80921052631579e+00 1.31771623586921e-02 1.16562309801231e-04
9.87149122807017e+00 1.30976456933275e-02 1.16226152334076e-04
9.93377192982456e+00 1.30186088657371e-02 1.15888657655034e-04
9.99605263157895e+00 1.29400489803730e-02 1.15549871869640e-04
1.00583333333333e+01 1.28619631590049e-02 1.15209840124281e-04
1.01206140350877e+01 1.27843485410838e-02 1.14868606737734e-04
1.01828947368421e+01 1.27072022831651e-02 1.14526215333236e-04
1.02451754385965e+01 1.26305215589627e-02 1.14182708679469e-04
1.03074561403509e+01 1.25543035592457e-02 1.13838128764465e-04
1.03697368421053e+01 1.24785454917351e-02 1.13492516810593e-04
1.04320175438596e+01 1.24032445810018e-02 1.13145913289177e-04
1.04942982456140e+01 1.23283980683649e-02 1.12798357934774e-04
1.05565789473684e+01 1.22540032117906e-02 1.12449889759139e-04
1.06188596491228e+01 1.21800572857916e-02 1.12100547064843e-04
1.06811403508772e+01 1.21065575813274e-02 1.11750367458650e-04
1.07434210526316e+01 1.20335014057050e-02 1.11399387864436e-04
1.08057017543860e+01 1.19608860824803e-02 1.11047644535874e-04
1.08679824561403e+01 1.18887089513600e-02 1.10695173068988e-04
1.09302631578947e+01 1.18169673681043e-02 1.10342008414228e-04
1.09925438596491e+01 1.17456587044297e-02 1.09988184888342e-04
1.10548245614035e+01 1.16747803479130e-02 1.09633736186010e-04
1.11171052631579e+01 1.16043297018954e-02 1.09278695391179e-04
1.11793859649123e+01 1.15343041853877e-02 1.08923094988174e-04
1.12416666666667e+01 1.14647012329753e-02 1.08566966872568e-04
1.13039473684211e+01 1.13955182947245e-02 1.08210342361789e-04
1.13662280701754e+01 1.13267528360888e-02 1.07853252205538e-04
1.14285087719298e+01 1.12584023378166e-02 1.07495726595951e-04
1.14907894736842e+01 1.11904642958582e-02 1.07137795177549e-04
1.15530701754386e+01 1.11229362212747e-02 1.06779487056982e-04
1.16153508771930e+01 1.10558156401465e-02 1.06420830812575e-04
1.16776315789474e+01 1.09891000934824e-02 1.06061854503670e-04
1.17399122807018e+01 1.09227871371302e-02 1.05702585679748e-04
1.18021929824561e+01 1.08568743416865e-02 1.05343051389388e-04
1.18644736842105e+01 1.07913592924081e-02 1.04983278189045e-04
1.19267543859649e+01 1.07262395891234e-02 1.04623292151625e-04
1.19890350877193e+01 1.06615128461445e-02 1.04263118874888e-04
1.20513157894737e+01 1.05971766921795e-02 1.03902783489696e-04
1.21135964912281e+01 1.05332287702464e-02 1.03542310668079e-04
1.21758771929825e+01 1.04696667375858e-02 1.03181724631145e-04
1.22381578947368e+01 1.04064882655757e-02 1.02821049156826e-04
1.23004385964912e+01 1.03436910396460e-02 1.02460307587474e-04
1.23627192982456e+01 1.02812727591937e-02 1.02099522837299e-04
1.24250000000000e+01 1.02192311374986e-02 1.01738717600629e-04
1.24872807017544e+01 1.01575639011474e-02 1.01377913753226e-04
1.25495614035088e+01 1.00962687914355e-02 1.01017132764704e-04
1.26118421052632e+01 1.00353435627904e-02 1.00656396114682e-04
1.26741228070175e+01 9.97478598319055e-03 1.00295724683275e-04
1.27364035087719e+01 9.91459383408315e-03 9.99351389641491e-05
1.27986842105263e+01 9.85476491030328e-03 9.95746590709877e-05
1.28609649122807e+01 9.79529701999286e-03 9.92143047438567e-05
1.29232456140351e+01 9.73618798452046e-03 9.88540953554480e-05
1.29855263157895e+01 9.67743563840143e-03 9.84940499171980e-05
1.30478070175439e+01 9.61903782921861e-03 9.81341870852691e-05
1.31100877192982e+01 9.56099241754344e-03 9.77745251664568e-05
1.31723684210526e+01 9.50329727685760e-03 9.74150821239805e-05
1.32346491228070e+01 9.44595029347510e-03 9.70558755831272e-05
1.32969298245614e+01 9.38894936646484e-03 9.66969228368262e-05
1.33592105263158e+01 9.33229240757366e-03 9.63382408511294e-05
1.34214912280702e+01 9.27597734114981e-03 9.59798462705469e-05
1.34837719298246e+01 9.22000210406690e-03 9.56217554233174e-05
1.35460526315789e+01 9.16436464564837e-03 9.52639843265864e-05
1.36083333333333e+01 9.10906292759230e-03 9.49065486914647e-05
1.36706140350877e+01 9.05409492389679e-03 9.45494639280174e-05
1.37328947368421e+01 8.99945862078569e-03 9.41927451501450e-05
1.37951754385965e+01 8.94515201663484e-03 9.38364071803969e-05
1.38574561403509e+01 8.89117312189877e-03 9.34804645546812e-05
1.39197368421053e+01 8.83751995903775e-03 9.31249315268968e-05
1.39820175438596e+01 8.78419056244541e-03 9.27698220734773e-05
1.40442982456140e+01 8.73118297837669e-03 9.24151498978612e-05
1.41065789473684e+01 8.67849526487624e-03 9.20609284348897e-05
1.41688596491228e+01 8.62612549170735e-03 9.17071708551058e-05
1.42311403508772e+01 8.57407174028117e-03 9.13538900690240e-05
1.42934210526316e+01 8.52233210358641e-03 9.10010987312396e-05
1.43557017543860e+01 8.47090468611953e-03 9.06488092445287e-05
1.44179824561404e+01 8.41978760381530e-03 9.02970337638992e-05
1.44802631578947e+01 8.36897898397775e-03 8.99457842005261e-05
1.45425438596491e+01 8.31847696521154e-03 8.95950722256241e-05
1.46048245614035e+01 8.26827969735383e-03 8.92449092742652e-05
1.46671052631579e+01 8.21838534140643e-03 8.88953065491392e-05
1.47293859649123e+01 8.16879206946847e-03 8.85462750242143e-05
1.47916666666667e+01 8.11949806466943e-03 8.81978254483783e-05
1.48539473684211e+01 8.07050152110256e-03 8.78499683489983e-05
1.49162280701754e+01 8.02180064375873e-03 8.75027140354083e-05
1.49785087719298e+01 7.97339364846068e-03 8.71560726023660e-05
1.50407894736842e+01 7.92527876179763e-03 8.68100539334306e-05
1.51030701754386e+01 7.87745422106033e-03 8.64646677042792e-05
1.51653508771930e+01 7.82991827417649e-03 8.61199233860060e-05
1.52276315789474e+01 7.78266917964655e-03 8.57758302483055e-05
1.52899122807018e+01 7.73570520647994e-03 8.54323973626479e-05
1.53521929824561e+01 7.68902463413161e-03 8.50896336054051e-05
1.54144736842105e+01 7.64262575243905e-03 8.47475476608861e-05
1.54767543859649e+01 7.59650686155958e-03 8.44061480243761e-05
1.55390350877193e+01 7.55066627190812e-03 8.40654430050760e-05
1.56013157894737e+01 7.50510230409525e-03 8.37254407290101e-05
1.56635964912281e+01 7.45981328886576e-03 8.33861491419096e-05
1.57258771929825e+01 7.41479756703738e-03 8.30475760120195e-05
1.57881578947368e+01 7.37005348944012e-03 8.27097289328688e-05
1.58504385964912e+01 7.32557941685575e-03 8.23726153259968e-05
1.59127192982456e+01 7.28137371995782e-03 8.20362424436428e-05
1.59750000000000e+01 7.23743477925192e-03 8.17006174969378e-05
1.60372807017544e+01 7.19376098474502e-03 8.13657472800689e-05
1.60995614035088e+01 7.15035073670490e-03 8.10316384259733e-05
1.61618421052632e+01 7.10720244477871e-03 8.06982976645615e-05
1.62241228070175e+01 7.06431452821049e-03 8.03657314403280e-05
1.62864035087719e+01 7.02168541578321e-03 8.00339460436869e-05
1.63486842105263e+01 6.97931354576129e-03 7.97029476133672e-05
1.64109649122807e+01 6.93719736583330e-03 7.93727421387761e-05
1.64732456140351e+01 6.89533533305514e-03 7.90433354623151e-05
1.65355263157895e+01 6.85372591379349e-03 7.87147332816701e-05
1.65978070175439e+01 6.81236758366966e-03 7.83869411520756e-05
1.66600877192982e+01 6.77125882750369e-03 7.80599644885086e-05
1.67223684210526e+01 6.73039813925888e-03 7.77338085678692e-05
1.67846491228070e+01 6.68978402198661e-03 7.74084785311417e-05
1.68469298245614e+01 6.64941498777148e-03 7.70839793855017e-05
1.69092105263158e+01 6.60928955767683e-03 7.67603160063929e-05
1.69714912280702e+01 6.56940626169053e-03 7.64374931395839e-05
1.70337719298246e+01 6.52976363867113e-03 7.61155154031731e-05
1.70960526315789e+01 6.49036023629436e-03 7.57943872895806e-05
1.71583333333333e+01 6.45119461099988e-03 7.54741131675074e-05
1.72206140350877e+01 6.41226532793841e-03 7.51546972838509e-05
1.72828947368421e+01 6.37357096091920e-03 7.48361437656086e-05
1.73451754385965e+01 6.33511009235772e-03 7.45184566217394e-05
1.74074561403509e+01 6.29688131322377e-03 7.42016397450018e-05
1.74697368421053e+01 6.25888322298984e-03 7.38856969137739e-05
1.75320175438596e+01 6.22111442957983e-03 7.35706317938285e-05
1.75942982456140e+01 6.18357354931798e-03 7.32564479400915e-05
1.76565789473684e+01 6.14625920687827e-03 7.29431487983663e-05
1.77188596491228e+01 6.10917003523397e-03 7.26307377070366e-05
1.77811403508772e+01 6.07230467560758e-03 7.23192178987642e-05
1.78434210526316e+01 6.03566177742102e-03 7.20085925021143e-05
1.79057017543860e+01 5.99923999824622e-03 7.16988645431759e-05
1.79679824561404e+01 5.96303800375589e-03 7.13900369471966e-05
1.80302631578947e+01 5.92705446767464e-03 7.10821125401505e-05
1.80925438596491e+01 5.89128807173041e-03 7.07750940502896e-05
1.81548245614035e+01 5.85573750560615e-03 7.04689841096778e-05
1.82171052631579e+01 5.82040146689184e-03 7.01637852556981e-05
1.82793859649123e+01 5.78527866103674e-03 6.98594999325496e-05
1.83416666666667e+01 5.75036780130202e-03 6.95561304926982e-05
1.84039473684211e+01 5.71566760871356e-03 6.92536791983284e-05
1.84662280701754e+01 5.68117681201514e-03 6.89521482227659e-05
1.85285087719298e+01 5.64689414762182e-03 6.86515396518765e-05
1.85907894736842e+01 5.61281835957370e-03 6.83518554854463e-05
1.86530701754386e+01 5.57894819948989e-03 6.80530976385453e-05
1.87153508771930e+01 5.54528242652275e-03 6.77552679428684e-05
1.87776315789474e+01 5.51181980731244e-03 6.74583681480468e-05
1.88399122807018e+01 5.47855911594177e-03 6.71623999229599e-05
1.89021929824561e+01 5.44549913389126e-03 6.68673648570078e-05
1.89644736842105e+01 5.41263864999447e-03 6.65732644613836e-05
1.90267543859649e+01 5.37997646039371e-03 6.62801001703210e-05
1.90890350877193e+01 5.34751136849583e-03 6.59878733423065e-05
1.91513157894737e+01 5.31524218492849e-03 6.56965852612986e-05
1.92135964912281e+01 5.28316772749651e-03 6.54062371379210e-05
1.92758771929825e+01 5.25128682113857e-03 6.51168301106362e-05
1.93381578947368e+01 5.21959829788422e-03 6.48283652468957e-05
1.94004385964912e+01 5.18810099681099e-03 6.45408435442852e-05
1.94627192982456e+01 5.15679376400197e-03 6.42542659316508e-05
1.95250000000000e+01 5.12567545250345e-03 6.39686333506469e-05
1.95872807017544e+01 5.09474492212565e-03 6.36839465143912e-05
1.96495614035088e+01 5.06400103987524e-03 6.34002060706771e-05
