Energy (eV)          EEDF (eV^-(3/2))     First Anisotropy
1.17924528301887e-02 1.63224502885450e-01 8.39210817334641e-05
3.53773584905660e-02 1.62164811395643e-01 1.38593644342146e-04
5.89622641509434e-02 1.61111999673596e-01 1.83001934948517e-04
8.25471698113208e-02 1.60066023049869e-01 2.16765224950746e-04
1.06132075471698e-01 1.59026837150794e-01 2.44945733239236e-04
1.29716981132075e-01 1.57994397890518e-01 2.69456338229126e-04
1.53301886792453e-01 1.56968661463795e-01 2.91286425262738e-04
1.76886792452830e-01 1.55949584354573e-01 3.11033141042731e-04
2.00471698113208e-01 1.54937123335246e-01 3.29092319199549e-04
2.24056603773585e-01 1.53931235446990e-01 3.45743582412373e-04
2.47641509433962e-01 1.52931878015662e-01 3.61193814109872e-04
2.71226415094340e-01 1.51939008648256e-01 3.75601582215234e-04
2.94811320754717e-01 1.50952585218800e-01 3.89091858835507e-04
3.18396226415094e-01 1.49972565878863e-01 4.01765390537245e-04
3.41981132075472e-01 1.48998909054792e-01 4.13704932359423e-04
3.65566037735849e-01 1.48031573436630e-01 4.24979541922152e-04
3.89150943396226e-01 1.47070517985707e-01 4.35647628431950e-04
4.12735849056604e-01 1.46115701932251e-01 4.45759175851930e-04
4.36320754716981e-01 1.45167084766209e-01 4.55357395611834e-04
4.59905660377359e-01 1.44224626243013e-01 4.64479980266248e-04
4.83490566037736e-01 1.43288286381413e-01 4.73160072805477e-04
5.07075471698113e-01 1.42358025455612e-01 4.81427023463207e-04
5.30660377358491e-01 1.41433803999784e-01 4.89306989920600e-04
5.54245283018868e-01 1.40515582806056e-01 4.96823421126575e-04
5.77830188679245e-01 1.39603322917607e-01 5.03997447928568e-04
6.01415094339623e-01 1.38696985632290e-01 5.10848202975762e-04
6.25000000000000e-01 1.37796532500716e-01 5.17393087000721e-04
6.48584905660377e-01 1.36901925320095e-01 5.23647988723272e-04
6.72169811320755e-01 1.36013126138515e-01 5.29627470305895e-04
6.95754716981132e-01 1.35130097247766e-01 5.35344924220697e-04
7.19339622641510e-01 1.34252801185799e-01 5.40812705666516e-04
7.42924528301887e-01 1.33381200734960e-01 5.46042247686166e-04
7.66509433962264e-01 1.32515258916838e-01 5.51044158662147e-04
7.90094339622642e-01 1.31654938994289e-01 5.55828306567029e-04
8.13679245283019e-01 1.30800204469738e-01 5.60403893706842e-04
8.37264150943396e-01 1.29951019080423e-01 5.64779520502032e-04
8.60849056603774e-01 1.29107346800083e-01 5.68963241341165e-04
8.84433962264151e-01 1.28269151837301e-01 5.72962615183063e-04
9.08018867924528e-01 1.27436398631105e-01 5.76784748875745e-04
9.31603773584906e-01 1.26609051852356e-01 5.80436335511450e-04
9.55188679245283e-01 1.25787076402149e-01 5.83923689912285e-04
9.78773584905660e-01 1.24970437407705e-01 5.87252778984555e-04
1.00235849056604e+00 1.24159100223520e-01 5.90429248424880e-04
1.02594339622642e+00 1.23353030432131e-01 5.93458450191625e-04
1.04952830188679e+00 1.22552193830194e-01 5.96345460992777e-04
1.07311320754717e+00 1.21756556450158e-01 5.99095105364321e-04
1.09669811320755e+00 1.20966084530115e-01 6.01711973989540e-04
1.12028301886792e+00 1.20180744534779e-01 6.04200434887205e-04
1.14386792452830e+00 1.19400503153553e-01 6.06564656562600e-04
1.16745283018868e+00 1.18625327278164e-01 6.08808616343442e-04
1.19103773584906e+00 1.17855184028791e-01 6.10936113938810e-04
1.21462264150943e+00 1.17090040725985e-01 6.12950783105165e-04
1.23820754716981e+00 1.16329864915163e-01 6.14856101800668e-04
1.26179245283019e+00 1.15574624340118e-01 6.16655403202759e-04
1.28537735849057e+00 1.14824286960208e-01 6.18351879522342e-04
1.30896226415094e+00 1.14078820948621e-01 6.19948597396410e-04
1.33254716981132e+00 1.13338194673553e-01 6.21448500626323e-04
1.35613207547170e+00 1.12602376719858e-01 6.22854418089496e-04
1.37971698113208e+00 1.11871335865360e-01 6.24169070368706e-04
1.40330188679245e+00 1.11145041101272e-01 6.25395075445171e-04
1.42688679245283e+00 1.10423461609726e-01 6.26534955482458e-04
1.45047169811321e+00 1.09706566778125e-01 6.27591137459869e-04
1.47405660377358e+00 1.08994326197532e-01 6.28565964479710e-04
1.49764150943396e+00 1.08286709646593e-01 6.29461695924493e-04
1.52122641509434e+00 1.07583687109751e-01 6.30280512504208e-04
1.54481132075472e+00 1.06885228756966e-01 6.31024520315705e-04
1.56839622641509e+00 1.06191304960981e-01 6.31695754252603e-04
1.59198113207547e+00 1.05501886277995e-01 6.32296181574048e-04
1.61556603773585e+00 1.04816943464037e-01 6.32827704882437e-04
1.63915094339623e+00 1.04136447456525e-01 6.33292166203545e-04
1.66273584905660e+00 1.03460369385796e-01 6.33691345862417e-04
1.68632075471698e+00 1.02788680573641e-01 6.34026970845760e-04
1.70990566037736e+00 1.02121352519978e-01 6.34300713519143e-04
1.73349056603774e+00 1.01458356917628e-01 6.34514194758697e-04
1.75707547169811e+00 1.00799665635496e-01 6.34668986306433e-04
1.78066037735849e+00 1.00145250732638e-01 6.34766612671097e-04
1.80424528301887e+00 9.94950844421622e-02 6.34808554087419e-04
1.82783018867925e+00 9.88491391811181e-02 6.34796244793391e-04
1.85141509433962e+00 9.82073875491344e-02 6.34731080007437e-04
1.87500000000000e+00 9.75698023167191e-02 6.34614414159216e-04
1.89858490566038e+00 9.69363564380187e-02 6.34447563195110e-04
1.92216981132075e+00 9.63070230360576e-02 6.34231806206211e-04
1.94575471698113e+00 9.56817754149199e-02 6.33968386688964e-04
1.96933962264151e+00 9.50605870455765e-02 6.33658514799694e-04
1.99292452830189e+00 9.44434315744463e-02 6.33303365361043e-04
2.01650943396226e+00 9.38302828221121e-02 6.32904083858278e-04
2.04009433962264e+00 9.32211147729726e-02 6.32461784453740e-04
2.06367924528302e+00 9.26159015863486e-02 6.31977551762686e-04
2.08726415094340e+00 9.20146175834247e-02 6.31452442022836e-04
2.11084905660377e+00 9.14172372578800e-02 6.30887483956511e-04
2.13443396226415e+00 9.08237352633206e-02 6.30283680556873e-04
2.15801886792453e+00 9.02340864207433e-02 6.29642006997509e-04
2.18160377358491e+00 8.96482657173200e-02 6.28963415893773e-04
2.20518867924528e+00 8.90662482971859e-02 6.28248835245590e-04
2.22877358490566e+00 8.84880094711695e-02 6.27499169857013e-04
2.25235849056604e+00 8.79135247051669e-02 6.26715302203815e-04
2.27594339622642e+00 8.73427696294765e-02 6.25898093038117e-04
2.29952830188679e+00 8.67757200275864e-02 6.25048382189476e-04
2.32311320754717e+00 8.62123518451342e-02 6.24166989114269e-04
2.34669811320755e+00 8.56526411790847e-02 6.23254714278138e-04
2.37028301886792e+00 8.50965642840097e-02 6.22312337081202e-04
2.39386792452830e+00 8.45440975709604e-02 6.21340620386395e-04
2.41745283018868e+00 8.39952175994882e-02 6.20340308494337e-04
2.44103773584906e+00 8.34499010858860e-02 6.19312128248816e-04
2.46462264150943e+00 8.29081248931320e-02 6.18256789652643e-04
2.48820754716981e+00 8.23698660388130e-02 6.17174986262496e-04
2.51179245283019e+00 8.18351016854044e-02 6.16067396356863e-04
2.53537735849057e+00 8.13038091458086e-02 6.14934680915735e-04
2.55896226415094e+00 8.07759658822918e-02 6.13777487708417e-04
2.58254716981132e+00 8.02515494992884e-02 6.12596449329078e-04
2.60613207547170e+00 7.97305377507097e-02 6.11392184132881e-04
2.62971698113208e+00 7.92129085308850e-02 6.10165296720473e-04
2.65330188679245e+00 7.86986398815987e-02 6.08916378226193e-04
2.67688679245283e+00 7.81877099833210e-02 6.07646007322771e-04
2.70047169811321e+00 7.76800971601181e-02 6.06354748280045e-04
2.72405660377358e+00 7.71757798786408e-02 6.05043154682856e-04
2.74764150943396e+00 7.66747367416131e-02 6.03711767545659e-04
2.77122641509434e+00 7.61769464943399e-02 6.02361116120396e-04
2.79481132075472e+00 7.56823880165132e-02 6.00991718285103e-04
2.81839622641509e+00 7.51910403284867e-02 5.99604080757002e-04
2.84198113207547e+00 7.47028825833337e-02 5.98198699458575e-04
2.86556603773585e+00 7.42178940728987e-02 5.96776059714122e-04
2.88915094339623e+00 7.37360542200955e-02 5.95336637092742e-04
2.91273584905660e+00 7.32573425831189e-02 5.93880895591018e-04
2.93632075471698e+00 7.27817388544984e-02 5.92409290942709e-04
2.95990566037736e+00 7.23092228553540e-02 5.90922268854754e-04
2.98349056603774e+00 7.18397745410100e-02 5.89420265687400e-04
3.00707547169811e+00 7.13733739937783e-02 5.87903708754435e-04
3.03066037735849e+00 7.09100014283785e-02 5.86373016469946e-04
3.05424528301887e+00 7.04496371849321e-02 5.84828599096511e-04
3.07783018867925e+00 6.99922617327238e-02 5.83270857021358e-04
3.10141509433962e+00 6.95378556693040e-02 5.81700183801658e-04
3.12500000000000e+00 6.90863997152475e-02 5.80116964493083e-04
3.14858490566038e+00 6.86378747191908e-02 5.78521576253503e-04
3.17216981132075e+00 6.81922616512552e-02 5.76914388592847e-04
3.19575471698113e+00 6.77495416079151e-02 5.75295763483311e-04
3.21933962264151e+00 6.73096958056076e-02 5.73666056029296e-04
3.24292452830189e+00 6.68727055841005e-02 5.72025612837317e-04
3.26650943396226e+00 6.64385524056399e-02 5.70374774827735e-04
3.29009433962264e+00 6.60072178501551e-02 5.68713875654743e-04
3.31367924528302e+00 6.55786836197911e-02 5.67043242247223e-04
3.33726415094340e+00 6.51529315328982e-02 5.65363195019379e-04
3.36084905660377e+00 6.47299435284160e-02 5.63674047953848e-04
3.38443396226415e+00 6.43097016600291e-02 5.61976109205584e-04
3.40801886792453e+00 6.38921880991920e-02 5.60269679563951e-04
3.43160377358491e+00 6.34773851343164e-02 5.58555055056003e-04
3.45518867924528e+00 6.30652751663752e-02 5.56832525454851e-04
3.47877358490566e+00 6.26558407129900e-02 5.55102374768452e-04
3.50235849056604e+00 6.22490644029255e-02 5.53364881418935e-04
3.52594339622642e+00 6.18449289800470e-02 5.51620318305280e-04
3.54952830188679e+00 6.14434172979617e-02 5.49868952974922e-04
3.57311320754717e+00 6.10445123238512e-02 5.48111047681820e-04
3.59669811320755e+00 6.06481971332542e-02 5.46346859918691e-04
3.62028301886792e+00 6.02544549127011e-02 5.44576640995490e-04
3.64386792452830e+00 5.98632689589524e-02 5.42800638400027e-04
3.66745283018868e+00 5.94746226750592e-02 5.41019094419686e-04
3.69103773584906e+00 5.90884995739441e-02 5.39232246572105e-04
3.71462264150943e+00 5.87048832734773e-02 5.37440327753383e-04
3.73820754716981e+00 5.83237574999466e-02 5.35643566281573e-04
3.76179245283019e+00 5.79451060832608e-02 5.33842186383139e-04
3.78537735849057e+00 5.75689129593259e-02 5.32036406853736e-04
3.80896226415094e+00 5.71951621693213e-02 5.30226443254478e-04
3.83254716981132e+00 5.68238378560683e-02 5.28412506613776e-04
3.85613207547170e+00 5.64549242672759e-02 5.26594803821044e-04
3.87971698113208e+00 5.60884057510084e-02 5.24773537755532e-04
3.90330188679245e+00 5.57242667588321e-02 5.22948907318771e-04
3.92688679245283e+00 5.53624918413973e-02 5.21121107880563e-04
3.95047169811321e+00 5.50030656505868e-02 5.19290330018142e-04
3.97405660377359e+00 5.46459729388253e-02 5.17456761563158e-04
3.99764150943396e+00 5.42911985557275e-02 5.15620586378788e-04
4.02122641509434e+00 5.39387274510447e-02 5.13781984721361e-04
4.04481132075472e+00 5.35885446704851e-02 5.11941133353150e-04
4.06839622641509e+00 5.32406353585729e-02 5.10098205566201e-04
4.09198113207547e+00 5.28949847545716e-02 5.08253371291023e-04
4.11556603773585e+00 5.25515781952580e-02 5.06406797118558e-04
4.13915094339623e+00 5.22104011109449e-02 5.04558646700172e-04
4.16273584905660e+00 5.18714390273673e-02 5.02709079583780e-04
4.18632075471698e+00 5.15346775650334e-02 5.00858253083709e-04
4.20990566037736e+00 5.12001024361968e-02 4.99006321151358e-04
4.23349056603774e+00 5.08676994474590e-02 4.97153434699867e-04
4.25707547169811e+00 5.05374544960007e-02 4.95299741700300e-04
4.28066037735849e+00 5.02093535721085e-02 4.93445387197159e-04
4.30424528301887e+00 4.98833827554966e-02 4.91590513678120e-04
4.32783018867925e+00 4.95595282170178e-02 4.89735259978089e-04
4.35141509433962e+00 4.92377762180448e-02 4.87879763027104e-04
4.37500000000000e+00 4.89181131076656e-02 4.86024156786981e-04
4.39858490566038e+00 4.86005253250532e-02 4.84168572551401e-04
4.42216981132075e+00 4.82849993959791e-02 4.82313139031384e-04
4.44575471698113e+00 4.79715219351158e-02 4.80457982365842e-04
4.46933962264151e+00 4.76600796426317e-02 4.78603226463999e-04
4.49292452830189e+00 4.73506593057446e-02 4.76748991973507e-04
4.51650943396226e+00 4.70432477981321e-02 4.74895397916107e-04
4.54009433962264e+00 4.67378320773289e-02 4.73042560686085e-04
4.56367924528302e+00 4.64343991868894e-02 4.71190594328489e-04
4.58726415094340e+00 4.61329362531562e-02 4.69339610615380e-04
4.61084905660377e+00 4.58334304873623e-02 4.67489719052542e-04
4.63443396226415e+00 4.55358691824732e-02 4.65641027197283e-04
4.65801886792453e+00 4.52402397146004e-02 4.63793639686640e-04
4.68160377358491e+00 4.49465295424390e-02 4.61947659769481e-04
4.70518867924528e+00 4.46547262048490e-02 4.60103188363092e-04
4.72877358490566e+00 4.43648173228319e-02 4.58260324311686e-04
4.75235849056604e+00 4.40767905965311e-02 4.56419164454624e-04
4.77594339622642e+00 4.37906338071537e-02 4.54579803630155e-04
4.79952830188679e+00 4.35063348140391e-02 4.52742334741592e-04
4.82311320754717e+00 4.32238815565268e-02 4.50906848760417e-04
4.84669811320755e+00 4.29432620510912e-02 4.49073435015181e-04
4.87028301886792e+00 4.26644643925908e-02 4.47242180293276e-04
4.89386792452830e+00 4.23874767537393e-02 4.45413170248910e-04
4.91745283018868e+00 4.21122873829046e-02 4.43586488531016e-04
4.94103773584906e+00 4.18388846058663e-02 4.41762217018279e-04
4.96462264150943e+00 4.15672568230922e-02 4.39940435878842e-04
4.98820754716981e+00 4.12973925114472e-02 4.38121223571084e-04
5.01179245283019e+00 4.10292802215299e-02 4.36304657112933e-04
5.03537735849057e+00 4.07629085788108e-02 4.34490811235312e-04
5.05896226415094e+00 4.04982662831282e-02 4.32679759703581e-04
5.08254716981132e+00 4.02353421066379e-02 4.30871574495675e-04
5.10613207547170e+00 3.99741248954227e-02 4.29066326021090e-04
5.12971698113208e+00 3.97146035669583e-02 4.27264083174989e-04
5.15330188679245e+00 3.94567671116797e-02 4.25464913337144e-04
5.17688679245283e+00 3.92006045905016e-02 4.23668882623224e-04
5.20047169811321e+00 3.89461051358574e-02 4.21876055087023e-04
5.22405660377358e+00 3.86932579512179e-02 4.20086493961320e-04
5.24764150943396e+00 3.84420523091797e-02 4.18300260883094e-04
5.27122641509434e+00 3.81924775529405e-02 4.16517416098113e-04
5.29481132075472e+00 3.79445230939395e-02 4.14738018509928e-04
5.31839622641509e+00 3.76981784132933e-02 4.12962125677439e-04
5.34198113207547e+00 3.74534330594863e-02 4.11189793862523e-04
5.36556603773585e+00 3.72102766497691e-02 4.09421078027457e-04
5.38915094339623e+00 3.69686988678977e-02 4.07656032064612e-04
5.41273584905660e+00 3.67286894650555e-02 4.05894708058229e-04
5.43632075471698e+00 3.64902382594007e-02 4.04137157428328e-04
5.45990566037736e+00 3.62533351343180e-02 4.02383430213482e-04
5.48349056603774e+00 3.60179700397377e-02 4.00633575258044e-04
5.50707547169811e+00 3.57841329899816e-02 3.98887640255547e-04
5.53066037735849e+00 3.55518140650465e-02 3.97145671745003e-04
5.55424528301887e+00 3.53210034084965e-02 3.95407715325930e-04
5.57783018867925e+00 3.50916912283046e-02 3.93673814962085e-04
5.60141509433962e+00 3.48638677964215e-02 3.91944014057168e-04
5.62500000000000e+00 3.46375234471419e-02 3.90218354778361e-04
5.64858490566038e+00 3.44126485783157e-02 3.88496878231526e-04
5.67216981132075e+00 3.41892336493385e-02 3.86779624500895e-04
5.69575471698113e+00 3.39672691823302e-02 3.85066632644517e-04
5.71933962264151e+00 3.37467457601678e-02 3.83357940895643e-04
5.74292452830189e+00 3.35276540272550e-02 3.81653586005906e-04
5.76650943396226e+00 3.33099846891106e-02 3.79953604257419e-04
5.79009433962264e+00 3.30937285108410e-02 3.78258030824620e-04
5.81367924528302e+00 3.28788763182533e-02 3.76566899938407e-04
5.83726415094340e+00 3.26654189959784e-02 3.74880244922403e-04
5.86084905660377e+00 3.24533474885554e-02 3.73198098187808e-04
5.88443396226415e+00 3.22426527985926e-02 3.71520491422195e-04
5.90801886792453e+00 3.20333259874730e-02 3.69847454969716e-04
5.93160377358491e+00 3.18253581749603e-02 3.68179018783878e-04
5.95518867924528e+00 3.16187405377701e-02 3.66515211825274e-04
5.97877358490566e+00 3.14134643105937e-02 3.64856062215531e-04
6.00235849056604e+00 3.12095207843440e-02 3.63201597270502e-04
6.02594339622642e+00 3.10069013071524e-02 3.61551843494732e-04
6.04952830188679e+00 3.08055972826506e-02 3.59906826613875e-04
6.07311320754717e+00 3.06056001709422e-02 3.58266571569089e-04
6.09669811320755e+00 3.04069014869189e-02 3.56631102690550e-04
6.12028301886792e+00 3.02094928008879e-02 3.55000443123025e-04
6.14386792452830e+00 3.00133657382017e-02 3.53374615706765e-04
6.16745283018868e+00 2.98185119779459e-02 3.51753642419096e-04
6.19103773584906e+00 2.96249232538573e-02 3.50137544516042e-04
6.21462264150943e+00 2.94325913527164e-02 3.48526342562050e-04
6.23820754716981e+00 2.92415081152418e-02 3.46920056424165e-04
6.26179245283019e+00 2.90516654345148e-02 3.45318705434968e-04
6.28537735849057e+00 2.88630552565540e-02 3.43722307850122e-04
6.30896226415094e+00 2.86756695799621e-02 3.42130881678504e-04
6.33254716981132e+00 2.84895004546958e-02 3.40544444154937e-04
6.35613207547170e+00 2.83045399829118e-02 3.38963011873205e-04
6.37971698113208e+00 2.81207803174614e-02 3.37386600813416e-04
6.40330188679245e+00 2.79382136627151e-02 3.35815226335951e-04
6.42688679245283e+00 2.77568322730870e-02 3.34248903334526e-04
6.45047169811321e+00 2.75766284535618e-02 3.32687645723940e-04
6.47405660377358e+00 2.73975945593574e-02 3.31131467222680e-04
6.49764150943396e+00 2.72197229947710e-02 3.29580380854817e-04
6.52122641509434e+00 2.70430062139595e-02 3.28034399075042e-04
6.54481132075472e+00 2.68674367195285e-02 3.26493533793956e-04
6.56839622641509e+00 2.66930070632931e-02 3.24957796371826e-04
6.59198113207547e+00 2.65197098448950e-02 3.23427197643259e-04
6.61556603773585e+00 2.63475377125438e-02 3.21901747911061e-04
6.63915094339623e+00 2.61764833616612e-02 3.20381457087316e-04
6.66273584905660e+00 2.60065395353511e-02 3.18866334218009e-04
6.68632075471698e+00 2.58376990240824e-02 3.17356388207929e-04
6.70990566037736e+00 2.56699546646260e-02 3.15851627358323e-04
6.73349056603774e+00 2.55032993407565e-02 3.14352059482220e-04
6.75707547169811e+00 2.53377259819558e-02 3.12857691927238e-04
6.78066037735849e+00 2.51732275640970e-02 3.11368531569320e-04
6.80424528301887e+00 2.50097971081727e-02 3.09884584945551e-04
6.82783018867925e+00 2.48474276807270e-02 3.08405857804946e-04
6.85141509433962e+00 2.46861123935516e-02 3.06932355792319e-04
6.87500000000000e+00 2.45258444026885e-02 3.05464084011374e-04
6.89858490566038e+00 2.43666169090770e-02 3.04001047133291e-04
6.92216981132075e+00 2.42084231573376e-02 3.02543249417730e-04
6.94575471698113e+00 2.40512564364034e-02 3.01090694706627e-04
6.96933962264151e+00 2.38951100783268e-02 2.99643386549212e-04
6.99292452830189e+00 2.37399774586761e-02 2.98201327777372e-04
7.01650943396226e+00 2.35858519962454e-02 2.96764521151130e-04
7.04009433962264e+00 2.34327271521171e-02 2.95332968945671e-04
7.06367924528302e+00 2.32805964302596e-02 2.93906673053540e-04
7.08726415094340e+00 2.31294533763859e-02 2.92485635004111e-04
7.11084905660377e+00 2.29792915785363e-02 2.91069855957422e-04
7.13443396226415e+00 2.28301046659589e-02 2.89659336821834e-04
7.15801886792453e+00 2.26818863094728e-02 2.88254077852709e-04
7.18160377358491e+00 2.25346302211919e-02 2.86854079261746e-04
7.20518867924528e+00 2.23883301536428e-02 2.85459340826475e-04
7.22877358490566e+00 2.22429799003176e-02 2.84069861986637e-04
7.25235849056604e+00 2.20985732946015e-02 2.82685641862150e-04
7.27594339622642e+00 2.19551042103115e-02 2.81306679246980e-04
7.29952830188679e+00 2.18125665606447e-02 2.79932972626845e-04
7.32311320754717e+00 2.16709542987036e-02 2.78564520173199e-04
7.34669811320755e+00 2.15302614164639e-02 2.77201319851966e-04
7.37028301886792e+00 2.13904819450998e-02 2.75843369050543e-04
7.39386792452830e+00 2.12516099547233e-02 2.74490665143334e-04
7.41745283018868e+00 2.11136395535697e-02 2.73143205128765e-04
7.44103773584906e+00 2.09765648884961e-02 2.71800985718396e-04
