Energy (eV)          EEDF (eV^-(3/2))     First Anisotropy
7.10869565217391e-02 3.84323772359623e-02 2.99408596153827e-05
2.13260869565217e-01 3.78596264884043e-02 4.92379936549208e-05
3.55434782608696e-01 3.72954113413844e-02 6.44644861223225e-05
4.97608695652174e-01 3.67396045903816e-02 7.57115720612696e-05
6.39782608695652e-01 3.61920809265899e-02 8.48301708956366e-05
7.81956521739130e-01 3.56527169086603e-02 9.25287459994987e-05
9.24130434782609e-01 3.51213909348691e-02 9.91782241665866e-05
1.06630434782609e+00 3.45979832157015e-02 1.05005139871881e-04
1.20847826086957e+00 3.40823757484867e-02 1.10161400378478e-04
1.35065217391304e+00 3.35744522829383e-02 1.14755534234748e-04
1.49282608695652e+00 3.30740983099376e-02 1.18868730572022e-04
1.63500000000000e+00 3.25812010223252e-02 1.22563892185496e-04
1.77717391304348e+00 3.20956492915337e-02 1.25891116354349e-04
1.91934782608696e+00 3.16173336510516e-02 1.28891201652921e-04
2.06152173913044e+00 3.11461462625084e-02 1.31597990923812e-04
2.20369565217391e+00 3.06819808925932e-02 1.34039992253917e-04
2.34586956521739e+00 3.02247328957164e-02 1.36241536759010e-04
2.48804347826087e+00 2.97742991833879e-02 1.38223625775747e-04
2.63021739130435e+00 2.93305782034622e-02 1.40004563945947e-04
2.77239130434783e+00 2.88934699156741e-02 1.41600441934410e-04
2.91456521739130e+00 2.84628757739110e-02 1.43025511062853e-04
3.05673913043478e+00 2.80386986989536e-02 1.44292478224453e-04
3.19891304347826e+00 2.76208430570654e-02 1.45412739976261e-04
3.34108695652174e+00 2.72092146424405e-02 1.46396572386351e-04
3.48326086956522e+00 2.68037206517709e-02 1.47253285875145e-04
3.62543478260870e+00 2.64042696637059e-02 1.47991351793598e-04
3.76760869565217e+00 2.60107716216240e-02 1.48618508491826e-04
3.90978260869565e+00 2.56231378098023e-02 1.49141850183624e-04
4.05195652173913e+00 2.52412808336969e-02 1.49567901094194e-04
4.19413043478261e+00 2.48651146031563e-02 1.49902679296255e-04
4.33630434782609e+00 2.44945543099968e-02 1.50151751240598e-04
4.47847826086957e+00 2.41295164099181e-02 1.50320278298029e-04
4.62065217391304e+00 2.37699186029021e-02 1.50413057075750e-04
4.76282608695652e+00 2.34156798170264e-02 1.50434554772807e-04
4.90500000000000e+00 2.30667201877416e-02 1.50388940169583e-04
5.04717391304348e+00 2.27229610400366e-02 1.50280110148987e-04
5.18934782608696e+00 2.23843248727780e-02 1.50111713743624e-04
5.33152173913043e+00 2.20507353390928e-02 1.49887173426811e-04
5.47369565217391e+00 2.17221172292992e-02 1.49609703398793e-04
5.61586956521739e+00 2.13983964557862e-02 1.49282326508039e-04
5.75804347826087e+00 2.10795000344208e-02 1.48907889333426e-04
5.90021739130435e+00 2.07653560687422e-02 1.48489075441375e-04
6.04239130434783e+00 2.04558937332453e-02 1.48028417355349e-04
6.18456521739130e+00 2.01510432589644e-02 1.47528307585955e-04
6.32673913043478e+00 1.98507359161531e-02 1.46991008684825e-04
6.46891304347826e+00 1.95549039988820e-02 1.46418661849160e-04
6.61108695652174e+00 1.92634808111621e-02 1.45813295260893e-04
6.75326086956522e+00 1.89764006504822e-02 1.45176831694347e-04
6.89543478260870e+00 1.86935987930802e-02 1.44511094986238e-04
7.03760869565217e+00 1.84150114805967e-02 1.43817816437648e-04
7.17978260869565e+00 1.81405759044220e-02 1.43098640691719e-04
7.32195652173913e+00 1.78702301916051e-02 1.42355130688365e-04
7.46413043478261e+00 1.76039133920312e-02 1.41588772672284e-04
7.60630434782609e+00 1.73415654635281e-02 1.40800980773002e-04
7.74847826086957e+00 1.70831272587213e-02 1.39993101038430e-04
7.89065217391304e+00 1.68285405113809e-02 1.39166415194476e-04
8.03282608695652e+00 1.65777478242617e-02 1.38322144296407e-04
8.17500000000000e+00 1.63306926551638e-02 1.37461452168408e-04
8.31717391304348e+00 1.60873193042372e-02 1.36585448223969e-04
8.45934782608696e+00 1.58475729023106e-02 1.35695190467001e-04
8.60152173913044e+00 1.56113993976133e-02 1.34791688291632e-04
8.74369565217391e+00 1.53787455436355e-02 1.33875904742463e-04
8.88586956521739e+00 1.51495588879311e-02 1.32948758977974e-04
9.02804347826087e+00 1.49237877594671e-02 1.32011128542155e-04
9.17021739130435e+00 1.47013812572551e-02 1.31063851335415e-04
9.31239130434783e+00 1.44822892386428e-02 1.30107727482538e-04
9.45456521739130e+00 1.42664623087194e-02 1.29143521217640e-04
9.59673913043478e+00 1.40538518084552e-02 1.28171962694095e-04
9.73891304347826e+00 1.38444098037648e-02 1.27193749386137e-04
9.88108695652174e+00 1.36380890753509e-02 1.26209547706997e-04
1.00232608695652e+01 1.34348431073940e-02 1.25219994445072e-04
1.01654347826087e+01 1.32346260776818e-02 1.24225698163243e-04
1.03076086956522e+01 1.30373928462828e-02 1.23227240734909e-04
1.04497826086957e+01 1.28430989443261e-02 1.22225177551694e-04
1.05919565217391e+01 1.26517005694149e-02 1.21220039380777e-04
1.07341304347826e+01 1.24631545700204e-02 1.20212334015848e-04
1.08763043478261e+01 1.22774184376942e-02 1.19202546390894e-04
1.10184782608696e+01 1.20944502974826e-02 1.18191139861092e-04
1.11606521739130e+01 1.19142088984865e-02 1.17178557125463e-04
1.13028260869565e+01 1.17366536045647e-02 1.16165221104673e-04
1.14450000000000e+01 1.15617443851699e-02 1.15151536017330e-04
1.15871739130435e+01 1.13894418048437e-02 1.14137887438348e-04
1.17293478260870e+01 1.12197070188297e-02 1.13124643548616e-04
1.18715217391304e+01 1.10525017597442e-02 1.12112156359438e-04
1.20136956521739e+01 1.08877883304960e-02 1.11100761631147e-04
1.21558695652174e+01 1.07255295957851e-02 1.10090779784401e-04
1.22980434782609e+01 1.05656889737338e-02 1.09082516522633e-04
1.24402173913043e+01 1.04082304276391e-02 1.08076263427068e-04
1.25823913043478e+01 1.02531184578468e-02 1.07072298728445e-04
1.27245652173913e+01 1.01003180925548e-02 1.06070887228095e-04
1.28667391304348e+01 9.94979488355945e-03 1.05072281233866e-04
1.30089130434783e+01 9.80151489480526e-03 1.04076721482754e-04
1.31510869565217e+01 9.65544469597986e-03 1.03084436967060e-04
1.32932608695652e+01 9.51155135497492e-03 1.02095645605445e-04
1.34354347826087e+01 9.36980243046609e-03 1.01110554676739e-04
1.35776086956522e+01 9.23016596459651e-03 1.00129361413544e-04
1.37197826086957e+01 9.09261047477444e-03 9.91522528609787e-05
1.38619565217391e+01 8.95710494960938e-03 9.81794066206437e-05
1.40041304347826e+01 8.82361883884308e-03 9.72109915872271e-05
1.41463043478261e+01 8.69212204750254e-03 9.62471677369759e-05
1.42884782608696e+01 8.56258492911437e-03 9.52880866536915e-05
1.44306521739130e+01 8.43497827902098e-03 9.43338918509413e-05
1.45728260869565e+01 8.30927332779793e-03 9.33847190819798e-05
1.47150000000000e+01 8.18544173476654e-03 9.24406967884401e-05
1.48571739130435e+01 8.06345558078844e-03 9.15019459270241e-05
1.49993478260870e+01 7.94328736445245e-03 9.05685805524454e-05
1.51415217391304e+01 7.82490999335827e-03 8.96407083969969e-05
1.52836956521739e+01 7.70829677885894e-03 8.87184306455638e-05
1.54258695652174e+01 7.59342143004292e-03 8.78018423404181e-05
1.55680434782609e+01 7.48025804780804e-03 8.68910326152791e-05
1.57102173913043e+01 7.36878111902242e-03 8.59860849209432e-05
1.58523913043478e+01 7.25896551077194e-03 8.50870773710014e-05
1.59945652173913e+01 7.15078646402238e-03 8.41940825586267e-05
1.61367391304348e+01 7.04421959007911e-03 8.33071680207499e-05
1.62789130434783e+01 6.93924086301898e-03 8.24263967011479e-05
1.64210869565217e+01 6.83582661497293e-03 8.15518267281006e-05
1.65632608695652e+01 6.73395353078902e-03 8.06835117309721e-05
1.67054347826087e+01 6.63359864277805e-03 7.98215010127541e-05
1.68476086956522e+01 6.53473932553425e-03 7.89658398294967e-05
1.69897826086957e+01 6.43735329026469e-03 7.81165692077942e-05
1.71319565217391e+01 6.34141858149574e-03 7.72737263293888e-05
1.72741304347826e+01 6.24691357036824e-03 7.64373449158558e-05
1.74163043478261e+01 6.15381695035413e-03 7.56074550148450e-05
1.75584782608696e+01 6.06210773245254e-03 7.47840832587769e-05
1.77006521739130e+01 5.97176524045775e-03 7.39672529978514e-05
1.78428260869565e+01 5.88276910629847e-03 7.31569844286407e-05
1.79850000000000e+01 5.79509926544519e-03 7.23532948149456e-05
1.81271739130435e+01 5.70873595191346e-03 7.15561983134103e-05
1.82693478260870e+01 5.62365969524542e-03 7.07657062863055e-05
1.84115217391304e+01 5.53985131466318e-03 6.99818276152023e-05
1.85536956521739e+01 5.45729191523665e-03 6.92045685019827e-05
1.86958695652174e+01 5.37596288362308e-03 6.84339326755678e-05
1.88380434782609e+01 5.29584588387139e-03 6.76699214917195e-05
1.89802173913043e+01 5.21692285328812e-03 6.69125340296305e-05
1.91223913043478e+01 5.13917599836498e-03 6.61617672681575e-05
1.92645652173913e+01 5.06258779037266e-03 6.54176159230295e-05
1.94067391304348e+01 4.98714096260773e-03 6.46800727032824e-05
1.95489130434783e+01 4.91281850528535e-03 6.39491285689961e-05
1.96910869565217e+01 4.83960366211448e-03 6.32247725488311e-05
1.98332608695652e+01 4.76747992651965e-03 6.25069919066011e-05
1.99754347826087e+01 4.69643103792047e-03 6.17957722165508e-05
2.01176086956522e+01 4.62644097806515e-03 6.10910975093768e-05
2.02597826086957e+01 4.55749396708105e-03 6.03929501204166e-05
2.04019565217391e+01 4.48957446094397e-03 5.97013109065148e-05
2.05441304347826e+01 4.42266714693358e-03 5.90161594643902e-05
2.06863043478261e+01 4.35675694053226e-03 5.83374739625012e-05
2.08284782608696e+01 4.29182898202419e-03 5.76652312800679e-05
2.09706521739130e+01 4.22786863314513e-03 5.69994070658478e-05
2.11128260869565e+01 4.16486147378258e-03 5.63399757950787e-05
2.12550000000000e+01 4.10279329872442e-03 5.56869108875475e-05
2.13971739130435e+01 4.04165011417269e-03 5.50401845692243e-05
2.15393478260870e+01 3.98141813545017e-03 5.43997680520444e-05
2.16815217391304e+01 3.92208378302001e-03 5.37656317152688e-05
2.18236956521739e+01 3.86363367971883e-03 5.31377449537962e-05
2.19658695652174e+01 3.80605464774048e-03 5.25160762914661e-05
2.21080434782609e+01 3.74933370566548e-03 5.19005934255269e-05
2.22502173913043e+01 3.69345806553423e-03 5.12912632697182e-05
2.23923913043478e+01 3.63841512996383e-03 5.06880520502284e-05
2.25345652173913e+01 3.58419248906925e-03 5.00909251804849e-05
2.26767391304348e+01 3.53077791839048e-03 4.94998474108508e-05
2.28189130434783e+01 3.47815937540229e-03 4.89147829799004e-05
2.29610869565217e+01 3.42632499704709e-03 4.83356954782452e-05
2.31032608695652e+01 3.37526309706008e-03 4.77625479412905e-05
2.32454347826087e+01 3.32496216333502e-03 4.71953028828132e-05
2.33876086956522e+01 3.27541085532859e-03 4.66339223755098e-05
2.35297826086957e+01 3.22659800129761e-03 4.60783679365145e-05
2.36719565217391e+01 3.17851259640580e-03 4.55286006554424e-05
2.38141304347826e+01 3.13114379960943e-03 4.49845813239568e-05
2.39563043478261e+01 3.08448093142690e-03 4.44462703119994e-05
2.40984782608696e+01 3.03851347153097e-03 4.39136276460968e-05
2.42406521739130e+01 2.99323105637689e-03 4.33866130354240e-05
2.43828260869565e+01 2.94862347686613e-03 4.28651858970431e-05
2.45250000000000e+01 2.90468067604453e-03 4.23493054218311e-05
2.46671739130435e+01 2.86139274666082e-03 4.18389304717571e-05
2.48093478260870e+01 2.81874992946172e-03 4.13340196871892e-05
2.49515217391304e+01 2.77674261045638e-03 4.08345315956378e-05
2.50936956521739e+01 2.73536131892956e-03 4.03404245013069e-05
2.52358695652174e+01 2.69459672530628e-03 3.98516565496010e-05
2.53780434782609e+01 2.65443963904861e-03 3.93681857465797e-05
2.55202173913043e+01 2.61488100658365e-03 3.88899699777892e-05
2.56623913043478e+01 2.57591190926225e-03 3.84169670623631e-05
2.58045652173913e+01 2.53752356120079e-03 3.79491346611138e-05
2.59467391304348e+01 2.49970730774831e-03 3.74864303666954e-05
2.60889130434783e+01 2.46245462308183e-03 3.70288117951097e-05
2.62310869565217e+01 2.42575710843715e-03 3.65762364873349e-05
2.63732608695652e+01 2.38960649021525e-03 3.61286619625919e-05
2.65154347826087e+01 2.35399461811722e-03 3.56860457327097e-05
2.66576086956522e+01 2.31891346330658e-03 3.52483453478565e-05
2.67997826086957e+01 2.28435511647124e-03 3.48155183131627e-05
2.69419565217391e+01 2.25031178642877e-03 3.43875221663570e-05
2.70841304347826e+01 2.21677579797663e-03 3.39643145566531e-05
2.72263043478261e+01 2.18373959029444e-03 3.35458531558345e-05
2.73684782608696e+01 2.15119571523935e-03 3.31320957035023e-05
2.75106521739130e+01 2.11913683566680e-03 3.27230000178850e-05
2.76528260869565e+01 2.08755572377650e-03 3.23185240062644e-05
2.77950000000000e+01 2.05644525948273e-03 3.19186257026379e-05
2.79371739130435e+01 2.02579842870037e-03 3.15232631933916e-05
2.80793478260870e+01 1.99560832209380e-03 3.11323946827897e-05
2.82215217391304e+01 1.96586813318491e-03 3.07459785596054e-05
2.83636956521739e+01 1.93657115693127e-03 3.03639733181293e-05
2.85058695652174e+01 1.90771078821448e-03 2.99863375956595e-05
2.86480434782609e+01 1.87928052035103e-03 2.96130301801788e-05
2.87902173913043e+01 1.85127394362542e-03 2.92440100177481e-05
2.89323913043478e+01 1.82368474384498e-03 2.88792362435608e-05
2.90745652173913e+01 1.79650670082363e-03 2.85186681157582e-05
2.92167391304348e+01 1.76973368726091e-03 2.81622650707677e-05
2.93589130434783e+01 1.74335966707576e-03 2.78099867796770e-05
2.95010869565217e+01 1.71737869414177e-03 2.74617930781111e-05
2.96432608695652e+01 1.69178491094651e-03 2.71176439973335e-05
2.97854347826087e+01 1.66657254727110e-03 2.67774997695130e-05
2.99276086956522e+01 1.64173591888917e-03 2.64413208540551e-05
3.00697826086957e+01 1.61726942620467e-03 2.61090678777773e-05
3.02119565217391e+01 1.59316755323440e-03 2.57807016827598e-05
3.03541304347826e+01 1.56942486611647e-03 2.54561833751428e-05
3.04963043478261e+01 1.54603601196885e-03 2.51354742618981e-05
3.06384782608696e+01 1.52299571768255e-03 2.48185358773322e-05
3.07806521739130e+01 1.50029878873275e-03 2.45053299866685e-05
3.09228260869565e+01 1.47794010800773e-03 2.41958185894599e-05
3.10650000000000e+01 1.45591463465519e-03 2.38899639413294e-05
3.12071739130435e+01 1.43421740287681e-03 2.35877285007907e-05
3.13493478260870e+01 1.41284352101793e-03 2.32890749697782e-05
3.14915217391304e+01 1.39178817025301e-03 2.29939663350347e-05
3.16336956521739e+01 1.37104660357057e-03 2.27023658120476e-05
3.17758695652174e+01 1.35061414470297e-03 2.24142368670613e-05
3.19180434782609e+01 1.33048618707216e-03 2.21295432191990e-05
3.20602173913043e+01 1.31065819275114e-03 2.18482488424577e-05
3.22023913043478e+01 1.29112569144079e-03 2.15703179836609e-05
3.23445652173913e+01 1.27188427940311e-03 2.12957151152115e-05
3.24867391304348e+01 1.25292961864732e-03 2.10244049694606e-05
3.26289130434783e+01 1.23425743577079e-03 2.07563525738465e-05
3.27710869565217e+01 1.21586352105661e-03 2.04915232011961e-05
3.29132608695652e+01 1.19774372752451e-03 2.02298823880173e-05
3.30554347826087e+01 1.17989396999595e-03 1.99713959355123e-05
3.31976086956522e+01 1.16231022417308e-03 1.97160299248041e-05
3.33397826086956e+01 1.14498852567991e-03 1.94637506743060e-05
3.34819565217391e+01 1.12792496932492e-03 1.92145247695186e-05
3.36241304347826e+01 1.11111570806238e-03 1.89683190935238e-05
3.37663043478261e+01 1.09455695217840e-03 1.87251007822278e-05
3.39084782608696e+01 1.07824496843649e-03 1.84848372399593e-05
3.40506521739130e+01 1.06217607923591e-03 1.82474961397172e-05
3.41928260869565e+01 1.04634666178257e-03 1.80130454233487e-05
3.43350000000000e+01 1.03075314727222e-03 1.77814533141157e-05
3.44771739130435e+01 1.01539202004171e-03 1.75526882788524e-05
3.46193478260870e+01 1.00025981691038e-03 1.73267190532680e-05
3.47615217391304e+01 9.85353126263677e-04 1.71035146678802e-05
3.49036956521739e+01 9.70668587329733e-04 1.68830444083579e-05
3.50458695652174e+01 9.56202889421628e-04 1.66652778284817e-05
3.51880434782609e+01 9.41952771191033e-04 1.64501847497527e-05
3.53302173913043e+01 9.27915019892916e-04 1.62377352609503e-05
3.54723913043478e+01 9.14086470661208e-04 1.60278997284928e-05
3.56145652173913e+01 9.00464005757359e-04 1.58206487628552e-05
3.57567391304348e+01 8.87044553982484e-04 1.56159532400725e-05
3.58989130434783e+01 8.73825089868552e-04 1.54137843238043e-05
3.60410869565217e+01 8.60802633035539e-04 1.52141134302039e-05
3.61832608695652e+01 8.47974247519464e-04 1.50169122386828e-05
3.63254347826087e+01 8.35337041110516e-04 1.48221526910512e-05
3.64676086956522e+01 8.22888164700968e-04 1.46298070002925e-05
3.66097826086957e+01 8.10624811609617e-04 1.44398476202873e-05
3.67519565217391e+01 7.98544217049805e-04 1.42522472644857e-05
3.68941304347826e+01 7.86643657404119e-04 1.40669789250881e-05
3.70363043478261e+01 7.74920449644725e-04 1.38840158414225e-05
3.71784782608696e+01 7.63371950728462e-04 1.37033315091150e-05
3.73206521739130e+01 7.51995557000962e-04 1.35248996789217e-05
3.74628260869565e+01 7.40788703609664e-04 1.33486943555403e-05
3.76050000000000e+01 7.29748863925544e-04 1.31746898048252e-05
3.77471739130435e+01 7.18873548944915e-04 1.30028605269307e-05
3.78893478260870e+01 7.08160306814941e-04 1.28331812721936e-05
3.80315217391304e+01 6.97606722193181e-04 1.26656270574700e-05
3.81736956521739e+01 6.87210415732611e-04 1.25001731381240e-05
3.83158695652174e+01 6.76969043545171e-04 1.23367950156344e-05
3.84580434782609e+01 6.66880296673356e-04 1.21754684361910e-05
3.86002173913043e+01 6.56941900569643e-04 1.20161693892803e-05
3.87423913043478e+01 6.47151614583681e-04 1.18588741136107e-05
3.88845652173913e+01 6.37507231432550e-04 1.17035590732892e-05
3.90267391304348e+01 6.28006576777703e-04 1.15502009713369e-05
3.91689130434783e+01 6.18647508659306e-04 1.13987767636067e-05
3.93110869565217e+01 6.09427917038769e-04 1.12492636339744e-05
3.94532608695652e+01 6.00345723323011e-04 1.11016390006385e-05
3.95954347826087e+01 5.91398879895867e-04 1.09558805145671e-05
3.97376086956522e+01 5.82585369656427e-04 1.08119660644952e-05
3.98797826086956e+01 5.73903205542687e-04 1.06698737554568e-05
4.00219565217391e+01 5.65350430149055e-04 1.05295819205301e-05
4.01641304347826e+01 5.56925115218797e-04 1.03910691329489e-05
4.03063043478261e+01 5.48625361231641e-04 1.02543141837744e-05
4.04484782608696e+01 5.40449296975520e-04 1.01192960872489e-05
4.05906521739130e+01 5.32395079124699e-04 9.98599407915576e-06
4.07328260869565e+01 5.24460891824206e-04 9.85438761517890e-06
4.08750000000000e+01 5.16644946280427e-04 9.72445637498896e-06
4.10171739130435e+01 5.08945480339213e-04 9.59618024320296e-06
4.11593478260870e+01 5.01360758145044e-04 9.46953931938348e-06
4.13015217391304e+01 4.93889069692580e-04 9.34451392836302e-06
4.14436956521739e+01 4.86528730460380e-04 9.22108460046682e-06
4.15858695652174e+01 4.79278081031117e-04 9.09923207593545e-06
4.17280434782609e+01 4.72135486717465e-04 8.97893730324397e-06
4.18702173913044e+01 4.65099337193553e-04 8.86018143742535e-06
4.20123913043478e+01 4.58168046131908e-04 8.74294584339999e-06
4.21545652173913e+01 4.51340050829757e-04 8.62721207909049e-06
4.22967391304348e+01 4.44613811905410e-04 8.51296190393466e-06
4.24389130434783e+01 4.37987812901949e-04 8.40017728768761e-06
4.25810869565217e+01 4.31460559961936e-04 8.28884039290408e-06
4.27232608695652e+01 4.25030581490615e-04 8.17893357858415e-06
4.28654347826087e+01 4.18696427824149e-04 8.07043939849023e-06
4.30076086956522e+01 4.12456670902783e-04 7.96334060393448e-06
4.31497826086957e+01 4.06309903934757e-04 7.85762012856652e-06
4.32919565217391e+01 4.00254741121983e-04 7.75326109577377e-06
4.34341304347826e+01 3.94289817304280e-04 7.65024682634351e-06
4.35763043478261e+01 3.88413787666207e-04 7.54856082269811e-06
4.37184782608696e+01 3.82625327433858e-04 7.44818677197800e-06
4.38606521739130e+01 3.76923131576195e-04 7.34910854437643e-06
4.40028260869565e+01 3.71305914510826e-04 7.25131019148297e-06
4.41450000000000e+01 3.65772409814163e-04 7.15477594853772e-06
4.42871739130435e+01 3.60321369923701e-04 7.05949022094141e-06
4.44293478260870e+01 3.54951565893762e-04 6.96543759055635e-06
4.45715217391304e+01 3.49661787080991e-04 6.87260282223986e-06
4.47136956521739e+01 3.44450840884034e-04 6.78097084987909e-06
4.48558695652174e+01 3.39317552474654e-04 6.69052677892107e-06
