Energy (eV)          EEDF (eV^-(3/2))     First Anisotropy
3.12500000000000e-01 1.50045442304882e-01 3.66769196357457e-04
9.37500000000000e-01 1.26204458989124e-01 5.59405185013962e-04
1.56250000000000e+00 1.06151611299020e-01 6.25344708606784e-04
2.18750000000000e+00 8.92849957254631e-02 6.27096003718408e-04
2.81250000000000e+00 7.50983462628752e-02 5.99922190199189e-04
3.43750000000000e+00 6.31658383986493e-02 5.58719817125762e-04
4.06250000000000e+00 5.31293076233384e-02 5.11336202566523e-04
4.68750000000000e+00 4.46874988141641e-02 4.62246452757414e-04
5.31250000000000e+00 3.75870238028229e-02 4.14061920397991e-04
5.93750000000000e+00 3.16147557111918e-02 3.68283530404482e-04
6.56250000000000e+00 2.65914317643652e-02 3.25723504479770e-04
7.18750000000000e+00 2.23662725639399e-02 2.86758851772607e-04
7.81250000000000e+00 1.88124563143993e-02 2.51490849583679e-04
8.43750000000000e+00 1.58233121575999e-02 2.19848340236760e-04
9.06250000000000e+00 1.33091183550128e-02 1.91655811342599e-04
9.68750000000000e+00 1.11944092124013e-02 1.66678637659026e-04
1.03125000000000e+01 9.41570991195648e-03 1.44653150526387e-04
1.09375000000000e+01 7.91963126092456e-03 1.25306459512120e-04
1.15625000000000e+01 6.66126716896495e-03 1.08369279640016e-04
1.21875000000000e+01 5.60284675313913e-03 9.35839596518534e-05
1.28125000000000e+01 4.71260061230054e-03 8.07092165153171e-05
1.34375000000000e+01 3.96380724113372e-03 6.95226200045631e-05
1.40625000000000e+01 3.33399096113815e-03 5.98215567437459e-05
1.46875000000000e+01 2.80424729376387e-03 5.14231855217476e-05
1.53125000000000e+01 2.35867552619203e-03 4.41637433371456e-05
1.59375000000000e+01 1.98390143773308e-03 3.78974540126953e-05
1.65625000000000e+01 1.66867586106414e-03 3.24952147235847e-05
1.71875000000000e+01 1.40353702877490e-03 2.78431812066114e-05
1.78125000000000e+01 1.18052657026274e-03 2.38413334222248e-05
1.84375000000000e+01 9.92950634378894e-04 2.04020756054564e-05
1.90625000000000e+01 8.35178967716089e-04 1.74489048411095e-05
1.96875000000000e+01 7.02475917699196e-04 1.49151683045716e-05
2.03125000000000e+01 5.90858287891032e-04 1.27429195194976e-05
2.09375000000000e+01 4.96975778917753e-04 1.08818772373259e-05
2.15625000000000e+01 4.18010426345170e-04 9.28848599731512e-06
2.21875000000000e+01 3.51592017047149e-04 7.92507446361121e-06
2.28125000000000e+01 2.95726945215493e-04 6.75910580720950e-06
2.34375000000000e+01 2.48738372563104e-04 5.76251337572608e-06
2.40625000000000e+01 2.09215896577355e-04 4.91111443128333e-06
2.46875000000000e+01 1.75973216072891e-04 4.18409466034338e-06
2.53125000000000e+01 1.48012523338956e-04 3.56355634080694e-06
2.59375000000000e+01 1.24494554080835e-04 3.03412339843274e-06
2.65625000000000e+01 1.04713396178597e-04 2.58259703012915e-06
2.71875000000000e+01 8.80753011263154e-05 2.19765606876885e-06
2.78125000000000e+01 7.40808621588442e-05 1.86959677996670e-06
2.84375000000000e+01 6.23100241272745e-05 1.59010729327842e-06
2.90625000000000e+01 5.24094751815467e-05 1.35207236369042e-06
2.96875000000000e+01 4.40820418107148e-05 1.14940462477527e-06
3.03125000000000e+01 3.70777689238494e-05 9.76898927145107e-07
3.09375000000000e+01 3.11864172325206e-05 8.30106752318698e-07
3.15625000000000e+01 2.62311527373283e-05 7.05228052250280e-07
3.21875000000000e+01 2.20632389029778e-05 5.99018189295071e-07
3.28125000000000e+01 1.85575722029612e-05 5.08707941913055e-07
3.34375000000000e+01 1.56089270293691e-05 4.31934800071814e-07
3.40625000000000e+01 1.31287972555641e-05 3.66684003519634e-07
3.46875000000000e+01 1.10427396484968e-05 3.11237978398564e-07
3.53125000000000e+01 9.28813939089532e-06 2.64133005590705e-07
3.59375000000000e+01 7.81233064355046e-06 2.24122110199421e-07
3.65625000000000e+01 6.57101573475357e-06 1.90143297991889e-07
3.71875000000000e+01 5.52693552749526e-06 1.61292383644181e-07
3.78125000000000e+01 4.64875105435049e-06 1.36799759235636e-07
3.84375000000000e+01 3.91010285135687e-06 1.16010541458394e-07
3.90625000000000e+01 3.28881975598180e-06 9.83676140875880e-08
3.96875000000000e+01 2.76625342056738e-06 8.33971498756087e-08
4.03125000000000e+01 2.32671856610043e-06 7.06962545088593e-08
4.09375000000000e+01 1.95702217504210e-06 5.99224257680461e-08
4.15625000000000e+01 1.64606749153400e-06 5.07845645986082e-08
4.21875000000000e+01 1.38452094270558e-06 4.30353123381511e-08
4.28125000000000e+01 1.16453198343889e-06 3.64645206635421e-08
4.34375000000000e+01 9.79497455489551e-07 3.08936886128338e-08
4.40625000000000e+01 8.23863388000156e-07 2.61712249189319e-08
4.46875000000000e+01 6.92958290277392e-07 2.21684143967743e-08
4.53125000000000e+01 5.82852932972033e-07 1.87759847180729e-08
4.59375000000000e+01 4.90242408872995e-07 1.59011849906000e-08
4.65625000000000e+01 4.12346933268549e-07 1.34653004820699e-08
4.71875000000000e+01 3.46828406312001e-07 1.14015388944078e-08
4.78125000000000e+01 2.91720232939337e-07 9.65323306410496e-09
4.84375000000000e+01 2.45368293823159e-07 8.17231306421390e-09
4.90625000000000e+01 2.06381295555210e-07 6.91800760801870e-09
4.96875000000000e+01 1.73589009775422e-07 5.85574057125131e-09
5.03125000000000e+01 1.46007147758942e-07 4.95619350324764e-09
5.09375000000000e+01 1.22807816141596e-07 4.19450931176794e-09
5.15625000000000e+01 1.03294666986906e-07 3.54961598796373e-09
5.21875000000000e+01 8.68819963025298e-08 3.00365237869993e-09
5.28125000000000e+01 7.30771636300415e-08 2.54148069165620e-09
5.34375000000000e+01 6.14658050169177e-08 2.15027270165029e-09
5.40625000000000e+01 5.16993955253159e-08 1.81915857211891e-09
5.46875000000000e+01 4.34847879556347e-08 1.53892886303246e-09
5.53125000000000e+01 3.65754137806229e-08 1.30178170796348e-09
5.59375000000000e+01 3.07638821784903e-08 1.10110834471019e-09
5.65625000000000e+01 2.58757550186193e-08 9.31311206688623e-10
5.71875000000000e+01 2.17643109507079e-08 7.87649652644460e-10
5.78125000000000e+01 1.83061414369651e-08 6.66109152640841e-10
5.84375000000000e+01 1.53974465384703e-08 5.63290377997334e-10
5.90625000000000e+01 1.29509192705307e-08 4.76315178309208e-10
5.96875000000000e+01 1.08931250082760e-08 4.02746883875241e-10
6.03125000000000e+01 9.16229728309209e-09 3.40522758751870e-10
6.09375000000000e+01 7.70648380882231e-09 2.87896758414862e-10
6.15625000000000e+01 6.48198708911545e-09 2.43391025324106e-10
6.21875000000000e+01 5.45205279940505e-09 2.05754792944999e-10
6.28125000000000e+01 4.58576657417514e-09 1.73929570276463e-10
6.34375000000000e+01 3.85712608563086e-09 1.47019650030836e-10
6.40625000000000e+01 3.24426056141554e-09 1.24267128866695e-10
6.46875000000000e+01 2.72877431452563e-09 1.05030751374032e-10
6.53125000000000e+01 2.29519458090809e-09 8.87679941546608e-11
6.59375000000000e+01 1.93050709110976e-09 7.50198951379831e-11
6.65625000000000e+01 1.62376543576123e-09 6.33982086116612e-11
6.71875000000000e+01 1.36576249966386e-09 5.35745303587379e-11
6.78125000000000e+01 1.14875410229040e-09 4.52710915030391e-11
6.84375000000000e+01 9.66226549530984e-10 3.82529656397513e-11
6.90625000000000e+01 8.12701119549553e-10 3.23214728138334e-11
6.96875000000000e+01 6.83569614225258e-10 2.73085969637118e-11
7.03125000000000e+01 5.74956040113561e-10 2.30722614703758e-11
7.09375000000000e+01 4.83600267161863e-10 1.94923312057506e-11
7.15625000000000e+01 4.06760173095726e-10 1.64672296070659e-11
7.21875000000000e+01 3.42129336255075e-10 1.39110763658849e-11
7.28125000000000e+01 2.87767806359919e-10 1.17512657783457e-11
7.34375000000000e+01 2.42043875230450e-10 9.92641805312164e-12
7.40625000000000e+01 2.03585099659478e-10 8.38464625175064e-12
7.46875000000000e+01 1.71237106346517e-10 7.08209032743740e-12
7.53125000000000e+01 1.44028942388089e-10 5.98167717505814e-12
7.59375000000000e+01 1.21143931289361e-10 5.05207191201136e-12
7.65625000000000e+01 1.01895159715171e-10 4.26679095069702e-12
7.71875000000000e+01 8.57048591941475e-11 3.60345194625247e-12
7.78125000000000e+01 7.20870639000040e-11 3.04313953275500e-12
7.84375000000000e+01 6.06330239683554e-11 2.56986900340453e-12
7.90625000000000e+01 5.09989365171932e-11 2.17013283505726e-12
7.96875000000000e+01 4.28956261070225e-11 1.83251728102150e-12
8.03125000000000e+01 3.60798648907736e-11 1.54737822276491e-12
8.09375000000000e+01 3.03470719203086e-11 1.30656713577736e-12
8.15625000000000e+01 2.55251724729126e-11 1.10319943359774e-12
8.21875000000000e+01 2.14694330801622e-11 9.31458646175470e-13
8.28125000000000e+01 1.80581172281093e-11 7.86430897528934e-13
8.34375000000000e+01 1.51888313308771e-11 6.63965001228391e-13
8.40625000000000e+01 1.27754512989164e-11 5.60554214405220e-13
8.46875000000000e+01 1.07455374502181e-11 4.73236301956892e-13
8.53125000000000e+01 9.03816017081391e-12 3.99509079468388e-13
8.59375000000000e+01 7.60207105989185e-12 3.37259040575754e-13
8.65625000000000e+01 6.39416466486905e-12 2.84701044306266e-13
8.71875000000000e+01 5.37818463407544e-12 2.40327350712318e-13
8.78125000000000e+01 4.52363545110509e-12 2.02864557650227e-13
8.84375000000000e+01 3.80486708560399e-12 1.71237215270305e-13
8.90625000000000e+01 3.20030508549843e-12 1.44537083968184e-13
8.96875000000000e+01 2.69180300121871e-12 1.21997161520709e-13
9.03125000000000e+01 2.26409770437295e-12 1.02969740395286e-13
9.09375000000000e+01 1.90435125179146e-12 8.69078705893051e-14
9.15625000000000e+01 1.60176554359613e-12 7.33497000495797e-14
9.21875000000000e+01 1.34725820892456e-12 6.19052464678616e-14
9.28125000000000e+01 1.13318999073955e-12 5.22452233543912e-14
9.34375000000000e+01 9.53135446944003e-13 4.40916017087896e-14
9.40625000000000e+01 8.01690085197680e-13 3.72096379871198e-14
9.46875000000000e+01 6.74308142420836e-13 3.14011408018920e-14
9.53125000000000e+01 5.67166139796928e-13 2.64987840690541e-14
9.59375000000000e+01 4.77048117760069e-13 2.23613041312501e-14
9.65625000000000e+01 4.01249106196479e-13 1.88694435844049e-14
9.71875000000000e+01 3.37493932434816e-13 1.59225258291583e-14
9.78125000000000e+01 2.83868929977235e-13 1.34355623636704e-14
9.84375000000000e+01 2.38764498149857e-13 1.13368100404569e-14
9.90625000000000e+01 2.00826788551056e-13 9.56570835883896e-15
9.96875000000000e+01 1.68917068124665e-13 8.07113772128519e-15
1.00312500000000e+02 1.42077539105689e-13 6.80994875488650e-15
1.00937500000000e+02 1.19502589894769e-13 5.74572054927213e-15
1.01562500000000e+02 1.00514613931580e-13 4.84771220988834e-15
1.02187500000000e+02 8.45436707498242e-14 4.08997765708468e-15
1.02812500000000e+02 7.11103787228398e-14 3.45061827438424e-15
1.03437500000000e+02 5.98115260108482e-14 2.91115195677692e-15
1.04062500000000e+02 5.03079678100119e-14 2.45598044437482e-15
1.04687500000000e+02 4.23144466288012e-14 2.07193964338501e-15
1.05312500000000e+02 3.55910300384928e-14 1.74792001543588e-15
1.05937500000000e+02 2.99359088944982e-14 1.47454612573570e-15
1.06562500000000e+02 2.51793398609277e-14 1.24390613771897e-15
1.07187500000000e+02 2.11785504180440e-14 1.04932347522409e-15
1.07812500000000e+02 1.78134534220115e-14 8.85164083805680e-16
1.08437500000000e+02 1.49830425857578e-14 7.46673745122044e-16
1.09062500000000e+02 1.26023606881996e-14 6.29840761691679e-16
1.09687500000000e+02 1.05999495100177e-14 5.31280058381633e-16
1.10312500000000e+02 8.91570495360715e-15 4.48135362643097e-16
1.10937500000000e+02 7.49907296677701e-15 3.77996645372737e-16
1.11562500000000e+02 6.30753211929624e-15 3.18830443242724e-16
1.12187500000000e+02 5.30531728551146e-15 2.68921053986237e-16
1.12812500000000e+02 4.46234612327065e-15 2.26820909072640e-16
1.13437500000000e+02 3.75331612649231e-15 1.91308692431278e-16
1.14062500000000e+02 3.15694514863450e-15 1.61353996964119e-16
1.14687500000000e+02 2.65533260072100e-15 1.36087498926726e-16
1.15312500000000e+02 2.23342214973279e-15 1.14775789260321e-16
1.15937500000000e+02 1.87854978979379e-15 9.68001351909680e-17
1.16562500000000e+02 1.58006372111806e-15 8.16385587306819e-17
1.17187500000000e+02 1.32900462705729e-15 6.88507143757490e-17
1.17812500000000e+02 1.11783675248862e-15 5.80651290492886e-17
1.18437500000000e+02 9.40221711628723e-16 4.89684354998184e-17
1.19062500000000e+02 7.90828235920832e-16 4.12962879058756e-17
1.19687500000000e+02 6.65172151413387e-16 3.48256970039519e-17
1.20312500000000e+02 5.59481782413504e-16 2.93685630508415e-17
1.20937500000000e+02 4.70584741389839e-16 2.47662195320883e-17
1.21562500000000e+02 3.95812707026216e-16 2.08848297319384e-17
1.22187500000000e+02 3.32921332257213e-16 1.76115029282343e-17
1.22812500000000e+02 2.80022878256348e-16 1.48510177782340e-17
1.23437500000000e+02 2.35529552327960e-16 1.25230580179430e-17
1.24062500000000e+02 1.98105848940761e-16 1.05598804143626e-17
1.24687500000000e+02 1.66628463378100e-16 9.67281247859375e-18
