Energy (eV)          EEDF (eV^-(3/2))     First Anisotropy
5.35000000000000e-01 6.69897837714711e-02 1.63998283779935e-04
1.60500000000000e+00 5.63449987542227e-02 2.50132780013290e-04
2.67500000000000e+00 4.73916872973308e-02 2.79613739794119e-04
3.74500000000000e+00 3.98610715155915e-02 2.80393517107751e-04
4.81500000000000e+00 3.35270827645883e-02 2.68240140224951e-04
5.88500000000000e+00 2.81995750732361e-02 2.49814603882005e-04
6.95500000000000e+00 2.37186169728729e-02 2.28625777658996e-04
8.02500000000000e+00 1.99496903639440e-02 2.06674619749230e-04
9.09500000000000e+00 1.67796522905372e-02 1.85128702983370e-04
1.01650000000000e+01 1.41133383954771e-02 1.64659074637370e-04
1.12350000000000e+01 1.18707060919002e-02 1.45628835829377e-04
1.23050000000000e+01 9.98443168948859e-03 1.28206492254483e-04
1.33750000000000e+01 8.39788934123176e-03 1.12437266697806e-04
1.44450000000000e+01 7.06345113881853e-03 9.82892879904586e-05
1.55150000000000e+01 5.94105732562068e-03 8.56840323406264e-05
1.65850000000000e+01 4.99701370514683e-03 7.45165522212979e-05
1.76550000000000e+01 4.20298014323848e-03 6.46689208206562e-05
1.87250000000000e+01 3.53511979890355e-03 5.60190942026878e-05
1.97950000000000e+01 2.97338354374680e-03 4.84466459805083e-05
2.08650000000000e+01 2.50090808831045e-03 4.18363562257607e-05
2.19350000000000e+01 2.10350974711294e-03 3.60803276825394e-05
2.30050000000000e+01 1.76925864524210e-03 3.10790960344416e-05
2.40750000000000e+01 1.48812058420942e-03 2.67420603670392e-05
2.51450000000000e+01 1.25165581589952e-03 2.29874626727912e-05
2.62150000000000e+01 1.05276568182637e-03 1.97420771208035e-05
2.72850000000000e+01 8.85479511821581e-04 1.69407216911399e-05
2.83550000000000e+01 7.44775384865840e-04 1.45256705688234e-05
2.94250000000000e+01 6.26429371314271e-04 1.24460212891099e-05
3.04950000000000e+01 5.26888730776031e-04 1.06570531897309e-05
3.15650000000000e+01 4.43165259056001e-04 9.11960127988971e-06
3.26350000000000e+01 3.72745582439979e-04 7.79946078286573e-06
3.37050000000000e+01 3.13515706363078e-04 6.66683135256538e-06
3.47750000000000e+01 2.63697553416793e-04 5.69580558754409e-06
3.58450000000000e+01 2.21795585569399e-04 4.86390345018432e-06
3.69150000000000e+01 1.86551908201889e-04 4.15165216652636e-06
3.79850000000000e+01 1.56908508185240e-04 3.54220985830590e-06
3.90550000000000e+01 1.31975492388280e-04 3.02103034159091e-06
4.01250000000000e+01 1.11004373138049e-04 2.57556606854659e-06
4.11950000000000e+01 9.33655986637213e-05 2.19500598237978e-06
4.22650000000000e+01 7.85296539893447e-05 1.87004502163868e-06
4.33350000000000e+01 6.60511649252933e-05 1.59268209146142e-06
4.44050000000000e+01 5.55555279611987e-05 1.35604347463348e-06
4.54750000000000e+01 4.67276646905228e-05 1.15422885470151e-06
4.65450000000000e+01 3.93025631752600e-05 9.82177345820230e-07
4.76150000000000e+01 3.30573223030894e-05 8.35551154767351e-07
4.86850000000000e+01 2.78044603090471e-05 7.10634729610155e-07
4.97550000000000e+01 2.33862865839295e-05 6.04247470216788e-07
5.08250000000000e+01 1.96701678114473e-05 5.13668284019572e-07
5.18950000000000e+01 1.65445463238434e-05 4.36570463772108e-07
5.29650000000000e+01 1.39155911472449e-05 3.70965541368887e-07
5.40350000000000e+01 1.17043812013273e-05 3.15154932859720e-07
5.51050000000000e+01 9.84453609310785e-06 2.67688334926407e-07
5.61750000000000e+01 8.28022338143879e-06 2.27327963015239e-07
5.72450000000000e+01 6.96448249039646e-06 1.93017836990778e-07
5.83150000000000e+01 5.85781495554420e-06 1.63857422676443e-07
5.93850000000000e+01 4.92699868234487e-06 1.39079028110902e-07
6.04550000000000e+01 4.14409062082994e-06 1.18028432911207e-07
6.15250000000000e+01 3.48558791687711e-06 1.00148298894468e-07
6.25950000000000e+01 2.93172235790696e-06 8.49639711124801e-08
6.36650000000000e+01 2.46586693229996e-06 7.20713316705375e-08
6.47350000000000e+01 2.07403668748205e-06 6.11264150275723e-08
6.58050000000000e+01 1.74446890246803e-06 5.18365337249346e-08
6.68750000000000e+01 1.46726997166695e-06 4.39526984023013e-08
6.79450000000000e+01 1.23411839942214e-06 3.72631461922157e-08
6.90150000000000e+01 1.03801498919925e-06 3.15878177294224e-08
7.00850000000000e+01 8.73072728116556e-07 2.67736455909933e-08
7.11550000000000e+01 7.34340059163218e-07 2.26905364611842e-08
7.22250000000000e+01 6.17652235748048e-07 1.92279460987982e-08
7.32950000000000e+01 5.19506296250917e-07 1.62919606326428e-08
7.43650000000000e+01 4.36955905320218e-07 1.38028101360396e-08
7.54350000000000e+01 3.67522905058294e-07 1.16927511081482e-08
7.65050000000000e+01 3.09122920866582e-07 9.90426365683989e-09
7.75750000000000e+01 2.60002788642332e-07 8.38851704261675e-09
7.86450000000000e+01 2.18687924894983e-07 7.10406398591978e-09
7.97150000000000e+01 1.83938059836207e-07 6.01572991736422e-09
8.07850000000000e+01 1.54710004553544e-07 5.09366829726409e-09
8.18550000000000e+01 1.30126334540396e-07 4.31255736417388e-09
8.29250000000000e+01 1.09449049463758e-07 3.65091729303264e-09
8.39950000000000e+01 9.20574184374756e-08 3.09052983889013e-09
8.50650000000000e+01 7.74293457174213e-08 2.61594518711355e-09
8.61350000000000e+01 6.51256974178555e-08 2.21406298995031e-09
8.72050000000000e+01 5.47771187379126e-08 1.87377649784577e-09
8.82750000000000e+01 4.60729459521261e-08 1.58567033965643e-09
8.93450000000000e+01 3.87518803035974e-08 1.34176390978078e-09
9.04150000000000e+01 3.25941438306279e-08 1.13529351735850e-09
9.14850000000000e+01 2.74148816451891e-08 9.60527473155626e-10
9.25550000000000e+01 2.30586126000183e-08 8.12609159341924e-10
9.36250000000000e+01 1.93945617536900e-08 6.87423868148539e-10
9.46950000000000e+01 1.63127345145387e-08 5.81485826259520e-10
9.57650000000000e+01 1.37206146094635e-08 4.91842358893148e-10
9.68350000000000e+01 1.15403867508321e-08 4.15992604678508e-10
9.79050000000000e+01 9.70660062610629e-09 3.51818581428171e-10
9.89750000000000e+01 8.16420608329555e-09 2.97526733826469e-10
1.00045000000000e+02 6.86690052862077e-09 2.51598375497208e-10
1.01115000000000e+02 5.77573892536260e-09 2.12747677225916e-10
1.02185000000000e+02 4.85796466614159e-09 1.79886056551843e-10
1.03255000000000e+02 4.08602622148448e-09 1.52091996853750e-10
1.04325000000000e+02 3.43675004452413e-09 1.28585470982693e-10
1.05395000000000e+02 2.89064490248071e-09 1.08706269323230e-10
1.06465000000000e+02 2.43131675099598e-09 9.18956381958875e-11
1.07535000000000e+02 2.04497658588249e-09 7.76807245622402e-11
1.08605000000000e+02 1.72002649802603e-09 6.56613994551160e-11
1.09675000000000e+02 1.44671150483366e-09 5.54990974694791e-11
1.10745000000000e+02 1.21682670622811e-09 4.69073647493312e-11
1.11815000000000e+02 1.02347097402823e-09 3.96438546686720e-11
1.12885000000000e+02 8.60839780485497e-10 3.35035500854805e-11
1.13955000000000e+02 7.24050946701178e-10 2.83130247142762e-11
1.15025000000000e+02 6.08998079901936e-10 2.39255847225443e-11
1.16095000000000e+02 5.12227299769432e-10 2.02171558804335e-11
1.17165000000000e+02 4.30833553155590e-10 1.70828021370653e-11
1.18235000000000e+02 3.62373404557356e-10 1.44337789173434e-11
1.19305000000000e+02 3.04791684326097e-10 1.21950392033076e-11
1.20375000000000e+02 2.56359792595197e-10 1.03031229855337e-11
1.21445000000000e+02 2.15623806813372e-10 8.70437128391864e-12
1.22515000000000e+02 1.81360835074888e-10 7.35341493299543e-12
1.23585000000000e+02 1.52542304976229e-10 6.21189595048930e-12
1.24655000000000e+02 1.28303085932817e-10 5.24738576777660e-12
1.25725000000000e+02 1.07915518009572e-10 4.43247007426641e-12
1.26795000000000e+02 9.07675676123046e-11 3.74397466468638e-12
1.27865000000000e+02 7.63444542750884e-11 3.16231060623641e-12
1.28935000000000e+02 6.42131969808449e-11 2.67092036965309e-12
1.30005000000000e+02 5.40096160965846e-11 2.25580938606001e-12
1.31075000000000e+02 4.54274007221697e-11 1.90514987779022e-12
1.32145000000000e+02 3.82089132550431e-11 1.60894583205717e-12
1.33215000000000e+02 3.21374551245000e-11 1.35874969728738e-12
1.34285000000000e+02 2.70307615132952e-11 1.14742283047072e-12
1.35355000000000e+02 2.27355297785113e-11 9.68932950170715e-13
1.36425000000000e+02 1.91228173152033e-11 8.18182887885419e-13
1.37495000000000e+02 1.60841707069553e-11 6.90865809084027e-13
1.38565000000000e+02 1.35283699606753e-11 5.83342818888977e-13
1.39635000000000e+02 1.13786900877494e-11 4.92539496719652e-13
1.40705000000000e+02 9.57059782438001e-12 4.15858436790133e-13
1.41775000000000e+02 8.04981434678868e-12 3.51105322006730e-13
1.42845000000000e+02 6.77068582410761e-12 2.96426440116248e-13
1.43915000000000e+02 5.69481289305257e-12 2.50255873562239e-13
1.44985000000000e+02 4.78989791128763e-12 2.11270867431770e-13
1.46055000000000e+02 4.02877538409510e-12 1.78354110755136e-13
1.47125000000000e+02 3.38859645781623e-12 1.50561861720069e-13
1.48195000000000e+02 2.85014299860348e-12 1.27097012553380e-13
1.49265000000000e+02 2.39725066516875e-12 1.07286329539414e-13
1.50335000000000e+02 2.01632365620527e-12 9.05612218076848e-14
1.51405000000000e+02 1.69592656522917e-12 7.64414924506757e-14
1.52475000000000e+02 1.42644109034706e-12 6.45216100359783e-14
1.53545000000000e+02 1.19977729339688e-12 5.44591100318140e-14
1.54615000000000e+02 1.00913074047839e-12 4.59647960829749e-14
1.55685000000000e+02 8.48778233246328e-13 3.87944621573498e-14
1.56755000000000e+02 7.13905998831463e-13 3.27418997714193e-14
1.57825000000000e+02 6.00465180661197e-13 2.76329910146858e-14
1.58895000000000e+02 5.05050292022556e-13 2.33207189585302e-14
1.59965000000000e+02 4.24796983550643e-13 1.96809531262468e-14
1.61035000000000e+02 3.57296055628588e-13 1.66088897553969e-14
1.62105000000000e+02 3.00521134356237e-13 1.40160452248319e-14
1.63175000000000e+02 2.52767839924436e-13 1.18277167742547e-14
1.64245000000000e+02 2.12602621233049e-13 9.98083796010388e-15
1.65315000000000e+02 1.78819720770948e-13 8.42216754510133e-15
1.66385000000000e+02 1.50404977846196e-13 7.10676002898814e-15
1.67455000000000e+02 1.26505383541511e-13 5.99667406451694e-15
1.68525000000000e+02 1.06403473436564e-13 5.05988179372181e-15
1.69595000000000e+02 8.94957893681305e-14 4.26934787766406e-15
1.70665000000000e+02 7.52747636513943e-14 3.60225184125962e-15
1.71735000000000e+02 6.33134819277995e-14 3.03933145123367e-15
1.72805000000000e+02 5.32528672210257e-14 2.56432830620851e-15
1.73875000000000e+02 4.47909004672042e-14 2.16351974187854e-15
1.74945000000000e+02 3.76735539203207e-14 1.82532362439050e-15
1.76015000000000e+02 3.16871652541684e-14 1.53996469177325e-15
1.77085000000000e+02 2.66520234318375e-14 1.29919286600451e-15
1.78155000000000e+02 2.24169737909190e-14 1.09604544730773e-15
1.79225000000000e+02 1.88548803893988e-14 9.24646360005174e-16
1.80295000000000e+02 1.58588093921290e-14 7.80036681595889e-16
1.81365000000000e+02 1.33388189233641e-14 6.58031584003262e-16
1.82435000000000e+02 1.12192590169223e-14 5.55099573767501e-16
1.83505000000000e+02 9.43650060863463e-15 4.68260557993805e-16
1.84575000000000e+02 7.93702539556750e-15 3.94999803398500e-16
1.85645000000000e+02 6.67581921970525e-15 3.33195312277934e-16
1.86715000000000e+02 5.61502074556478e-15 2.81056524714856e-16
1.87785000000000e+02 4.72278486512325e-15 2.37072581865009e-16
1.88855000000000e+02 3.97232670954162e-15 1.99968660050961e-16
1.89925000000000e+02 3.34111756897187e-15 1.68669117502605e-16
1.90995000000000e+02 2.81020858200776e-15 1.42266391573560e-16
1.92065000000000e+02 2.36366189197592e-15 1.19994749746621e-16
1.93135000000000e+02 1.98807219341265e-15 1.01208137463540e-16
1.94205000000000e+02 1.67216430557947e-15 8.53614837818766e-17
1.95275000000000e+02 1.40645469219824e-15 7.19949254588065e-17
1.96345000000000e+02 1.18296676624786e-15 6.07204941468604e-17
1.97415000000000e+02 9.94991433289399e-16 5.12108823737467e-17
1.98485000000000e+02 8.36885684844217e-16 4.31899639061518e-17
1.99555000000000e+02 7.03903195610193e-16 3.64247946874815e-17
2.00625000000000e+02 5.92051839054307e-16 3.07188632456590e-17
2.01695000000000e+02 4.97973844008091e-16 2.59063955170453e-17
2.02765000000000e+02 4.18844994573943e-16 2.18475494629409e-17
2.03835000000000e+02 3.52289847329403e-16 1.84243605413033e-17
2.04905000000000e+02 2.96310420654828e-16 1.55373207773810e-17
2.05975000000000e+02 2.49226215442267e-16 1.31024924769559e-17
2.07045000000000e+02 2.09623766610731e-16 1.10490730716982e-17
2.08115000000000e+02 1.76314210967303e-16 9.31734062261342e-18
2.09185000000000e+02 1.48297597603759e-16 7.85692051025934e-18
2.10255000000000e+02 1.24732869428913e-16 6.62532312640342e-18
2.11325000000000e+02 1.04912614684029e-16 5.58671021874461e-18
2.12395000000000e+02 8.82418304832818e-17 4.71085415420488e-18
2.13465000000000e+02 7.42200608620007e-17 4.31509797223214e-18
