Energy (eV)          EEDF (eV^-(3/2))     First Anisotropy
5.55000000000000e-04 6.85616278485495e+01 4.42955209006460e-02
1.66500000000000e-03 6.73886512515476e+01 7.27634205363442e-02
2.77500000000000e-03 6.62357423533309e+01 9.50516917789803e-02
3.88500000000000e-03 6.51025578286194e+01 1.11385371412815e-01
4.99500000000000e-03 6.39887602258522e+01 1.24521058215855e-01
6.10500000000000e-03 6.28940178667074e+01 1.35517600919601e-01
7.21500000000000e-03 6.18180047473328e+01 1.44931211812473e-01
8.32500000000000e-03 6.07604004412654e+01 1.53102654735642e-01
9.43500000000000e-03 5.97208900040112e+01 1.60261121897994e-01
1.05450000000000e-02 5.86991638792583e+01 1.66570825031217e-01
1.16550000000000e-02 5.76949178066936e+01 1.72154940410339e-01
1.27650000000000e-02 5.67078527313971e+01 1.77109141068704e-01
1.38750000000000e-02 5.57376747147862e+01 1.81509802661894e-01
1.49850000000000e-02 5.47840948470838e+01 1.85419258647505e-01
1.60950000000000e-02 5.38468291612831e+01 1.88889316001698e-01
1.72050000000000e-02 5.29255985485859e+01 1.91963692952854e-01
1.83150000000000e-02 5.20201286752857e+01 1.94679760611708e-01
1.94250000000000e-02 5.11301499010744e+01 1.97069819313385e-01
2.05350000000000e-02 5.02553971987455e+01 1.99162054674357e-01
2.16450000000000e-02 4.93956100752720e+01 2.00981267513989e-01
2.27550000000000e-02 4.85505324942337e+01 2.02549440541639e-01
2.38650000000000e-02 4.77199127995719e+01 2.03886184895032e-01
2.49750000000000e-02 4.69035036406492e+01 2.05009096699588e-01
2.60850000000000e-02 4.61010618985903e+01 2.05934045191991e-01
2.71950000000000e-02 4.53123486138835e+01 2.06675408063513e-01
2.83050000000000e-02 4.45371289152212e+01 2.07246265581033e-01
2.94150000000000e-02 4.37751719495573e+01 2.07658562141699e-01
3.05250000000000e-02 4.30262508133611e+01 2.07923241828749e-01
3.16350000000000e-02 4.22901424850482e+01 2.08050363011234e-01
3.27450000000000e-02 4.15666277585659e+01 2.08049195902128e-01
3.38550000000000e-02 4.08554911781166e+01 2.07928306144450e-01
3.49650000000000e-02 4.01565209739966e+01 2.07695626854846e-01
3.60750000000000e-02 3.94695089995334e+01 2.07358521064249e-01
3.71850000000000e-02 3.87942506691014e+01 2.06923836116663e-01
3.82950000000000e-02 3.81305448971980e+01 2.06397951291827e-01
3.94050000000000e-02 3.74781940385630e+01 2.05786819685384e-01
4.05150000000000e-02 3.68370038293210e+01 2.05096005196146e-01
4.16250000000000e-02 3.62067833291318e+01 2.04330715323111e-01
4.27350000000000e-02 3.55873448643302e+01 2.03495830356777e-01
4.38450000000000e-02 3.49785039720383e+01 2.02595929453687e-01
4.49550000000000e-02 3.43800793452346e+01 2.01635314005287e-01
4.60650000000000e-02 3.37918927787622e+01 2.00618028648420e-01
4.71750000000000e-02 3.32137691162612e+01 1.99547880212332e-01
4.82850000000000e-02 3.26455361980086e+01 1.98428454853530e-01
4.93950000000000e-02 3.20870248096508e+01 1.97263133593756e-01
5.05050000000000e-02 3.15380686318135e+01 1.96055106446044e-01
5.16150000000000e-02 3.09985041905730e+01 1.94807385288504e-01
5.27250000000000e-02 3.04681708087752e+01 1.93522815624119e-01
5.38350000000000e-02 2.99469105581879e+01 1.92204087346601e-01
5.49450000000000e-02 2.94345682124709e+01 1.90853744617131e-01
5.60550000000000e-02 2.89309912009509e+01 1.89474194943529e-01
5.71650000000000e-02 2.84360295631882e+01 1.88067717542277e-01
5.82750000000000e-02 2.79495359043189e+01 1.86636471054055e-01
5.93850000000000e-02 2.74713653511629e+01 1.85182500675218e-01
6.04950000000000e-02 2.70013755090816e+01 1.83707744760387e-01
6.16050000000000e-02 2.65394264195743e+01 1.82214040945128e-01
6.27150000000000e-02 2.60853805186000e+01 1.80703131832246e-01
6.38250000000000e-02 2.56391025956117e+01 1.79176670280459e-01
6.49350000000000e-02 2.52004597532927e+01 1.77636224330185e-01
6.60450000000000e-02 2.47693213679803e+01 1.76083281797405e-01
6.71550000000000e-02 2.43455590507679e+01 1.74519254563477e-01
6.82650000000000e-02 2.39290466092715e+01 1.72945482585953e-01
6.93750000000000e-02 2.35196600100514e+01 1.71363237652907e-01
7.04850000000000e-02 2.31172773416755e+01 1.69773726901187e-01
7.15950000000000e-02 2.27217787784159e+01 1.68178096116974e-01
7.27050000000000e-02 2.23330465445657e+01 1.66577432835330e-01
7.38150000000000e-02 2.19509648793662e+01 1.64972769253879e-01
7.49250000000000e-02 2.15754200025351e+01 1.63365084974389e-01
7.60350000000000e-02 2.12063000803832e+01 1.61755309584790e-01
7.71450000000000e-02 2.08434951925116e+01 1.60144325093022e-01
7.82550000000000e-02 2.04868972990787e+01 1.58532968223225e-01
7.93650000000000e-02 2.01364002086265e+01 1.56922032583759e-01
8.04750000000000e-02 1.97918995464584e+01 1.55312270715832e-01
8.15850000000000e-02 1.94532927235567e+01 1.53704396030772e-01
8.26950000000000e-02 1.91204789060331e+01 1.52099084643299e-01
8.38050000000000e-02 1.87933589851012e+01 1.50496977107598e-01
8.49150000000000e-02 1.84718355475625e+01 1.48898680062455e-01
8.60250000000000e-02 1.81558128467985e+01 1.47304767791185e-01
8.71350000000000e-02 1.78451967742572e+01 1.45715783701708e-01
8.82450000000000e-02 1.75398948314293e+01 1.44132241731688e-01
8.93550000000000e-02 1.72398161023028e+01 1.42554627683284e-01
9.04650000000000e-02 1.69448712262889e+01 1.40983400491734e-01
9.15750000000000e-02 1.66549723716113e+01 1.39418993431689e-01
9.26850000000000e-02 1.63700332091509e+01 1.37861815264951e-01
9.37950000000000e-02 1.60899688867378e+01 1.36312251332972e-01
9.49050000000000e-02 1.58146960038830e+01 1.34770664597263e-01
9.60150000000000e-02 1.55441325869426e+01 1.33237396630655e-01
9.71250000000000e-02 1.52781980647067e+01 1.31712768562147e-01
9.82350000000000e-02 1.50168132444064e+01 1.30197081977867e-01
9.93450000000000e-02 1.47599002881304e+01 1.28690619780555e-01
1.00455000000000e-01 1.45073826896463e+01 1.27193647009773e-01
1.01565000000000e-01 1.42591852516172e+01 1.25706411624945e-01
1.02675000000000e-01 1.40152340632088e+01 1.24229145253160e-01
1.03785000000000e-01 1.37754564780797e+01 1.22762063903578e-01
1.04895000000000e-01 1.35397810927477e+01 1.21305368650157e-01
1.06005000000000e-01 1.33081377253267e+01 1.19859246284305e-01
1.07115000000000e-01 1.30804573946270e+01 1.18423869938960e-01
1.08225000000000e-01 1.28566722996138e+01 1.16999399685553e-01
1.09335000000000e-01 1.26367157992162e+01 1.15585983105159e-01
1.10445000000000e-01 1.24205223924822e+01 1.14183755835104e-01
1.11555000000000e-01 1.22080276990736e+01 1.12792842092237e-01
1.12665000000000e-01 1.19991684400936e+01 1.11413355173963e-01
1.13775000000000e-01 1.17938824192432e+01 1.10045397938100e-01
1.14885000000000e-01 1.15921085042998e+01 1.08689063262556e-01
1.15995000000000e-01 1.13937866089122e+01 1.07344434485771e-01
1.17105000000000e-01 1.11988576747082e+01 1.06011585828820e-01
1.18215000000000e-01 1.10072636537068e+01 1.04690582800003e-01
1.19325000000000e-01 1.08189474910325e+01 1.03381482582739e-01
1.20435000000000e-01 1.06338531079249e+01 1.02084334407498e-01
1.21545000000000e-01 1.04519253850388e+01 1.00799179908499e-01
1.22655000000000e-01 1.02731101460302e+01 9.95260534658542e-02
1.23765000000000e-01 1.00973541414233e+01 9.82649825337895e-02
1.24875000000000e-01 9.92460503275307e+00 9.70159879555633e-02
1.25985000000000e-01 9.75481137697957e+00 9.57790842656594e-02
1.27095000000000e-01 9.58792261116851e+00 9.45542799797940e-02
1.28205000000000e-01 9.42388903743423e+00 9.33415778732757e-02
1.29315000000000e-01 9.26266180814005e+00 9.21409752482060e-02
1.30425000000000e-01 9.10419291135197e+00 9.09524641899925e-02
1.31535000000000e-01 8.94843515654116e+00 8.97760318136285e-02
1.32645000000000e-01 8.79534216053103e+00 8.86116605001667e-02
1.33755000000000e-01 8.64486833368482e+00 8.74593281237911e-02
1.34865000000000e-01 8.49696886632941e+00 8.63190082698777e-02
1.35975000000000e-01 8.35159971541141e+00 8.51906704444202e-02
1.37085000000000e-01 8.20871759138159e+00 8.40742802751588e-02
1.38195000000000e-01 8.06827994530366e+00 8.29697997047734e-02
1.39305000000000e-01 7.93024495618357e+00 8.18771871764368e-02
1.40415000000000e-01 7.79457151851565e+00 8.07963978120468e-02
1.41525000000000e-01 7.66121923004178e+00 7.97273835834382e-02
1.42635000000000e-01 7.53014837971996e+00 7.86700934768439e-02
1.43745000000000e-01 7.40131993589875e+00 7.76244736508693e-02
1.44855000000000e-01 7.27469553469403e+00 7.65904675882474e-02
1.45965000000000e-01 7.15023746856458e+00 7.55680162416168e-02
1.47075000000000e-01 7.02790867508315e+00 7.45570581735482e-02
1.48185000000000e-01 6.90767272589961e+00 7.35575296910555e-02
1.49295000000000e-01 6.78949381589293e+00 7.25693649747934e-02
1.50405000000000e-01 6.67333675250877e+00 7.15924962031566e-02
1.51515000000000e-01 6.55916694527948e+00 7.06268536714779e-02
1.52625000000000e-01 6.44695039552335e+00 6.96723659064993e-02
1.53735000000000e-01 6.33665368622017e+00 6.87289597763162e-02
1.54845000000000e-01 6.22824397205993e+00 6.77965605959527e-02
1.55955000000000e-01 6.12168896966180e+00 6.68750922287402e-02
1.57065000000000e-01 6.01695694796048e+00 6.59644771836623e-02
1.58175000000000e-01 5.91401671875695e+00 6.50646367088121e-02
1.59285000000000e-01 5.81283762743094e+00 6.41754908811071e-02
1.60395000000000e-01 5.71338954381229e+00 6.32969586924032e-02
1.61505000000000e-01 5.61564285320842e+00 6.24289581321538e-02
1.62615000000000e-01 5.51956844758542e+00 6.15714062667284e-02
1.63725000000000e-01 5.42513771689994e+00 6.07242193155242e-02
1.64835000000000e-01 5.33232254057934e+00 5.98873127239851e-02
1.65945000000000e-01 5.24109527914772e+00 5.90606012336432e-02
1.67055000000000e-01 5.15142876599511e+00 5.82439989493027e-02
1.68165000000000e-01 5.06329629928751e+00 5.74374194034575e-02
1.69275000000000e-01 4.97667163401536e+00 5.66407756180508e-02
1.70385000000000e-01 4.89152897417800e+00 5.58539801636841e-02
1.71495000000000e-01 4.80784296510189e+00 5.50769452163526e-02
1.72605000000000e-01 4.72558868589022e+00 5.43095826118056e-02
1.73715000000000e-01 4.64474164200170e+00 5.35518038976286e-02
1.74825000000000e-01 4.56527775795631e+00 5.28035203831157e-02
1.75935000000000e-01 4.48717337016589e+00 5.20646431870178e-02
1.77045000000000e-01 4.41040521988730e+00 5.13350832832513e-02
1.78155000000000e-01 4.33495044629622e+00 5.06147515446328e-02
1.79265000000000e-01 4.26078657967941e+00 4.99035587847184e-02
1.80375000000000e-01 4.18789153474341e+00 4.92014157978125e-02
1.81485000000000e-01 4.11624360403782e+00 4.85082333972163e-02
1.82595000000000e-01 4.04582145149096e+00 4.78239224517777e-02
1.83705000000000e-01 3.97660410605621e+00 4.71483939208060e-02
1.84815000000000e-01 3.90857095546704e+00 4.64815588874122e-02
1.85925000000000e-01 3.84170174009890e+00 4.58233285903277e-02
1.87035000000000e-01 3.77597654693603e+00 4.51736144542646e-02
1.88145000000000e-01 3.71137580364161e+00 4.45323281188630e-02
1.89255000000000e-01 3.64788027272930e+00 4.38993814662805e-02
1.90365000000000e-01 3.58547104583445e+00 4.32746866474772e-02
1.91475000000000e-01 3.52412953808344e+00 4.26581561072364e-02
1.92585000000000e-01 3.46383748255923e+00 4.20497026079710e-02
1.93695000000000e-01 3.40457692486166e+00 4.14492392523636e-02
1.94805000000000e-01 3.34633021776081e+00 4.08566795048762e-02
1.95915000000000e-01 3.28908001594180e+00 4.02719372121758e-02
1.97025000000000e-01 3.23280927083957e+00 3.96949266225129e-02
1.98135000000000e-01 3.17750122556191e+00 3.91255624040968e-02
1.99245000000000e-01 3.12313940989948e+00 3.85637596624992e-02
2.00355000000000e-01 3.06970763542108e+00 3.80094339571189e-02
2.01465000000000e-01 3.01718999065296e+00 3.74625013167526e-02
2.02575000000000e-01 2.96557083634047e+00 3.69228782543005e-02
2.03685000000000e-01 2.91483480079086e+00 3.63904817806313e-02
2.04795000000000e-01 2.86496677529576e+00 3.58652294176493e-02
2.05905000000000e-01 2.81595190963191e+00 3.53470392105893e-02
2.07015000000000e-01 2.76777560763894e+00 3.48358297395639e-02
2.08125000000000e-01 2.72042352287276e+00 3.43315201303960e-02
2.09235000000000e-01 2.67388155433331e+00 3.38340300647619e-02
2.10345000000000e-01 2.62813584226544e+00 3.33432797896737e-02
2.11455000000000e-01 2.58317276403160e+00 3.28591901263204e-02
2.12565000000000e-01 2.53897893005513e+00 3.23816824782953e-02
2.13675000000000e-01 2.49554117983300e+00 3.19106788392360e-02
2.14785000000000e-01 2.45284657801672e+00 3.14461017998940e-02
2.15895000000000e-01 2.41088241056032e+00 3.09878745546585e-02
2.17005000000000e-01 2.36963618093424e+00 3.05359209075563e-02
2.18115000000000e-01 2.32909560640394e+00 3.00901652777453e-02
2.19225000000000e-01 2.28924861437230e+00 2.96505327045266e-02
2.20335000000000e-01 2.25008333878440e+00 2.92169488518849e-02
2.21445000000000e-01 2.21158811659405e+00 2.87893400125864e-02
2.22555000000000e-01 2.17375148429055e+00 2.83676331118451e-02
2.23665000000000e-01 2.13656217448500e+00 2.79517557105743e-02
2.24775000000000e-01 2.10000911255498e+00 2.75416360082434e-02
2.25885000000000e-01 2.06408141334663e+00 2.71372028453538e-02
2.26995000000000e-01 2.02876837793316e+00 2.67383857055500e-02
2.28105000000000e-01 1.99405949042880e+00 2.63451147173784e-02
2.29215000000000e-01 1.95994441485729e+00 2.59573206557125e-02
2.30325000000000e-01 1.92641299207389e+00 2.55749349428536e-02
2.31435000000000e-01 1.89345523674012e+00 2.51978896493247e-02
2.32545000000000e-01 1.86106133435019e+00 2.48261174943660e-02
2.33655000000000e-01 1.82922163830836e+00 2.44595518461498e-02
2.34765000000000e-01 1.79792666705627e+00 2.40981267217221e-02
2.35875000000000e-01 1.76716710124940e+00 2.37417767866826e-02
2.36985000000000e-01 1.73693378098188e+00 2.33904373546197e-02
2.38095000000000e-01 1.70721770305877e+00 2.30440443863051e-02
2.39205000000000e-01 1.67801001831495e+00 2.27025344886618e-02
2.40315000000000e-01 1.64930202897996e+00 2.23658449135141e-02
2.41425000000000e-01 1.62108518608787e+00 2.20339135561300e-02
2.42535000000000e-01 1.59335108693151e+00 2.17066789535670e-02
2.43645000000000e-01 1.56609147256016e+00 2.13840802828263e-02
2.44755000000000e-01 1.53929822532018e+00 2.10660573588280e-02
2.45865000000000e-01 1.51296336643761e+00 2.07525506322142e-02
2.46975000000000e-01 1.48707905364219e+00 2.04435011869876e-02
2.48085000000000e-01 1.46163757883197e+00 2.01388507379950e-02
2.49195000000000e-01 1.43663136577797e+00 1.98385416282618e-02
2.50305000000000e-01 1.41205296786800e+00 1.95425168261859e-02
2.51415000000000e-01 1.38789506588914e+00 1.92507199225973e-02
2.52525000000000e-01 1.36415046584817e+00 1.89630951276910e-02
2.53635000000000e-01 1.34081209682924e+00 1.86795872678386e-02
2.54745000000000e-01 1.31787300888824e+00 1.84001417822862e-02
2.55855000000000e-01 1.29532637098317e+00 1.81247047197435e-02
2.56965000000000e-01 1.27316546893989e+00 1.78532227348714e-02
2.58075000000000e-01 1.25138370345275e+00 1.75856430846735e-02
2.59185000000000e-01 1.22997458811935e+00 1.73219136247956e-02
2.60295000000000e-01 1.20893174750896e+00 1.70619828057391e-02
2.61405000000000e-01 1.18824891526398e+00 1.68057996689947e-02
2.62515000000000e-01 1.16791993223385e+00 1.65533138431004e-02
2.63625000000000e-01 1.14793874464096e+00 1.63044755396278e-02
2.64735000000000e-01 1.12829940227787e+00 1.60592355491023e-02
2.65845000000000e-01 1.10899605673540e+00 1.58175452368615e-02
2.66955000000000e-01 1.09002295966100e+00 1.55793565388547e-02
2.68065000000000e-01 1.07137446104699e+00 1.53446219573901e-02
2.69175000000000e-01 1.05304500754801e+00 1.51132945568317e-02
2.70285000000000e-01 1.03502914082731e+00 1.48853279592494e-02
2.71395000000000e-01 1.01732149593130e+00 1.46606763400275e-02
2.72505000000000e-01 9.99916799691890e-01 1.44392944234343e-02
2.73615000000000e-01 9.82809869156242e-01 1.42211374781556e-02
2.74725000000000e-01 9.65995610043298e-01 1.40061613127968e-02
2.75835000000000e-01 9.49469015226766e-01 1.37943222713552e-02
2.76945000000000e-01 9.33225163244041e-01 1.35855772286658e-02
2.78055000000000e-01 9.17259216830646e-01 1.33798835858253e-02
2.79165000000000e-01 9.01566421479733e-01 1.31771992655939e-02
2.80275000000000e-01 8.86142104026241e-01 1.29774827077799e-02
2.81385000000000e-01 8.70981671255274e-01 1.27806928646098e-02
2.82495000000000e-01 8.56080608534277e-01 1.25867891960845e-02
2.83605000000000e-01 8.41434478468632e-01 1.23957316653256e-02
2.84715000000000e-01 8.27038919580234e-01 1.22074807339131e-02
2.85825000000000e-01 8.12889645008694e-01 1.20219973572184e-02
2.86935000000000e-01 7.98982441234744e-01 1.18392429797309e-02
2.88045000000000e-01 7.85313166825496e-01 1.16591795303854e-02
2.89155000000000e-01 7.71877751201163e-01 1.14817694178877e-02
2.90265000000000e-01 7.58672193422877e-01 1.13069755260429e-02
2.91375000000000e-01 7.45692561001248e-01 1.11347612090867e-02
2.92485000000000e-01 7.32934988725306e-01 1.09650902870227e-02
2.93595000000000e-01 7.20395677511481e-01 1.07979270409659e-02
2.94705000000000e-01 7.08070893272265e-01 1.06332362084954e-02
2.95815000000000e-01 6.95956965804246e-01 1.04709829790167e-02
2.96925000000000e-01 6.84050287695146e-01 1.03111329891343e-02
2.98035000000000e-01 6.72347313249576e-01 1.01536523180390e-02
2.99145000000000e-01 6.60844557433160e-01 9.99850748290851e-03
3.00255000000000e-01 6.49538594834719e-01 9.84566543432162e-03
3.01365000000000e-01 6.38426058646225e-01 9.69509355169082e-03
3.02475000000000e-01 6.27503639660192e-01 9.54675963871209e-03
3.03585000000000e-01 6.16768085284228e-01 9.40063191883215e-03
3.04695000000000e-01 6.06216198572441e-01 9.25667903073664e-03
3.05805000000000e-01 5.95844837273423e-01 9.11487002385808e-03
3.06915000000000e-01 5.85650912894513e-01 8.97517435390535e-03
3.08025000000000e-01 5.75631389782078e-01 8.83756187841554e-03
3.09135000000000e-01 5.65783284217521e-01 8.70200285232959e-03
3.10245000000000e-01 5.56103663528759e-01 8.56846792359111e-03
3.11355000000000e-01 5.46589645216899e-01 8.43692812877002e-03
3.12465000000000e-01 5.37238396097861e-01 8.30735488871195e-03
3.13575000000000e-01 5.28047131458683e-01 8.17972000421326e-03
3.14685000000000e-01 5.19013114228255e-01 8.05399565172350e-03
3.15795000000000e-01 5.10133654162249e-01 7.93015437907404e-03
3.16905000000000e-01 5.01406107041990e-01 7.80816910123580e-03
3.18015000000000e-01 4.92827873887032e-01 7.68801309610418e-03
3.19125000000000e-01 4.84396400181206e-01 7.56966000031326e-03
3.20235000000000e-01 4.76109175111909e-01 7.45308380507988e-03
3.21345000000000e-01 4.67963730822411e-01 7.33825885207674e-03
3.22455000000000e-01 4.59957641676946e-01 7.22515982933565e-03
3.23565000000000e-01 4.52088523538385e-01 7.11376176718144e-03
3.24675000000000e-01 4.44354033058260e-01 7.00404003419713e-03
3.25785000000000e-01 4.36751866978937e-01 6.89597033321972e-03
3.26895000000000e-01 4.29279761447732e-01 6.78952869736729e-03
3.28005000000000e-01 4.21935491342751e-01 6.68469148609875e-03
3.29115000000000e-01 4.14716869610274e-01 6.58143538130435e-03
3.30225000000000e-01 4.07621746613471e-01 6.47973738342901e-03
3.31335000000000e-01 4.00648009492258e-01 6.37957480762828e-03
3.32445000000000e-01 3.93793581534111e-01 6.28092527995674e-03
3.33555000000000e-01 3.87056421555638e-01 6.18376673358872e-03
3.34665000000000e-01 3.80434523294735e-01 6.08807740507201e-03
3.35775000000000e-01 3.73925914813139e-01 5.99383583061468e-03
3.36885000000000e-01 3.67528657909207e-01 5.90102084240542e-03
3.37995000000000e-01 3.61240847540735e-01 5.80961156496666e-03
3.39105000000000e-01 3.55060611257655e-01 5.71958741154084e-03
3.40215000000000e-01 3.48986108644437e-01 5.63092808051014e-03
3.41325000000000e-01 3.43015530772033e-01 5.54361355184944e-03
3.42435000000000e-01 3.37147099659191e-01 5.45762408361300e-03
3.43545000000000e-01 3.31379067742994e-01 5.37294020845449e-03
3.44655000000000e-01 3.25709717358448e-01 5.28954273018001e-03
3.45765000000000e-01 3.20137360226982e-01 5.20741272033481e-03
3.46875000000000e-01 3.14660336953690e-01 5.12653151482334e-03
3.47985000000000e-01 3.09277016533183e-01 5.04688071056267e-03
3.49095000000000e-01 3.03985795863888e-01 4.96844216216901e-03
3.50205000000000e-01 2.98785099270663e-01 4.89119797867753e-03
