Energy (eV)          EEDF (eV^-(3/2))     First Anisotropy
4.60810810810811e-03 1.14412781374898e+00 6.96321604774581e-04
1.38243243243243e-02 1.13350146076635e+00 1.14834576470169e-03
2.30405405405405e-02 1.12297380252741e+00 1.51203315452925e-03
3.22567567567568e-02 1.11254392236233e+00 1.78595913517194e-03
4.14729729729730e-02 1.10221091210721e+00 2.01246372085588e-03
5.06891891891892e-02 1.09197387209334e+00 2.20761257203942e-03
5.99054054054054e-02 1.08183191097205e+00 2.37974802041154e-03
6.91216216216216e-02 1.07178414567415e+00 2.53392448930431e-03
7.83378378378378e-02 1.06182970133337e+00 2.67350513791812e-03
8.75540540540541e-02 1.05196771120923e+00 2.80087468398065e-03
9.67702702702703e-02 1.04219731660128e+00 2.91780408695094e-03
1.05986486486486e-01 1.03251766684098e+00 3.02565573749772e-03
1.15202702702703e-01 1.02292791900830e+00 3.12550729671408e-03
1.24418918918919e-01 1.01342723820828e+00 3.21823066919251e-03
1.33635135135135e-01 1.00401479720647e+00 3.30454461291203e-03
1.42851351351351e-01 9.94689776451342e-01 3.38505101553994e-03
1.52067567567568e-01 9.85451364005193e-01 3.46026072067517e-03
1.61283783783784e-01 9.76298755415846e-01 3.53061234126831e-03
1.70500000000000e-01 9.67231153819153e-01 3.59648630751853e-03
1.79716216216216e-01 9.58247769690825e-01 3.65821554258621e-03
1.88932432432432e-01 9.49347820839862e-01 3.71609369024069e-03
1.98148648648649e-01 9.40530532296596e-01 3.77038156715600e-03
2.07364864864865e-01 9.31795136380413e-01 3.82131230499282e-03
2.16581081081081e-01 9.23140872493391e-01 3.86909548584697e-03
2.25797297297297e-01 9.14566987101541e-01 3.91392048065539e-03
2.35013513513514e-01 9.06072733670081e-01 3.95595920889916e-03
2.44229729729730e-01 8.97657372564169e-01 3.99536840420046e-03
2.53445945945946e-01 8.89320171088174e-01 4.03229152276838e-03
2.62662162162162e-01 8.81060403315572e-01 4.06686034916334e-03
2.71878378378378e-01 8.72877350061981e-01 4.09919633680421e-03
2.81094594594595e-01 8.64770298822962e-01 4.12941176802373e-03
2.90310810810811e-01 8.56738543684678e-01 4.15761073169397e-03
2.99527027027027e-01 8.48781385345017e-01 4.18388998145649e-03
3.08743243243243e-01 8.40898130968235e-01 4.20833967999598e-03
3.17959459459459e-01 8.33088094153596e-01 4.23104403337096e-03
3.27175675675676e-01 8.25350594852408e-01 4.25208184652809e-03
3.36391891891892e-01 8.17684959379568e-01 4.27152702242752e-03
3.45608108108108e-01 8.10090520282684e-01 4.28944900277978e-03
3.54824324324324e-01 8.02566616308337e-01 4.30591314279698e-03
3.64040540540541e-01 7.95112592344882e-01 4.32098105858570e-03
3.73256756756757e-01 7.87727799345882e-01 4.33471092311976e-03
3.82472972972973e-01 7.80411594332516e-01 4.34715774378319e-03
3.91689189189189e-01 7.73163340277586e-01 4.35837361179793e-03
4.00905405405405e-01 7.65982406070432e-01 4.36840791541074e-03
4.10121621621622e-01 7.58868166445086e-01 4.37730753284628e-03
4.19337837837838e-01 7.51820001977556e-01 4.38511701623002e-03
4.28554054054054e-01 7.44837298979219e-01 4.39187875873674e-03
4.37770270270270e-01 7.37919449461165e-01 4.39763313382153e-03
4.46986486486486e-01 7.31065851081398e-01 4.40241863412830e-03
4.56202702702703e-01 7.24275907077820e-01 4.40627198687436e-03
4.65418918918919e-01 7.17549026260496e-01 4.40922827030337e-03
4.74635135135135e-01 7.10884622915229e-01 4.41132102078489e-03
4.83851351351351e-01 7.04282116767729e-01 4.41258231970483e-03
4.93067567567568e-01 6.97740932933229e-01 4.41304288440500e-03
5.02283783783784e-01 6.91260501853784e-01 4.41273214162109e-03
5.11500000000000e-01 6.84840259286900e-01 4.41167830522705e-03
5.20716216216216e-01 6.78479646217593e-01 4.40990844843199e-03
5.29932432432432e-01 6.72178108822872e-01 4.40744856217289e-03
5.39148648648649e-01 6.65935098412242e-01 4.40432360981603e-03
5.48364864864865e-01 6.59750071414281e-01 4.40055758528470e-03
5.57581081081081e-01 6.53622489294436e-01 4.39617356740362e-03
5.66797297297297e-01 6.47551818519879e-01 4.39119376079149e-03
5.76013513513513e-01 6.41537530513145e-01 4.38563954339261e-03
5.85229729729730e-01 6.35579101596148e-01 4.37953150201027e-03
5.94445945945946e-01 6.29676012974722e-01 4.37288947407889e-03
6.03662162162162e-01 6.23827750662891e-01 4.36573258701229e-03
6.12878378378378e-01 6.18033805448426e-01 4.35807928618070e-03
6.22094594594595e-01 6.12293672848569e-01 4.34994736978246e-03
6.31310810810811e-01 6.06606853057307e-01 4.34135401345697e-03
6.40527027027027e-01 6.00972850928460e-01 4.33231580129695e-03
6.49743243243243e-01 5.95391175905598e-01 4.32284875524222e-03
6.58959459459459e-01 5.89861341988463e-01 4.31296835612380e-03
6.68175675675676e-01 5.84382867682668e-01 4.30268956394238e-03
6.77391891891892e-01 5.78955275982019e-01 4.29202684281877e-03
6.86608108108108e-01 5.73578094302414e-01 4.28099418475564e-03
6.95824324324324e-01 5.68250854448959e-01 4.26960512441691e-03
7.05040540540541e-01 5.62973092575266e-01 4.25787276057918e-03
7.14256756756757e-01 5.57744349135908e-01 4.24580976940270e-03
7.23472972972973e-01 5.52564168868026e-01 4.23342842384320e-03
7.32689189189189e-01 5.47432100729800e-01 4.22074061223724e-03
7.41905405405405e-01 5.42347697868563e-01 4.20775785017451e-03
7.51121621621622e-01 5.37310517575376e-01 4.19449129215430e-03
7.60337837837838e-01 5.32320121266309e-01 4.18095174773774e-03
7.69554054054054e-01 5.27376074424175e-01 4.16714969706096e-03
7.78770270270270e-01 5.22477946567452e-01 4.15309529892451e-03
7.87986486486487e-01 5.17625311212829e-01 4.13879840499846e-03
7.97202702702703e-01 5.12817745832198e-01 4.12426856721807e-03
8.06418918918919e-01 5.08054831833662e-01 4.10951505081497e-03
8.15635135135135e-01 5.03336154507078e-01 4.09454684689198e-03
8.24851351351351e-01 4.98661302994005e-01 4.07937267824558e-03
8.34067567567568e-01 4.94029870251967e-01 4.06400101095714e-03
8.43283783783784e-01 4.89441453013702e-01 4.04844005977322e-03
8.52500000000000e-01 4.84895651768091e-01 4.03269779879897e-03
8.61716216216216e-01 4.80392070709143e-01 4.01678197185334e-03
8.70932432432432e-01 4.75930317707009e-01 4.00070009771853e-03
8.80148648648649e-01 4.71510004268957e-01 3.98445947547721e-03
8.89364864864865e-01 4.67130745520368e-01 3.96806719374931e-03
8.98581081081081e-01 4.62792160156230e-01 3.95153013966014e-03
9.07797297297297e-01 4.58493870412978e-01 3.93485500202181e-03
9.17013513513513e-01 4.54235502035628e-01 3.91804827967804e-03
9.26229729729730e-01 4.50016684240751e-01 3.90111628450937e-03
9.35445945945946e-01 4.45837049697612e-01 3.88406514920090e-03
9.44662162162162e-01 4.41696234482614e-01 3.86690083481096e-03
9.53878378378378e-01 4.37593878052179e-01 3.84962913300742e-03
9.63094594594595e-01 4.33529623211374e-01 3.83225567314259e-03
9.72310810810811e-01 4.29503116078775e-01 3.81478592439671e-03
9.81527027027027e-01 4.25514006067849e-01 3.79722520238908e-03
9.90743243243243e-01 4.21561945844095e-01 3.77957867563458e-03
9.99959459459459e-01 4.17646591298969e-01 3.76185136970425e-03
1.00917567567568e+00 4.13767601508644e-01 3.74404815932777e-03
1.01839189189189e+00 4.09924638760481e-01 3.72617379676964e-03
1.02760810810811e+00 4.06117368408169e-01 3.70823290389995e-03
1.03682432432432e+00 4.02345458950602e-01 3.69022994891237e-03
1.04604054054054e+00 3.98608582000642e-01 3.67216930076854e-03
1.05525675675676e+00 3.94906412150784e-01 3.65405519913462e-03
1.06447297297297e+00 3.91238627084680e-01 3.63589176490063e-03
1.07368918918919e+00 3.87604907412127e-01 3.61768301298031e-03
1.08290540540541e+00 3.84004936743198e-01 3.59943282263863e-03
1.09212162162162e+00 3.80438401658419e-01 3.58114498871412e-03
1.10133783783784e+00 3.76904991585185e-01 3.56282320076571e-03
1.11055405405405e+00 3.73404398867532e-01 3.54447102255579e-03
1.11977027027027e+00 3.69936318737304e-01 3.52609194118909e-03
1.12898648648649e+00 3.66500449195986e-01 3.50768933965164e-03
1.13820270270270e+00 3.63096491109682e-01 3.48926650582395e-03
1.14741891891892e+00 3.59724148064225e-01 3.47082664352361e-03
1.15663513513514e+00 3.56383126427850e-01 3.45237284544136e-03
1.16585135135135e+00 3.53073135323719e-01 3.43390813875459e-03
1.17506756756757e+00 3.49793886520852e-01 3.41543546601405e-03
1.18428378378378e+00 3.46545094493231e-01 3.39695766634827e-03
1.19350000000000e+00 3.43326476393159e-01 3.37847751928291e-03
1.20271621621622e+00 3.40137751946881e-01 3.35999771970754e-03
1.21193243243243e+00 3.36978643535796e-01 3.34152088568387e-03
1.22114864864865e+00 3.33848876068718e-01 3.32304956806314e-03
1.23036486486486e+00 3.30748177035035e-01 3.30458622583958e-03
1.23958108108108e+00 3.27676276479382e-01 3.28613326692275e-03
1.24879729729730e+00 3.24632906905012e-01 3.26769303066433e-03
1.25801351351351e+00 3.21617803324029e-01 3.24926777068037e-03
1.26722972972973e+00 3.18630703232760e-01 3.23085969406380e-03
1.27644594594595e+00 3.15671346519213e-01 3.21247093858893e-03
1.28566216216216e+00 3.12739475532770e-01 3.19410357953503e-03
1.29487837837838e+00 3.09834834971146e-01 3.17575963812564e-03
1.30409459459459e+00 3.06957171925632e-01 3.15744105909778e-03
1.31331081081081e+00 3.04106235857704e-01 3.13914974726171e-03
1.32252702702703e+00 3.01281778513153e-01 3.12088755154914e-03
1.33174324324324e+00 2.98483553964879e-01 3.10265624933500e-03
1.34095945945946e+00 2.95711318590126e-01 3.08445758162955e-03
1.35017567567568e+00 2.92964830988165e-01 3.06629323232999e-03
1.35939189189189e+00 2.90243852040279e-01 3.04816483422421e-03
1.36860810810811e+00 2.87548144809421e-01 3.03007397644058e-03
1.37782432432432e+00 2.84877474578804e-01 3.01202218403933e-03
1.38704054054054e+00 2.82231608830300e-01 2.99401095087816e-03
1.39625675675676e+00 2.79610317167885e-01 2.97604172011445e-03
1.40547297297297e+00 2.77013371372173e-01 2.95811588973913e-03
1.41468918918919e+00 2.74440545307294e-01 2.94023481945971e-03
1.42390540540541e+00 2.71891614955807e-01 2.92239981152243e-03
1.43312162162162e+00 2.69366358398071e-01 2.90461214143543e-03
1.44233783783784e+00 2.66864555741056e-01 2.88687304425585e-03
1.45155405405405e+00 2.64385989151352e-01 2.86918370111610e-03
1.46077027027027e+00 2.61930442835170e-01 2.85154526883290e-03
1.46998648648649e+00 2.59497702969948e-01 2.83395886215662e-03
1.47920270270270e+00 2.57087557751481e-01 2.81642555868311e-03
1.48841891891892e+00 2.54699797310881e-01 2.79894640497558e-03
1.49763513513514e+00 2.52334213744462e-01 2.78152239910843e-03
1.50685135135135e+00 2.49990601094666e-01 2.76415451838180e-03
1.51606756756757e+00 2.47668755286339e-01 2.74684370681644e-03
1.52528378378378e+00 2.45368474155012e-01 2.72959086286776e-03
1.53450000000000e+00 2.43089557428386e-01 2.71239686615089e-03
1.54371621621622e+00 2.40831806665075e-01 2.69526256127640e-03
1.55293243243243e+00 2.38595025295428e-01 2.67818876222730e-03
1.56214864864865e+00 2.36379018547312e-01 2.66117625782369e-03
1.57136486486486e+00 2.34183593471721e-01 2.64422579582876e-03
1.58058108108108e+00 2.32008558925138e-01 2.62733810799149e-03
1.58979729729730e+00 2.29853725512370e-01 2.61051389864234e-03
1.59901351351351e+00 2.27718905610807e-01 2.59375383348933e-03
1.60822972972973e+00 2.25603913353283e-01 2.57705856377899e-03
1.61744594594595e+00 2.23508564573093e-01 2.56042871157187e-03
1.62666216216216e+00 2.21432676839418e-01 2.54386487365586e-03
1.63587837837838e+00 2.19376069390843e-01 2.52736762643896e-03
1.64509459459459e+00 2.17338563157343e-01 2.51093751147124e-03
1.65431081081081e+00 2.15319980743959e-01 2.49457505810719e-03
1.66352702702703e+00 2.13320146379414e-01 2.47828077310317e-03
1.67274324324324e+00 2.11338885936952e-01 2.46205513039856e-03
1.68195945945946e+00 2.09376026918461e-01 2.44589859298926e-03
1.69117567567568e+00 2.07431398405033e-01 2.42981159950871e-03
1.70039189189189e+00 2.05504831087750e-01 2.41379456773717e-03
1.70960810810811e+00 2.03596157208026e-01 2.39784789899330e-03
1.71882432432432e+00 2.01705210576489e-01 2.38197196494009e-03
1.72804054054054e+00 1.99831826557879e-01 2.36616712811984e-03
1.73725675675676e+00 1.97975842024771e-01 2.35043372932225e-03
1.74647297297297e+00 1.96137095385726e-01 2.33477209085335e-03
1.75568918918919e+00 1.94315426529559e-01 2.31918252063169e-03
1.76490540540541e+00 1.92510676842482e-01 2.30366529976747e-03
1.77412162162162e+00 1.90722689193686e-01 2.28822070185087e-03
1.78333783783784e+00 1.88951307892032e-01 2.27284898399958e-03
1.79255405405405e+00 1.87196378702290e-01 2.25755037806554e-03
1.80177027027027e+00 1.85457748831150e-01 2.24232510926343e-03
1.81098648648649e+00 1.83735266885485e-01 2.22717338464936e-03
1.82020270270270e+00 1.82028782896884e-01 2.21209539606320e-03
1.82941891891892e+00 1.80338148271483e-01 2.19709132381819e-03
1.83863513513514e+00 1.78663215804716e-01 2.18216132537140e-03
1.84785135135135e+00 1.77003839667963e-01 2.16730555283437e-03
1.85706756756757e+00 1.75359875369447e-01 2.15252414480009e-03
1.86628378378378e+00 1.73731179768209e-01 2.13781721831503e-03
1.87550000000000e+00 1.72117611061147e-01 2.12318488579603e-03
1.88471621621622e+00 1.70519028745317e-01 2.10862724451696e-03
1.89393243243243e+00 1.68935293639335e-01 2.09414437926185e-03
1.90314864864865e+00 1.67366267838154e-01 2.07973636565402e-03
1.91236486486486e+00 1.65811814725753e-01 2.06540325981755e-03
1.92158108108108e+00 1.64271798962778e-01 2.05114511428946e-03
1.93079729729730e+00 1.62746086451183e-01 2.03696197055503e-03
1.94001351351351e+00 1.61234544346261e-01 2.02285385171588e-03
1.94922972972973e+00 1.59737041044630e-01 2.00882077786710e-03
1.95844594594595e+00 1.58253446150142e-01 1.99486275649929e-03
1.96766216216216e+00 1.56783630492565e-01 1.98097978489487e-03
1.97687837837838e+00 1.55327466086766e-01 1.96717185313650e-03
1.98609459459459e+00 1.53884826143629e-01 1.95343893466818e-03
1.99531081081081e+00 1.52455585058608e-01 1.93978100076772e-03
2.00452702702703e+00 1.51039618379712e-01 1.92619801372675e-03
2.01374324324324e+00 1.49636802817869e-01 1.91268992015154e-03
2.02295945945946e+00 1.48247016235786e-01 1.89925666495247e-03
2.03217567567568e+00 1.46870137617076e-01 1.88589818257784e-03
2.04139189189189e+00 1.45506047082590e-01 1.87261439918130e-03
2.05060810810811e+00 1.44154625853520e-01 1.85940523534404e-03
2.05982432432432e+00 1.42815756260799e-01 1.84627059745340e-03
2.06904054054054e+00 1.41489321734492e-01 1.83321039087667e-03
2.07825675675676e+00 1.40175206774780e-01 1.82022451169367e-03
2.08747297297297e+00 1.38873296966937e-01 1.80731284872672e-03
2.09668918918919e+00 1.37583478946716e-01 1.79447528609239e-03
2.10590540540541e+00 1.36305640408879e-01 1.78171169507015e-03
2.11512162162162e+00 1.35039670097077e-01 1.76902194651192e-03
2.12433783783784e+00 1.33785457776576e-01 1.75640590495428e-03
2.13355405405405e+00 1.32542894242346e-01 1.74386342283513e-03
2.14277027027027e+00 1.31311871309225e-01 1.73139435249392e-03
2.15198648648649e+00 1.30092281785597e-01 1.71899853861493e-03
2.16120270270270e+00 1.28884019486495e-01 1.70667582006689e-03
2.17041891891892e+00 1.27686979202252e-01 1.69442603221673e-03
2.17963513513514e+00 1.26501056705841e-01 1.68224899949624e-03
2.18885135135135e+00 1.25326148743496e-01 1.67014454671192e-03
2.19806756756757e+00 1.24162153009944e-01 1.65811249365985e-03
2.20728378378378e+00 1.23008968155368e-01 1.64615264983563e-03
2.21650000000000e+00 1.21866493776284e-01 1.63426482537327e-03
2.22571621621622e+00 1.20734630391634e-01 1.62244882413499e-03
2.23493243243243e+00 1.19613279454261e-01 1.61070444538036e-03
2.24414864864865e+00 1.18502343322489e-01 1.59903148586602e-03
2.25336486486486e+00 1.17401725266429e-01 1.58742973304799e-03
2.26258108108108e+00 1.16311329459287e-01 1.57589897539561e-03
2.27179729729730e+00 1.15231060954858e-01 1.56443899746405e-03
2.28101351351351e+00 1.14160825693503e-01 1.55304957505424e-03
2.29022972972973e+00 1.13100530493696e-01 1.54173048519019e-03
2.29944594594595e+00 1.12050083030290e-01 1.53048149979759e-03
2.30866216216216e+00 1.11009391844564e-01 1.51930238721963e-03
2.31787837837838e+00 1.09978366318437e-01 1.50819291412403e-03
2.32709459459459e+00 1.08956916679885e-01 1.49715283928444e-03
2.33631081081081e+00 1.07944953994879e-01 1.48618192299155e-03
2.34552702702703e+00 1.06942390146916e-01 1.47527992254288e-03
2.35474324324324e+00 1.05949137842145e-01 1.46444658781256e-03
2.36395945945946e+00 1.04965110601539e-01 1.45368167035714e-03
2.37317567567568e+00 1.03990222741107e-01 1.44298491763039e-03
2.38239189189189e+00 1.03024389380710e-01 1.43235607436099e-03
2.39160810810811e+00 1.02067526420630e-01 1.42179488428649e-03
2.40082432432432e+00 1.01119550546219e-01 1.41130108446147e-03
2.41004054054054e+00 1.00180379220432e-01 1.40087441385021e-03
2.41925675675676e+00 9.92499306651806e-02 1.39051460786214e-03
2.42847297297297e+00 9.83281238694240e-02 1.38022139964630e-03
2.43768918918919e+00 9.74148785671225e-02 1.36999452172188e-03
2.44690540540541e+00 9.65101152414462e-02 1.35983370060147e-03
2.45612162162162e+00 9.56137551176465e-02 1.34973866490113e-03
2.46533783783784e+00 9.47257201454814e-02 1.33970914143485e-03
2.47455405405405e+00 9.38459330031980e-02 1.32974485137826e-03
2.48377027027027e+00 9.29743170906067e-02 1.31984551811781e-03
2.49298648648649e+00 9.21107965120924e-02 1.31001086224637e-03
2.50220270270270e+00 9.12552960837086e-02 1.30024060274144e-03
2.51141891891892e+00 9.04077413131223e-02 1.29053445844897e-03
2.52063513513514e+00 8.95680584032171e-02 1.28089214315951e-03
2.52985135135135e+00 8.87361742454839e-02 1.27131337301905e-03
2.53906756756757e+00 8.79120164039987e-02 1.26179786295082e-03
2.54828378378378e+00 8.70955131188289e-02 1.25234532314043e-03
2.55750000000000e+00 8.62865932996108e-02 1.24295546620918e-03
2.56671621621622e+00 8.54851865100585e-02 1.23362800262981e-03
2.57593243243243e+00 8.46912229741836e-02 1.22436264179923e-03
2.58514864864865e+00 8.39046335580403e-02 1.21515909339038e-03
2.59436486486486e+00 8.31253497728014e-02 1.20601706284111e-03
2.60358108108108e+00 8.23533037686321e-02 1.19693625812908e-03
2.61279729729730e+00 8.15884283200713e-02 1.18791638649253e-03
2.62201351351351e+00 8.08306568289408e-02 1.17895715120896e-03
2.63122972972973e+00 8.00799233183871e-02 1.17005825815368e-03
2.64044594594595e+00 7.93361624187483e-02 1.16121941159903e-03
2.64966216216216e+00 7.85993093730058e-02 1.15244031519195e-03
2.65887837837838e+00 7.78693000201563e-02 1.14372067318567e-03
2.66809459459459e+00 7.71460707978324e-02 1.13506018630587e-03
2.67731081081081e+00 7.64295587366230e-02 1.12645855794700e-03
2.68652702702703e+00 7.57197014467266e-02 1.11791549116577e-03
2.69574324324324e+00 7.50164371204294e-02 1.10943068572801e-03
2.70495945945946e+00 7.43197045265797e-02 1.10100384410789e-03
2.71417567567568e+00 7.36294429976824e-02 1.09263466763717e-03
2.72339189189189e+00 7.29455924346795e-02 1.08432285739631e-03
2.73260810810811e+00 7.22680932917929e-02 1.07606811533783e-03
2.74182432432432e+00 7.15968865787504e-02 1.06787014049660e-03
2.75104054054054e+00 7.09319138555204e-02 1.05972863465918e-03
2.76025675675676e+00 7.02731172201190e-02 1.05164329872222e-03
2.76947297297297e+00 6.96204393130030e-02 1.04361383353151e-03
2.77868918918919e+00 6.89738233027702e-02 1.03563994094017e-03
2.78790540540541e+00 6.83332128881631e-02 1.02772132022470e-03
2.79712162162162e+00 6.76985522930414e-02 1.01985767344350e-03
2.80633783783784e+00 6.70697862548660e-02 1.01204870282688e-03
2.81555405405405e+00 6.64468600265866e-02 1.00429410821333e-03
2.82477027027027e+00 6.58297193717559e-02 9.96593592238699e-04
2.83398648648649e+00 6.52183105533874e-02 9.88946856996199e-04
2.84320270270270e+00 6.46125803378045e-02 9.81353604802097e-04
2.85241891891892e+00 6.40124759815926e-02 9.73813539161572e-04
2.86163513513514e+00 6.34179452332919e-02 9.66326361481277e-04
2.87085135135135e+00 6.28289363287354e-02 9.58891775975619e-04
2.88006756756757e+00 6.22453979805193e-02 9.51509487271936e-04
2.88928378378378e+00 6.16672793795959e-02 9.44179198058182e-04
2.89850000000000e+00 6.10945301907422e-02 9.36900613834675e-04
2.90771621621622e+00 6.05271005423702e-02 9.29673439849733e-04
