Energy (eV)          EEDF (eV^-(3/2))     First Anisotropy
2.63461538461538e-02 5.03599802386381e-02 2.62012840145350e-05
7.90384615384615e-02 5.00264639662419e-02 4.32679585412338e-05
1.31730769230769e-01 4.96951564548750e-02 5.71244143904486e-05
1.84423076923077e-01 4.93660430748396e-02 6.76548100965133e-05
2.37115384615385e-01 4.90391092953413e-02 7.64402214166713e-05
2.89807692307692e-01 4.87143406831506e-02 8.40782085907806e-05
3.42500000000000e-01 4.83917228978427e-02 9.08778995274916e-05
3.95192307692308e-01 4.80712416953183e-02 9.70259023159127e-05
4.47884615384615e-01 4.77528829258012e-02 1.02645936007547e-04
5.00576923076923e-01 4.74366325339275e-02 1.07825412706839e-04
5.53269230769231e-01 4.71224765559457e-02 1.12629017210943e-04
6.05961538461538e-01 4.68104011213147e-02 1.17106335893874e-04
6.58653846153846e-01 4.65003924518677e-02 1.21296456038005e-04
7.11346153846154e-01 4.61924368596494e-02 1.25230893632527e-04
7.64038461538462e-01 4.58865207478650e-02 1.28935540447047e-04
8.16730769230769e-01 4.55826306101675e-02 1.32432006423811e-04
8.69423076923077e-01 4.52807530288618e-02 1.35738572651718e-04
9.22115384615385e-01 4.49808746755087e-02 1.38870885465714e-04
9.74807692307692e-01 4.46829823102561e-02 1.41842473639847e-04
1.02750000000000e+00 4.43870627790769e-02 1.44665139659976e-04
1.08019230769231e+00 4.40931030201091e-02 1.47349263332794e-04
1.13288461538462e+00 4.38010900516355e-02 1.49904038327963e-04
1.18557692307692e+00 4.35110109808043e-02 1.52337659003631e-04
1.23826923076923e+00 4.32228530001320e-02 1.54657472045239e-04
1.29096153846154e+00 4.29366033892316e-02 1.56870099391909e-04
1.34365384615385e+00 4.26522495073637e-02 1.58981537868590e-04
1.39634615384615e+00 4.23697787998334e-02 1.60997241419434e-04
1.44903846153846e+00 4.20891787950608e-02 1.62922191073922e-04
1.50173076923077e+00 4.18104371040858e-02 1.64760952318053e-04
1.55442307692308e+00 4.15335414218109e-02 1.66517724901575e-04
1.60711538461538e+00 4.12584795209354e-02 1.68196383959142e-04
1.65980769230769e+00 4.09852392569946e-02 1.69800515112628e-04
1.71250000000000e+00 4.07138085659575e-02 1.71333445731489e-04
1.76519230769231e+00 4.04441754652424e-02 1.72798271927250e-04
1.81788461538462e+00 4.01763280484816e-02 1.74197881111945e-04
1.87057692307692e+00 3.99102544897437e-02 1.75534971620234e-04
1.92326923076923e+00 3.96459430414105e-02 1.76812070874360e-04
1.97596153846154e+00 3.93833820350131e-02 1.78031551333524e-04
2.02865384615385e+00 3.91225598766431e-02 1.79195643755493e-04
2.08134615384615e+00 3.88634650505470e-02 1.80306448895762e-04
2.13403846153846e+00 3.86060861172237e-02 1.81365949006483e-04
2.18673076923077e+00 3.83504117129425e-02 1.82376017049200e-04
2.23942307692308e+00 3.80964305503774e-02 1.83338425951777e-04
2.29211538461538e+00 3.78441314146312e-02 1.84254855944549e-04
2.34480769230769e+00 3.75935031662467e-02 1.85126901117071e-04
2.39750000000000e+00 3.73445347395417e-02 1.85956076151616e-04
2.45019230769231e+00 3.70972151431381e-02 1.86743822381412e-04
2.50288461538462e+00 3.68515334563922e-02 1.87491512570713e-04
2.55557692307692e+00 3.66074788320198e-02 1.88200455219227e-04
2.60826923076923e+00 3.63650404945720e-02 1.88871899240768e-04
2.66096153846154e+00 3.61242077408754e-02 1.89507038202459e-04
2.71365384615385e+00 3.58849699368024e-02 1.90107013535594e-04
2.76634615384615e+00 3.56473165195786e-02 1.90672917442879e-04
2.81903846153846e+00 3.54112369963768e-02 1.91205796439286e-04
2.87173076923077e+00 3.51767209438656e-02 1.91706653764388e-04
2.92442307692308e+00 3.49437580085459e-02 1.92176452419063e-04
2.97711538461538e+00 3.47123379038649e-02 1.92616117178006e-04
3.02980769230769e+00 3.44824504122086e-02 1.93026536420313e-04
3.08250000000000e+00 3.42540853836320e-02 1.93408564482725e-04
3.13519230769231e+00 3.40272327361378e-02 1.93763023813038e-04
3.18788461538462e+00 3.38018824530307e-02 1.94090706384106e-04
3.24057692307692e+00 3.35780245846909e-02 1.94392374982128e-04
3.29326923076923e+00 3.33556492473899e-02 1.94668765023898e-04
3.34596153846154e+00 3.31347466235198e-02 1.94920586224055e-04
3.39865384615385e+00 3.29153069591562e-02 1.95148523600254e-04
3.45134615384615e+00 3.26973205656442e-02 1.95353238388990e-04
3.50403846153846e+00 3.24807778184899e-02 1.95535369619723e-04
3.55673076923077e+00 3.22656691569422e-02 1.95695534890853e-04
3.60942307692308e+00 3.20519850841622e-02 1.95834331771229e-04
3.66211538461538e+00 3.18397161650051e-02 1.95952338459024e-04
3.71480769230769e+00 3.16288530274147e-02 1.96050114380591e-04
3.76750000000000e+00 3.14193863614031e-02 1.96128201299540e-04
3.82019230769231e+00 3.12113069191864e-02 1.96187124336984e-04
3.87288461538462e+00 3.10046055131241e-02 1.96227392443309e-04
3.92557692307692e+00 3.07992730169761e-02 1.96249498824930e-04
3.97826923076923e+00 3.05953003649412e-02 1.96253921862677e-04
4.03096153846154e+00 3.03926785517623e-02 1.96241125956888e-04
4.08365384615385e+00 3.01913986308070e-02 1.96211561863246e-04
4.13634615384615e+00 2.99914517152041e-02 1.96165666994032e-04
4.18903846153846e+00 2.97928289769343e-02 1.96103866305583e-04
4.24173076923077e+00 2.95955216464456e-02 1.96026572551683e-04
4.29442307692308e+00 2.93995210127211e-02 1.95934187091660e-04
4.34711538461538e+00 2.92048184215113e-02 1.95827100103014e-04
4.39980769230769e+00 2.90114052763440e-02 1.95705690768893e-04
4.45250000000000e+00 2.88192730376790e-02 1.95570327916568e-04
4.50519230769231e+00 2.86284132229551e-02 1.95421370604449e-04
4.55788461538461e+00 2.84388174049336e-02 1.95259168265489e-04
4.61057692307692e+00 2.82504772126159e-02 1.95084060830588e-04
4.66326923076923e+00 2.80633843304410e-02 1.94896379282838e-04
4.71596153846154e+00 2.78775304983140e-02 1.94696446166782e-04
4.76865384615385e+00 2.76929075100499e-02 1.94484575679757e-04
4.82134615384615e+00 2.75095072142100e-02 1.94261073746906e-04
4.87403846153846e+00 2.73273215133380e-02 1.94026238605001e-04
4.92673076923077e+00 2.71463423636056e-02 1.93780360859527e-04
4.97942307692308e+00 2.69665617748176e-02 1.93523724023474e-04
5.03211538461538e+00 2.67879718089665e-02 1.93256604559152e-04
5.08480769230769e+00 2.66105645809812e-02 1.92979271907402e-04
5.13750000000000e+00 2.64343322580110e-02 1.92691988908360e-04
5.19019230769231e+00 2.62592670594171e-02 1.92395012187251e-04
5.24288461538462e+00 2.60853612554097e-02 1.92088592168206e-04
5.29557692307692e+00 2.59126071677324e-02 1.91772973077520e-04
5.34826923076923e+00 2.57409971689784e-02 1.91448393320713e-04
5.40096153846154e+00 2.55705236825706e-02 1.91115085827967e-04
5.45365384615385e+00 2.54011791814742e-02 1.90773278046542e-04
5.50634615384615e+00 2.52329561888226e-02 1.90423191924183e-04
5.55903846153846e+00 2.50658472772648e-02 1.90065044333203e-04
5.61173076923077e+00 2.48998450686394e-02 1.89699047047241e-04
5.66442307692308e+00 2.47349422339392e-02 1.89325407135741e-04
5.71711538461538e+00 2.45711314921081e-02 1.88944326935332e-04
5.76980769230769e+00 2.44084056106041e-02 1.88556004013863e-04
5.82250000000000e+00 2.42467574047843e-02 1.88160631474053e-04
5.87519230769231e+00 2.40861797378601e-02 1.87758398230985e-04
5.92788461538461e+00 2.39266655197580e-02 1.87349488971910e-04
5.98057692307692e+00 2.37682077076356e-02 1.86934084109699e-04
6.03326923076923e+00 2.36107993052923e-02 1.86512360060808e-04
6.08596153846154e+00 2.34544333631182e-02 1.86084489499114e-04
6.13865384615385e+00 2.32991029770116e-02 1.85650641306966e-04
6.19134615384615e+00 2.31448012888542e-02 1.85210980520666e-04
6.24403846153846e+00 2.29915214859456e-02 1.84765668658546e-04
6.29673076923077e+00 2.28392568007043e-02 1.84314863664493e-04
6.34942307692308e+00 2.26880005106062e-02 1.83858720214711e-04
6.40211538461538e+00 2.25377459371687e-02 1.83397389659879e-04
6.45480769230769e+00 2.23884864463793e-02 1.82931019962634e-04
6.50750000000000e+00 2.22402154481600e-02 1.82459755930408e-04
6.56019230769231e+00 2.20929263963014e-02 1.81983739427655e-04
6.61288461538462e+00 2.19466127874958e-02 1.81503109313642e-04
6.66557692307692e+00 2.18012681617314e-02 1.81018001376043e-04
6.71826923076923e+00 2.16568861017786e-02 1.80528548547205e-04
6.77096153846154e+00 2.15134602331185e-02 1.80034881101066e-04
6.82365384615385e+00 2.13709842230232e-02 1.79537126587889e-04
6.87634615384615e+00 2.12294517809180e-02 1.79035409765122e-04
6.92903846153846e+00 2.10888566578878e-02 1.78529852861937e-04
6.98173076923077e+00 2.09491926464025e-02 1.78020575510244e-04
7.03442307692308e+00 2.08104535802392e-02 1.77507694992775e-04
7.08711538461538e+00 2.06726333336154e-02 1.76991326174515e-04
7.13980769230769e+00 2.05357258215162e-02 1.76471581430835e-04
7.19250000000000e+00 2.03997249992261e-02 1.75948570833584e-04
7.24519230769231e+00 2.02646248622476e-02 1.75422402320266e-04
7.29788461538462e+00 2.01304194454746e-02 1.74893181624419e-04
7.35057692307692e+00 1.99971028234937e-02 1.74361012202963e-04
7.40326923076923e+00 1.98646691101335e-02 1.73825995410732e-04
7.45596153846154e+00 1.97331124583807e-02 1.73288230659085e-04
7.50865384615385e+00 1.96024270595907e-02 1.72747815345788e-04
7.56134615384615e+00 1.94726071437656e-02 1.72204844782126e-04
7.61403846153846e+00 1.93436469791195e-02 1.71659412412145e-04
7.66673076923077e+00 1.92155408718267e-02 1.71111609740779e-04
7.71942307692308e+00 1.90882831659341e-02 1.70561526539826e-04
7.77211538461538e+00 1.89618682426151e-02 1.70009250777331e-04
7.82480769230769e+00 1.88362905204205e-02 1.69454868544454e-04
7.87750000000000e+00 1.87115444548654e-02 1.68898464208400e-04
7.93019230769231e+00 1.85876245383400e-02 1.68340120551297e-04
7.98288461538462e+00 1.84645252993957e-02 1.67779918700051e-04
8.03557692307692e+00 1.83422413029773e-02 1.67217938053865e-04
8.08826923076923e+00 1.82207671500234e-02 1.66654256428697e-04
8.14096153846154e+00 1.81000974773770e-02 1.66088950188351e-04
8.19365384615385e+00 1.79802269571021e-02 1.65522094175101e-04
8.24634615384615e+00 1.78611502966971e-02 1.64953761638118e-04
8.29903846153846e+00 1.77428622387105e-02 1.64384024418597e-04
8.35173076923077e+00 1.76253575605093e-02 1.63812952879640e-04
8.40442307692308e+00 1.75086310741866e-02 1.63240616080397e-04
8.45711538461538e+00 1.73926776259147e-02 1.62667081707487e-04
8.50980769230769e+00 1.72774920961374e-02 1.62092416004414e-04
8.56250000000000e+00 1.71630693992041e-02 1.61516683899811e-04
8.61519230769231e+00 1.70494044832758e-02 1.60939949123786e-04
8.66788461538462e+00 1.69364923297058e-02 1.60362274140473e-04
8.72057692307692e+00 1.68243279532168e-02 1.59783720078791e-04
8.77326923076923e+00 1.67129064015473e-02 1.59204346854215e-04
8.82596153846154e+00 1.66022227553579e-02 1.58624213279106e-04
8.87865384615385e+00 1.64922721276370e-02 1.58043376996644e-04
8.93134615384615e+00 1.63830496638642e-02 1.57461894413003e-04
8.98403846153846e+00 1.62745505416687e-02 1.56879820855770e-04
9.03673076923077e+00 1.61667699706165e-02 1.56297210507660e-04
9.08942307692308e+00 1.60597031921169e-02 1.55714116555715e-04
9.14211538461538e+00 1.59533454788569e-02 1.55130591126616e-04
9.19480769230769e+00 1.58476921349498e-02 1.54546685220413e-04
9.24750000000000e+00 1.57427384956079e-02 1.53962448819637e-04
9.30019230769231e+00 1.56384799270487e-02 1.53377930988159e-04
9.35288461538462e+00 1.55349118259529e-02 1.52793179808014e-04
9.40557692307692e+00 1.54320296196001e-02 1.52208242314713e-04
9.45826923076923e+00 1.53298287655533e-02 1.51623164601186e-04
9.51096153846154e+00 1.52283047515652e-02 1.51037991911953e-04
9.56365384615385e+00 1.51274530950573e-02 1.50452768581499e-04
9.61634615384615e+00 1.50272693432454e-02 1.49867537971181e-04
9.66903846153846e+00 1.49277490728341e-02 1.49282342606154e-04
9.72173076923077e+00 1.48288878898223e-02 1.48697224113791e-04
9.77442307692308e+00 1.47306814294088e-02 1.48112223352751e-04
9.82711538461538e+00 1.46331253554976e-02 1.47527380352991e-04
9.87980769230769e+00 1.45362153608102e-02 1.46942734254431e-04
9.93250000000000e+00 1.44399471665938e-02 1.46358323400802e-04
9.98519230769231e+00 1.43443165225275e-02 1.45774185568074e-04
1.00378846153846e+01 1.42493192058688e-02 1.45190357437898e-04
1.00905769230769e+01 1.41549510227919e-02 1.44606874899376e-04
1.01432692307692e+01 1.40612078067666e-02 1.44023773465830e-04
1.01959615384615e+01 1.39680854188562e-02 1.43441087737526e-04
1.02486538461538e+01 1.38755797475349e-02 1.42858851599432e-04
1.03013461538462e+01 1.37836867085059e-02 1.42277098234317e-04
1.03540384615385e+01 1.36924022445210e-02 1.41695860134991e-04
1.04067307692308e+01 1.36017223252020e-02 1.41115169116691e-04
1.04594230769231e+01 1.35116429468627e-02 1.40535056329607e-04
1.05121153846154e+01 1.34221601323320e-02 1.39955552270587e-04
1.05648076923077e+01 1.33332699307779e-02 1.39376686794785e-04
1.06175000000000e+01 1.32449684175337e-02 1.38798489446981e-04
1.06701923076923e+01 1.31572516931058e-02 1.38220988507875e-04
1.07228846153846e+01 1.30701158854723e-02 1.37644211651040e-04
1.07755769230769e+01 1.29835571474262e-02 1.37068186606402e-04
1.08282692307692e+01 1.28975716572389e-02 1.36492940187568e-04
1.08809615384615e+01 1.28121556184920e-02 1.35918498631726e-04
1.09336538461538e+01 1.27273052599091e-02 1.35344887609792e-04
1.09863461538462e+01 1.26430168351902e-02 1.34772132236517e-04
1.10390384615385e+01 1.25592866228448e-02 1.34200257079918e-04
1.10917307692308e+01 1.24761109260292e-02 1.33629286170873e-04
1.11444230769231e+01 1.23934860723828e-02 1.33059243012842e-04
1.11971153846154e+01 1.23114084138654e-02 1.32490150590913e-04
1.12498076923077e+01 1.22298743265968e-02 1.31922031380852e-04
1.13025000000000e+01 1.21488802106962e-02 1.31354907642391e-04
1.13551923076923e+01 1.20684224894185e-02 1.30788800570088e-04
1.14078846153846e+01 1.19884976111249e-02 1.30223730876109e-04
1.14605769230769e+01 1.19091020469844e-02 1.29659719378925e-04
1.15132692307692e+01 1.18302322915358e-02 1.29096786137486e-04
1.15659615384615e+01 1.17518848625338e-02 1.28534950752230e-04
1.16186538461538e+01 1.16740563007944e-02 1.27974232372996e-04
1.16713461538462e+01 1.15967431700428e-02 1.27414649706960e-04
1.17240384615385e+01 1.15199420567611e-02 1.26856221026000e-04
1.17767307692308e+01 1.14436495700382e-02 1.26298964174192e-04
1.18294230769231e+01 1.13678623414200e-02 1.25742896575468e-04
1.18821153846154e+01 1.12925770247602e-02 1.25188035240694e-04
1.19348076923077e+01 1.12177902960731e-02 1.24634396774769e-04
1.19875000000000e+01 1.11434988533865e-02 1.24081997636944e-04
1.20401923076923e+01 1.10696994159859e-02 1.23530853383617e-04
1.20928846153846e+01 1.09963887261112e-02 1.22980979186460e-04
1.21455769230769e+01 1.09235635469599e-02 1.22432390355896e-04
1.21982692307692e+01 1.08512206631657e-02 1.21885101569161e-04
1.22509615384615e+01 1.07793568806567e-02 1.21339127137549e-04
1.23036538461538e+01 1.07079690265142e-02 1.20794481012659e-04
1.23563461538462e+01 1.06370539488325e-02 1.20251176792692e-04
1.24090384615385e+01 1.05666085165798e-02 1.19709227728222e-04
1.24617307692308e+01 1.04966296194602e-02 1.19168646728151e-04
1.25144230769231e+01 1.04271141677761e-02 1.18629446365806e-04
1.25671153846154e+01 1.03580590922921e-02 1.18091638884516e-04
1.26198076923077e+01 1.02894613440991e-02 1.17555236203240e-04
1.26725000000000e+01 1.02213178944799e-02 1.17020250148164e-04
1.27251923076923e+01 1.01536257342461e-02 1.16486691776476e-04
1.27778846153846e+01 1.00863818752029e-02 1.15954571837893e-04
1.28305769230769e+01 1.00195833484095e-02 1.15423901241099e-04
1.28832692307692e+01 9.95322720458790e-03 1.14894690364432e-04
1.29359615384615e+01 9.88731051399169e-03 1.14366949293700e-04
1.29886538461538e+01 9.82183036627734e-03 1.13840687827169e-04
1.30413461538462e+01 9.75678387037547e-03 1.13315915480539e-04
1.30940384615385e+01 9.69216815436302e-03 1.12792641491586e-04
1.31467307692308e+01 9.62798036533690e-03 1.12270874824899e-04
1.31994230769231e+01 9.56421766928782e-03 1.11750624176746e-04
1.32521153846154e+01 9.50087725097511e-03 1.11231897979551e-04
1.33048076923077e+01 9.43795631380248e-03 1.10714704406394e-04
1.33575000000000e+01 9.37545207969450e-03 1.10199051577383e-04
1.34101923076923e+01 9.31336178851320e-03 1.09684946955030e-04
1.34628846153846e+01 9.25168269932663e-03 1.09172397756039e-04
1.35155769230769e+01 9.19041208888918e-03 1.08661411367568e-04
1.35682692307692e+01 9.12954725199035e-03 1.08151994730960e-04
1.36209615384615e+01 9.06908550133529e-03 1.07644154553694e-04
1.36736538461538e+01 9.00902416742618e-03 1.07137897313409e-04
1.37263461538462e+01 8.94936059844433e-03 1.06633229261908e-04
1.37790384615385e+01 8.89009216013296e-03 1.06130156428871e-04
1.38317307692308e+01 8.83121623568119e-03 1.05628684625672e-04
1.38844230769231e+01 8.77273022560841e-03 1.05128819449272e-04
1.39371153846154e+01 8.71463154764945e-03 1.04630566285852e-04
1.39898076923077e+01 8.65691763664055e-03 1.04133930314416e-04
1.40425000000000e+01 8.59958594440617e-03 1.03638916691032e-04
1.40951923076923e+01 8.54263393924435e-03 1.03145530007537e-04
1.41478846153846e+01 8.48605910702816e-03 1.02653774659519e-04
1.42005769230769e+01 8.42985894987442e-03 1.02163655218365e-04
1.42532692307692e+01 8.37403098644256e-03 1.01675175879576e-04
1.43059615384615e+01 8.31857275182504e-03 1.01188340652025e-04
1.43586538461538e+01 8.26348179743856e-03 1.00703153361196e-04
1.44113461538462e+01 8.20875569091590e-03 1.00219617652442e-04
1.44640384615385e+01 8.15439201599843e-03 9.97377369939516e-05
1.45167307692308e+01 8.10038837242969e-03 9.92575146798453e-05
1.45694230769231e+01 8.04674237584929e-03 9.87789538333417e-05
1.46221153846154e+01 7.99345165768762e-03 9.83020574096671e-05
1.46748076923077e+01 7.94051386506127e-03 9.78268281989978e-05
1.47275000000000e+01 7.88792666066917e-03 9.73532689911637e-05
1.47801923076923e+01 7.83568772233767e-03 9.68813820905153e-05
1.48328846153846e+01 7.78379474397916e-03 9.64111696452190e-05
1.48855769230769e+01 7.73224543442297e-03 9.59426339801998e-05
1.49382692307692e+01 7.68103751767207e-03 9.54757771027402e-05
1.49909615384615e+01 7.63016873280255e-03 9.50106008717045e-05
1.50436538461538e+01 7.57963683386381e-03 9.45471070001729e-05
1.50963461538462e+01 7.52943958977941e-03 9.40852970580858e-05
1.51490384615385e+01 7.47957478424838e-03 9.36251724746464e-05
1.52017307692308e+01 7.43004021564769e-03 9.31667345408216e-05
1.52544230769231e+01 7.38083369693489e-03 9.27099844119366e-05
1.53071153846154e+01 7.33195305555153e-03 9.22549231100333e-05
1.53598076923077e+01 7.28339613332725e-03 9.18015515262494e-05
1.54125000000000e+01 7.23516078638452e-03 9.13498705682660e-05
1.54651923076923e+01 7.18724488473567e-03 9.08998807250777e-05
1.55178846153846e+01 7.13964631311893e-03 9.04515823620117e-05
1.55705769230769e+01 7.09236296996964e-03 9.00049760190190e-05
1.56232692307692e+01 7.04539276764111e-03 8.95600619671819e-05
1.56759615384615e+01 6.99873363231236e-03 8.91168403602176e-05
1.57286538461538e+01 6.95238350389660e-03 8.86753112366001e-05
1.57813461538462e+01 6.90634033595031e-03 8.82354745217256e-05
1.58340384615385e+01 6.86060209558269e-03 8.77973300298750e-05
1.58867307692308e+01 6.81516676336620e-03 8.73608774662548e-05
1.59394230769231e+01 6.77003233324725e-03 8.69261164290960e-05
1.59921153846154e+01 6.72519681245765e-03 8.64930464115692e-05
1.60448076923077e+01 6.68065822142660e-03 8.60616668037473e-05
1.60975000000000e+01 6.63641459369330e-03 8.56319770247446e-05
1.61501923076923e+01 6.59246397554940e-03 8.52039761318908e-05
1.62028846153846e+01 6.54880442676951e-03 8.47776630853164e-05
1.62555769230769e+01 6.50543401970415e-03 8.43530370155070e-05
1.63082692307692e+01 6.46235083946996e-03 8.39300968250855e-05
1.63609615384615e+01 6.41955298386520e-03 8.35088413246015e-05
1.64136538461538e+01 6.37703856328573e-03 8.30892692342820e-05
1.64663461538462e+01 6.33480570064160e-03 8.26713791857773e-05
1.65190384615385e+01 6.29285253127408e-03 8.22551697237614e-05
1.65717307692308e+01 6.25117720287349e-03 8.18406393076046e-05
1.66244230769231e+01 6.20977787539738e-03 8.14277863130899e-05
