Energy (eV)          EEDF (eV^-(3/2))     First Anisotropy
1.36538461538462e-01 3.37283225445279e-02 3.47387523411002e-05
4.09615384615385e-01 3.28449377162315e-02 5.68033056965410e-05
6.82692307692308e-01 3.19846897858685e-02 7.35171074487632e-05
9.55769230769231e-01 3.11469727705784e-02 8.53541759451483e-05
1.22884615384615e+00 3.03311965601681e-02 9.45382320031151e-05
1.50192307692308e+00 2.95367864930981e-02 1.01936198800980e-04
1.77500000000000e+00 2.87631829715506e-02 1.08009687461499e-04
2.04807692307692e+00 2.80098410464429e-02 1.13045053379029e-04
2.32115384615385e+00 2.72762300419962e-02 1.17237102749722e-04
2.59423076923077e+00 2.65618331789891e-02 1.20726856352874e-04
2.86730769230769e+00 2.58661472192534e-02 1.23621070985843e-04
3.14038461538461e+00 2.51886821017281e-02 1.26003336396842e-04
3.41346153846154e+00 2.45289605988431e-02 1.27940843341045e-04
3.68653846153846e+00 2.38865179863570e-02 1.29488744795616e-04
3.95961538461538e+00 2.32609017094272e-02 1.30693091505728e-04
4.23269230769231e+00 2.26516710648057e-02 1.31592879419720e-04
4.50576923076923e+00 2.20583968948688e-02 1.32221522465565e-04
4.77884615384615e+00 2.14806612804858e-02 1.32607938881838e-04
5.05192307692308e+00 2.09180572472384e-02 1.32777369691517e-04
5.32500000000000e+00 2.03701884822339e-02 1.32752008360341e-04
5.59807692307692e+00 1.98366690512280e-02 1.32551492919587e-04
5.87115384615385e+00 1.93171231280656e-02 1.32193296135262e-04
6.14423076923077e+00 1.88111847291286e-02 1.31693039267920e-04
6.41730769230769e+00 1.83184974580465e-02 1.31064747553843e-04
6.69038461538462e+00 1.78387142519971e-02 1.30321060403888e-04
6.96346153846154e+00 1.73714971374967e-02 1.29473405552107e-04
7.23653846153846e+00 1.69165169943783e-02 1.28532145413672e-04
7.50961538461538e+00 1.64734533217904e-02 1.27506700736063e-04
7.78269230769231e+00 1.60419940126422e-02 1.26405655459380e-04
8.05576923076923e+00 1.56218351354469e-02 1.25236846954288e-04
8.32884615384615e+00 1.52126807184432e-02 1.24007443845537e-04
8.60192307692308e+00 1.48142425412663e-02 1.22724013179017e-04
8.87500000000000e+00 1.44262399333470e-02 1.21392579331265e-04
9.14807692307692e+00 1.40483995747123e-02 1.20018675614453e-04
9.42115384615385e+00 1.36804553039661e-02 1.18607389566386e-04
9.69423076923077e+00 1.33221479304353e-02 1.17163403033975e-04
9.96730769230769e+00 1.29732250527121e-02 1.15691028010065e-04
1.02403846153846e+01 1.26334408780055e-02 1.14194237981468e-04
1.05134615384615e+01 1.23025560552356e-02 1.12676696643221e-04
1.07865384615385e+01 1.19803374997232e-02 1.11141783725336e-04
1.10596153846154e+01 1.16665582315370e-02 1.09592617359821e-04
1.13326923076923e+01 1.13609972156548e-02 1.08032075237390e-04
1.16057692307692e+01 1.10634392036923e-02 1.06462812680576e-04
1.18788461538462e+01 1.07736745900992e-02 1.04887280121168e-04
1.21519230769231e+01 1.04914992564455e-02 1.03307739054220e-04
1.24250000000000e+01 1.02167144304185e-02 1.01726275598662e-04
1.26980769230769e+01 9.94912654370946e-03 1.00144813051134e-04
1.29711538461538e+01 9.68854710208975e-03 9.85651240810759e-05
1.32442307692308e+01 9.43479254600749e-03 9.69888419596111e-05
1.35173076923077e+01 9.18768412355395e-03 9.54174700236047e-05
1.37903846153846e+01 8.94704776282487e-03 9.38523905263440e-05
1.40634615384615e+01 8.71271395462540e-03 9.22948734069149e-05
1.43365384615385e+01 8.48451762758185e-03 9.07460844208380e-05
1.46096153846154e+01 8.26229803372890e-03 8.92070917722181e-05
1.48826923076923e+01 8.04589863529515e-03 8.76788730840777e-05
1.51557692307692e+01 7.83516699304738e-03 8.61623211347261e-05
1.54288461538462e+01 7.62995466313559e-03 8.46582498530866e-05
1.57019230769231e+01 7.43011708818113e-03 8.31673999161853e-05
1.59750000000000e+01 7.23551349694022e-03 8.16904433391658e-05
1.62480769230769e+01 7.04600680398498e-03 8.02279878472008e-05
1.65211538461538e+01 6.86146351668416e-03 7.87805813913280e-05
1.67942307692308e+01 6.68175363752346e-03 7.73487163829073e-05
1.70673076923077e+01 6.50675057377798e-03 7.59328331088012e-05
1.73403846153846e+01 6.33633104736794e-03 7.45333230071520e-05
1.76134615384615e+01 6.17037501100851e-03 7.31505321166350e-05
1.78865384615385e+01 6.00876556057476e-03 7.17847643223069e-05
1.81596153846154e+01 5.85138885379649e-03 7.04362838333111e-05
1.84326923076923e+01 5.69813403007399e-03 6.91053180303388e-05
1.87057692307692e+01 5.54889313159148e-03 6.77920596712280e-05
1.89788461538462e+01 5.40356102968899e-03 6.64966693892013e-05
1.92519230769231e+01 5.26203534832430e-03 6.52192780526745e-05
1.95250000000000e+01 5.12421639280781e-03 6.39599885866083e-05
1.97980769230769e+01 4.99000707890398e-03 6.27188777445616e-05
2.00711538461538e+01 4.85931286649996e-03 6.14959980580004e-05
2.03442307692308e+01 4.73204169089908e-03 6.02913796818802e-05
2.06173076923077e+01 4.60810389868847e-03 5.91050317845405e-05
2.08903846153846e+01 4.48741218401528e-03 5.79369439084811e-05
2.11634615384615e+01 4.36988152884023e-03 5.67870875006152e-05
2.14365384615385e+01 4.25542914125009e-03 5.56554173639198e-05
2.17096153846154e+01 4.14397439774864e-03 5.45418726616182e-05
2.19826923076923e+01 4.03543878646781e-03 5.34463782027876e-05
2.22557692307692e+01 3.92974585139045e-03 5.23688453520992e-05
2.25288461538462e+01 3.82682113993107e-03 5.13091731661148e-05
2.28019230769231e+01 3.72659214901569e-03 5.02672494735596e-05
2.30750000000000e+01 3.62898827451319e-03 4.92429516372119e-05
2.33480769230769e+01 3.53394076109733e-03 4.82361473108299e-05
2.36211538461538e+01 3.44138265504722e-03 4.72466953381087e-05
2.38942307692308e+01 3.35124875581964e-03 4.62744466084101e-05
2.41673076923077e+01 3.26347557055107e-03 4.53192446380256e-05
2.44403846153846e+01 3.17800126898689e-03 4.43809261520188e-05
2.47134615384615e+01 3.09476564098679e-03 4.34593217962558e-05
2.49865384615385e+01 3.01371005302516e-03 4.25542568159056e-05
2.52596153846154e+01 2.93477740725724e-03 4.16655514576862e-05
2.55326923076923e+01 2.85791210130027e-03 4.07930215713808e-05
2.58057692307692e+01 2.78305998877802e-03 3.99364789787778e-05
2.60788461538462e+01 2.71016834205632e-03 3.90957320048110e-05
2.63519230769231e+01 2.63918581420183e-03 3.82705859843182e-05
2.66250000000000e+01 2.57006240311908e-03 3.74608435710792e-05
2.68980769230769e+01 2.50274941608026e-03 3.66663050536920e-05
2.71711538461538e+01 2.43719943618231e-03 3.58867687752927e-05
2.74442307692308e+01 2.37336628816980e-03 3.51220315342497e-05
2.77173076923077e+01 2.31120500617209e-03 3.43718888127335e-05
2.79903846153846e+01 2.25067180181504e-03 3.36361350133830e-05
2.82634615384615e+01 2.19172403403026e-03 3.29145637898693e-05
2.85365384615385e+01 2.13432017834724e-03 3.22069683626074e-05
2.88096153846154e+01 2.07841979787027e-03 3.15131416585813e-05
2.90826923076923e+01 2.02398351479482e-03 3.08328765893042e-05
2.93557692307692e+01 1.97097298248992e-03 3.01659661805467e-05
2.96288461538462e+01 1.91935085903162e-03 2.95122038153896e-05
2.99019230769231e+01 1.86908078033990e-03 2.88713834664785e-05
3.01750000000000e+01 1.82012733475354e-03 2.82432998021023e-05
3.04480769230769e+01 1.77245603793056e-03 2.76277483012350e-05
3.07211538461538e+01 1.72603330903002e-03 2.70245254422096e-05
3.09942307692308e+01 1.68082644657239e-03 2.64334288830046e-05
3.12673076923077e+01 1.63680360556875e-03 2.58542575310471e-05
3.15403846153846e+01 1.59393377495437e-03 2.52868116219156e-05
3.18134615384615e+01 1.55218675615494e-03 2.47308928642708e-05
3.20865384615385e+01 1.51153314139325e-03 2.41863045782999e-05
3.23596153846154e+01 1.47194429311644e-03 2.36528517200946e-05
3.26326923076923e+01 1.43339232382370e-03 2.31303410011575e-05
3.29057692307692e+01 1.39585007630855e-03 2.26185809117226e-05
3.31788461538462e+01 1.35929110487332e-03 2.21173818225954e-05
3.34519230769231e+01 1.32368965634761e-03 2.16265560823944e-05
3.37250000000000e+01 1.28902065206734e-03 2.11459180329013e-05
3.39980769230769e+01 1.25525967011065e-03 2.06752840325854e-05
3.42711538461538e+01 1.22238292839449e-03 2.02144725317231e-05
3.45442307692308e+01 1.19036726761508e-03 1.97633041440396e-05
3.48173076923077e+01 1.15919013503832e-03 1.93216016463732e-05
3.50903846153846e+01 1.12882956852778e-03 1.88891899860860e-05
3.53634615384615e+01 1.09926418133560e-03 1.84658963347730e-05
3.56365384615385e+01 1.07047314676960e-03 1.80515501393843e-05
3.59096153846154e+01 1.04243618361329e-03 1.76459830984574e-05
3.61826923076923e+01 1.01513354183961e-03 1.72490292037766e-05
3.64557692307692e+01 9.88545988626316e-04 1.68605247188726e-05
3.67288461538461e+01 9.62654795028099e-04 1.64803082117859e-05
3.70019230769231e+01 9.37441722558310e-04 1.61082205861297e-05
3.72750000000000e+01 9.12889010418058e-04 1.57441050583979e-05
3.75480769230769e+01 8.88979362922146e-04 1.53878071419450e-05
3.78211538461538e+01 8.65695937507885e-04 1.50391746669450e-05
3.80942307692308e+01 8.43022332674142e-04 1.46980577991753e-05
3.83673076923077e+01 8.20942576494590e-04 1.43643090114237e-05
3.86403846153846e+01 7.99441115311819e-04 1.40377830610972e-05
3.89134615384615e+01 7.78502802949074e-04 1.37183370000863e-05
3.91865384615385e+01 7.58112889869032e-04 1.34058301838619e-05
3.94596153846154e+01 7.38257012842195e-04 1.31001242309791e-05
3.97326923076923e+01 7.18921184829274e-04 1.28010830276037e-05
4.00057692307692e+01 7.00091785081792e-04 1.25085726902184e-05
4.02788461538462e+01 6.81755549689317e-04 1.22224615658204e-05
4.05519230769231e+01 6.63899562090865e-04 1.19426202317611e-05
4.08250000000000e+01 6.46511244025602e-04 1.16689214600101e-05
4.10980769230769e+01 6.29578346631705e-04 1.14012401866000e-05
4.13711538461538e+01 6.13088941942336e-04 1.11394535061237e-05
4.16442307692308e+01 5.97031414356161e-04 1.08834406661070e-05
4.19173076923077e+01 5.81394452498246e-04 1.06330830299643e-05
4.21903846153846e+01 5.66167041216461e-04 1.03882640447238e-05
4.24634615384615e+01 5.51338453931119e-04 1.01488692312025e-05
4.27365384615385e+01 5.36898244967510e-04 9.91478617423394e-06
4.30096153846154e+01 5.22836242235509e-04 9.68590447983863e-06
4.32826923076923e+01 5.09142540064212e-04 9.46211576342369e-06
4.35557692307692e+01 4.95807492193850e-04 9.24331361011291e-06
4.38288461538462e+01 4.82821705073071e-04 9.02939356100425e-06
4.41019230769231e+01 4.70176031147520e-04 8.82025309965311e-06
4.43750000000000e+01 4.57861562448200e-04 8.61579161486669e-06
4.46480769230769e+01 4.45869624289952e-04 8.41591036741784e-06
4.49211538461538e+01 4.34191769241836e-04 8.22051247419894e-06
4.51942307692308e+01 4.22819771093735e-04 8.02950289269435e-06
4.54673076923077e+01 4.11745619089747e-04 7.84278838450161e-06
4.57403846153846e+01 4.00961512261966e-04 7.66027748243987e-06
4.60134615384615e+01 3.90459854006454e-04 7.48188047328502e-06
4.62865384615385e+01 3.80233246659277e-04 7.30750938088939e-06
4.65596153846154e+01 3.70274486310082e-04 7.13707792715538e-06
4.68326923076923e+01 3.60576557727544e-04 6.97050151442880e-06
4.71057692307692e+01 3.51132629397838e-04 6.80769718922941e-06
4.73788461538461e+01 3.41936048772798e-04 6.64858362393210e-06
4.76519230769231e+01 3.32980337521938e-04 6.49308109889207e-06
4.79250000000000e+01 3.24259186989969e-04 6.34111146871905e-06
4.81980769230769e+01 3.15766453735426e-04 6.19259813147209e-06
4.84711538461538e+01 3.07496155256224e-04 6.04746601000021e-06
4.87442307692308e+01 2.99442465721135e-04 5.90564153375111e-06
4.90173076923077e+01 2.91599711884372e-04 5.76705260654500e-06
4.92903846153846e+01 2.83962369073938e-04 5.63162857701110e-06
4.95634615384615e+01 2.76525057346660e-04 5.49930021990786e-06
4.98365384615385e+01 2.69282537650658e-04 5.36999971792419e-06
5.01096153846154e+01 2.62229708151028e-04 5.24366062858426e-06
5.03826923076923e+01 2.55361600636021e-04 5.12021786596386e-06
5.06557692307692e+01 2.48673377004251e-04 4.99960766985974e-06
5.09288461538462e+01 2.42160325896422e-04 4.88176758740416e-06
5.12019230769231e+01 2.35817859335866e-04 4.76663645516602e-06
5.14750000000000e+01 2.29641509510492e-04 4.65415437060469e-06
5.17480769230769e+01 2.23626925614070e-04 4.54426266567841e-06
5.20211538461538e+01 2.17769870816463e-04 4.43690388891873e-06
5.22942307692308e+01 2.12066219243294e-04 4.33202178798457e-06
5.25673076923077e+01 2.06511953081739e-04 4.22956128277949e-06
5.28403846153846e+01 2.01103159740188e-04 4.12946844052909e-06
5.31134615384615e+01 1.95836029122988e-04 4.03169045844560e-06
5.33865384615385e+01 1.90706850914982e-04 3.93617564686090e-06
5.36596153846154e+01 1.85712011978564e-04 3.84287340230650e-06
5.39326923076923e+01 1.80847993808518e-04 3.75173419085215e-06
5.42057692307692e+01 1.76111370044852e-04 3.66270952298208e-06
5.44788461538461e+01 1.71498804085525e-04 3.57575193711151e-06
5.47519230769231e+01 1.67007046709158e-04 3.49081498355404e-06
5.50250000000000e+01 1.62632933795353e-04 3.40785320131476e-06
5.52980769230769e+01 1.58373384088194e-04 3.32682209646241e-06
5.55711538461538e+01 1.54225397048966e-04 3.24767812640778e-06
5.58442307692308e+01 1.50186050718773e-04 3.17037868461427e-06
5.61173076923077e+01 1.46252499668297e-04 3.09488207894452e-06
5.63903846153846e+01 1.42421972986703e-04 3.02114751144105e-06
5.66634615384615e+01 1.38691772350228e-04 2.94913506340138e-06
5.69365384615385e+01 1.35059270100493e-04 2.87880568086495e-06
5.72096153846154e+01 1.31521907400605e-04 2.81012115329678e-06
5.74826923076923e+01 1.28077192432665e-04 2.74304409938719e-06
5.77557692307692e+01 1.24722698636724e-04 2.67753794712892e-06
5.80288461538461e+01 1.21456063018957e-04 2.61356691990041e-06
5.83019230769231e+01 1.18274984469238e-04 2.55109602293596e-06
5.85750000000000e+01 1.15177222146253e-04 2.49009102494862e-06
5.88480769230769e+01 1.12160593893939e-04 2.43051844090492e-06
5.91211538461538e+01 1.09222974719764e-04 2.37234551892441e-06
5.93942307692308e+01 1.06362295282054e-04 2.31554022754340e-06
5.96673076923077e+01 1.03576540437654e-04 2.26007123867642e-06
5.99403846153846e+01 1.00863747817942e-04 2.20590791162260e-06
6.02134615384615e+01 9.82220064601404e-05 2.15302028076986e-06
6.04865384615385e+01 9.56494554472440e-05 2.10137904364191e-06
6.07596153846154e+01 9.31442826018720e-05 2.05095554433035e-06
6.10326923076923e+01 9.07047232097310e-05 2.00172176187010e-06
6.13057692307692e+01 8.83290587726752e-05 1.95365029473583e-06
6.15788461538462e+01 8.60156158098281e-05 1.90671434951915e-06
6.18519230769231e+01 8.37627646668191e-05 1.86088772992258e-06
6.21250000000000e+01 8.15689183718659e-05 1.81614482247138e-06
6.23980769230769e+01 7.94325315144910e-05 1.77246058306293e-06
6.26711538461538e+01 7.73520991672134e-05 1.72981052639895e-06
6.29442307692308e+01 7.53261558149044e-05 1.68817071571352e-06
6.32173076923077e+01 7.33532743260181e-05 1.64751774958626e-06
6.34903846153846e+01 7.14320649442996e-05 1.60782874951431e-06
6.37634615384615e+01 6.95611743189269e-05 1.56908135006972e-06
6.40365384615385e+01 6.77392845418631e-05 1.53125368933232e-06
6.43096153846154e+01 6.59651122226458e-05 1.49432439618615e-06
6.45826923076923e+01 6.42374075843394e-05 1.45827258105398e-06
6.48557692307692e+01 6.25549535805965e-05 1.42307782399771e-06
6.51288461538461e+01 6.09165650461536e-05 1.38872016573203e-06
6.54019230769231e+01 5.93210878539930e-05 1.35518009889016e-06
6.56750000000000e+01 5.77673981050572e-05 1.32243855706317e-06
6.59480769230769e+01 5.62544013342812e-05 1.29047690444645e-06
6.62211538461538e+01 5.47810317465362e-05 1.25927692750309e-06
6.64942307692308e+01 5.33462514587987e-05 1.22882082686126e-06
6.67673076923077e+01 5.19490497714348e-05 1.19909120723295e-06
6.70403846153846e+01 5.05884424542366e-05 1.17007106788273e-06
6.73134615384615e+01 4.92634710592217e-05 1.14174379490562e-06
6.75865384615385e+01 4.79732022392335e-05 1.11409315372148e-06
6.78596153846154e+01 4.67167270925846e-05 1.08710327943379e-06
6.81326923076923e+01 4.54931605228062e-05 1.06075866958281e-06
6.84057692307692e+01 4.43016406134427e-05 1.03504417510673e-06
6.86788461538462e+01 4.31413280261411e-05 1.00994499333513e-06
6.89519230769231e+01 4.20114054040448e-05 9.85446661179199e-07
6.92250000000000e+01 4.09110767978460e-05 9.61535046808918e-07
6.94980769230769e+01 3.98395671035768e-05 9.38196341769713e-07
6.97711538461538e+01 3.87961215212508e-05 9.15417054511378e-07
7.00442307692308e+01 3.77800050184213e-05 8.93184004098648e-07
7.03173076923077e+01 3.67905018140147e-05 8.71484312576720e-07
7.05903846153846e+01 3.58269148727701e-05 8.50305397734583e-07
7.08634615384615e+01 3.48885654183431e-05 8.29634967135234e-07
7.11365384615384e+01 3.39747924509593e-05 8.09461012313469e-07
7.14096153846154e+01 3.30849522832128e-05 7.89771801517290e-07
7.16826923076923e+01 3.22184180866378e-05 7.70555874118572e-07
7.19557692307692e+01 3.13745794489960e-05 7.51802033802867e-07
7.22288461538461e+01 3.05528419478182e-05 7.33499343178321e-07
7.25019230769231e+01 2.97526267280728e-05 7.15637118535985e-07
7.27750000000000e+01 2.89733700956305e-05 6.98204923580487e-07
7.30480769230769e+01 2.82145231191577e-05 6.81192563478128e-07
7.33211538461538e+01 2.74755512465651e-05 6.64590079894753e-07
7.35942307692308e+01 2.67559339252608e-05 6.48387746172848e-07
7.38673076923077e+01 2.60551642365438e-05 6.32576061592914e-07
7.41403846153846e+01 2.53727485376100e-05 6.17145745922161e-07
7.44134615384615e+01 2.47082061165904e-05 6.02087734851166e-07
7.46865384615385e+01 2.40610688510949e-05 5.87393175558547e-07
7.49596153846154e+01 2.34308808794142e-05 5.73053421281106e-07
7.52326923076923e+01 2.28171982794004e-05 5.59060027048915e-07
7.55057692307692e+01 2.22195887549746e-05 5.45404744587599e-07
7.57788461538461e+01 2.16376313339898e-05 5.32079518212409e-07
7.60519230769231e+01 2.10709160692547e-05 5.19076480837520e-07
7.63250000000000e+01 2.05190437505829e-05 5.06387949283735e-07
7.65980769230769e+01 1.99816256228860e-05 4.94006419815272e-07
7.68711538461538e+01 1.94582831144379e-05 4.81924564370628e-07
7.71442307692308e+01 1.89486475680425e-05 4.70135226899112e-07
7.74173076923077e+01 1.84523599820735e-05 4.58631419073234e-07
7.76903846153846e+01 1.79690707569713e-05 4.47406316208294e-07
7.79634615384615e+01 1.74984394508500e-05 4.36453253804823e-07
7.82365384615385e+01 1.70401345377686e-05 4.25765724187922e-07
7.85096153846154e+01 1.65938331748439e-05 4.15337372466666e-07
7.87826923076923e+01 1.61592209748324e-05 4.05161993307195e-07
7.90557692307692e+01 1.57359917841389e-05 3.95233527137080e-07
7.93288461538461e+01 1.53238474687656e-05 3.85546057043454e-07
7.96019230769231e+01 1.49224977026544e-05 3.76093805758033e-07
7.98750000000000e+01 1.45316597637317e-05 3.66871132163607e-07
8.01480769230769e+01 1.41510583342836e-05 3.57872527965614e-07
8.04211538461538e+01 1.37804253084445e-05 3.49092614850810e-07
8.06942307692308e+01 1.34194996018774e-05 3.40526141725500e-07
8.09673076923077e+01 1.30680269683543e-05 3.32167981527867e-07
8.12403846153846e+01 1.27257598202430e-05 3.24013128189625e-07
8.15134615384615e+01 1.23924570553692e-05 3.16056694034857e-07
8.17865384615385e+01 1.20678838858830e-05 3.08293907251601e-07
8.20596153846154e+01 1.17518116733065e-05 3.00720108898134e-07
8.23326923076923e+01 1.14440177674761e-05 2.93330750478078e-07
8.26057692307692e+01 1.11442853493431e-05 2.86121391126702e-07
8.28788461538461e+01 1.08524032793334e-05 2.79087695282905e-07
8.31519230769231e+01 1.05681659475002e-05 2.72225430426323e-07
8.34250000000000e+01 1.02913731290659e-05 2.65530464487652e-07
8.36980769230769e+01 1.00218298430606e-05 2.58998763377895e-07
8.39711538461538e+01 9.75934621594211e-06 2.52626388859633e-07
8.42442307692308e+01 9.50373734685465e-06 2.46409496477814e-07
8.45173076923077e+01 9.25482317771556e-06 2.40344333199681e-07
8.47903846153846e+01 9.01242836609578e-06 2.34427235162174e-07
8.50634615384615e+01 8.77638216256515e-06 2.28654625726387e-07
8.53365384615385e+01 8.54651828953341e-06 2.23023013586364e-07
8.56096153846154e+01 8.32267482441775e-06 2.17528990559133e-07
8.58826923076923e+01 8.10469408558059e-06 2.12169229772710e-07
8.61557692307692e+01 7.89242252101120e-06 2.06940483588071e-07
