Energy (eV)          EEDF (eV^-(3/2))     First Anisotropy
2.75000000000000e-03 1.14631237289762e+00 5.39954686267131e-04
8.25000000000000e-03 1.13994681166957e+00 8.92142251857965e-04
1.37500000000000e-02 1.13361659890007e+00 1.17911677115075e-03
1.92500000000000e-02 1.12732153829265e+00 1.39798041473997e-03
2.47500000000000e-02 1.12106143464393e+00 1.58121780820498e-03
3.02500000000000e-02 1.11483609383497e+00 1.74108736186885e-03
3.57500000000000e-02 1.10864532282493e+00 1.88392125583497e-03
4.12500000000000e-02 1.10248892964498e+00 2.01353650771250e-03
4.67500000000000e-02 1.09636672339234e+00 2.13246017896724e-03
5.22500000000000e-02 1.09027851422434e+00 2.24247521906788e-03
5.77500000000000e-02 1.08422411335254e+00 2.34489915617244e-03
6.32500000000000e-02 1.07820333303683e+00 2.44074057617320e-03
6.87500000000000e-02 1.07221598657967e+00 2.53079340023884e-03
7.42500000000000e-02 1.06626188832024e+00 2.61569687347135e-03
7.97500000000000e-02 1.06034085362874e+00 2.69597543823378e-03
8.52500000000000e-02 1.05445269890061e+00 2.77206620187993e-03
9.07500000000000e-02 1.04859724155088e+00 2.84433843226767e-03
9.62500000000000e-02 1.04277430000846e+00 2.91310775021207e-03
1.01750000000000e-01 1.03698369371056e+00 2.97864668918516e-03
1.07250000000000e-01 1.03122524309708e+00 3.04119270258521e-03
1.12750000000000e-01 1.02549876960501e+00 3.10095433754441e-03
1.18250000000000e-01 1.01980409566293e+00 3.15811606584904e-03
1.23750000000000e-01 1.01414104468546e+00 3.21284211415803e-03
1.29250000000000e-01 1.00850944106785e+00 3.26527953691289e-03
1.34750000000000e-01 1.00290911018048e+00 3.31556070812600e-03
1.40250000000000e-01 9.97339878363450e-01 3.36380536161759e-03
1.45750000000000e-01 9.91801572921224e-01 3.41012227634965e-03
1.51250000000000e-01 9.86294022117251e-01 3.45461067990240e-03
1.56750000000000e-01 9.80817055168647e-01 3.49736142595828e-03
1.62250000000000e-01 9.75370502240898e-01 3.53845798898274e-03
1.67750000000000e-01 9.69954194442596e-01 3.57797730983556e-03
1.73250000000000e-01 9.64567963820199e-01 3.61599051890375e-03
1.78750000000000e-01 9.59211643352823e-01 3.65256355789593e-03
1.84250000000000e-01 9.53885066947065e-01 3.68775771724635e-03
1.89750000000000e-01 9.48588069431852e-01 3.72163010281111e-03
1.95250000000000e-01 9.43320486553318e-01 3.75423404298306e-03
2.00750000000000e-01 9.38082154969711e-01 3.78561944533419e-03
2.06250000000000e-01 9.32872912246330e-01 3.81583311028426e-03
2.11750000000000e-01 9.27692596850485e-01 3.84491900800949e-03
2.17250000000000e-01 9.22541048146489e-01 3.87291852376647e-03
2.22750000000000e-01 9.17418106390679e-01 3.89987067596018e-03
2.28250000000000e-01 9.12323612726460e-01 3.92581231060076e-03
2.33750000000000e-01 9.07257409179381e-01 3.95077827522886e-03
2.39250000000000e-01 9.02219338652234e-01 3.97480157492113e-03
2.44750000000000e-01 8.97209244920184e-01 3.99791351260509e-03
2.50250000000000e-01 8.92226972625925e-01 4.02014381558767e-03
2.55750000000000e-01 8.87272367274863e-01 4.04152074993432e-03
2.61250000000000e-01 8.82345275230323e-01 4.06207122411146e-03
2.66750000000000e-01 8.77445543708788e-01 4.08182088310980e-03
2.72250000000000e-01 8.72573020775157e-01 4.10079419410821e-03
2.77750000000000e-01 8.67727555338039e-01 4.11901452460142e-03
2.83250000000000e-01 8.62908997145065e-01 4.13650421379484e-03
2.88750000000000e-01 8.58117196778226e-01 4.15328463796924e-03
2.94250000000000e-01 8.53352005649247e-01 4.16937627043695e-03
2.99750000000000e-01 8.48613275994973e-01 4.18479873663248e-03
3.05250000000000e-01 8.43900860872788e-01 4.19957086481700e-03
3.10750000000000e-01 8.39214614156063e-01 4.21371073282365e-03
3.16250000000000e-01 8.34554390529618e-01 4.22723571121875e-03
3.21750000000000e-01 8.29920045485221e-01 4.24016250321493e-03
3.27250000000000e-01 8.25311435317106e-01 4.25250718163466e-03
3.32750000000000e-01 8.20728417117516e-01 4.26428522318867e-03
3.38250000000000e-01 8.16170848772270e-01 4.27551154030929e-03
3.43750000000000e-01 8.11638588956361e-01 4.28620051075193e-03
3.49250000000000e-01 8.07131497129568e-01 4.29636600515339e-03
3.54750000000000e-01 8.02649433532104e-01 4.30602141272404e-03
3.60250000000000e-01 7.98192259180274e-01 4.31517966522526e-03
3.65750000000000e-01 7.93759835862175e-01 4.32385325937273e-03
3.71250000000000e-01 7.89352026133402e-01 4.33205427779434e-03
3.76750000000000e-01 7.84968693312791e-01 4.33979440865508e-03
3.82250000000000e-01 7.80609701478180e-01 4.34708496405367e-03
3.87750000000000e-01 7.76274915462190e-01 4.35393689728594e-03
3.93250000000000e-01 7.71964200848041e-01 4.36036081906064e-03
3.98750000000000e-01 7.67677423965377e-01 4.36636701274457e-03
4.04250000000000e-01 7.63414451886125e-01 4.37196544870981e-03
4.09750000000000e-01 7.59175152420371e-01 4.37716579784932e-03
4.15250000000000e-01 7.54959394112262e-01 4.38197744431707e-03
4.20750000000000e-01 7.50767046235930e-01 4.38640949754987e-03
4.26250000000000e-01 7.46597978791439e-01 4.39047080362178e-03
4.31750000000000e-01 7.42452062500748e-01 4.39416995597393e-03
4.37250000000000e-01 7.38329168803714e-01 4.39751530556407e-03
4.42750000000000e-01 7.34229169854092e-01 4.40051497047561e-03
4.48250000000000e-01 7.30151938515581e-01 4.40317684501874e-03
4.53750000000000e-01 7.26097348357877e-01 4.40550860835970e-03
4.59250000000000e-01 7.22065273652751e-01 4.40751773270663e-03
4.64750000000000e-01 7.18055589370155e-01 4.40921149108100e-03
4.70250000000000e-01 7.14068171174342e-01 4.41059696470216e-03
4.75750000000000e-01 7.10102895420011e-01 4.41168105000552e-03
4.81250000000000e-01 7.06159639148473e-01 4.41247046531891e-03
4.86750000000000e-01 7.02238280083837e-01 4.41297175721861e-03
4.92250000000000e-01 6.98338696629221e-01 4.41319130658247e-03
4.97750000000000e-01 6.94460767862979e-01 4.41313533435845e-03
5.03250000000000e-01 6.90604373534953e-01 4.41280990706667e-03
5.08750000000000e-01 6.86769394062742e-01 4.41222094204758e-03
5.14250000000000e-01 6.82955710527997e-01 4.41137421247261e-03
5.19750000000000e-01 6.79163204672730e-01 4.41027535213227e-03
5.25250000000000e-01 6.75391758895651e-01 4.40892986001071e-03
5.30750000000000e-01 6.71641256248517e-01 4.40734310465944e-03
5.36250000000000e-01 6.67911580432509e-01 4.40552032838295e-03
5.41750000000000e-01 6.64202615794623e-01 4.40346665124505e-03
5.47250000000000e-01 6.60514247324086e-01 4.40118707490612e-03
5.52750000000000e-01 6.56846360648790e-01 4.39868648629878e-03
5.58250000000000e-01 6.53198842031741e-01 4.39596966115198e-03
5.63750000000000e-01 6.49571578367538e-01 4.39304126737099e-03
5.69250000000000e-01 6.45964457178862e-01 4.38990586828020e-03
5.74750000000000e-01 6.42377366612988e-01 4.38656792573643e-03
5.80250000000000e-01 6.38810195438321e-01 4.38303180311798e-03
5.85750000000000e-01 6.35262833040941e-01 4.37930176819758e-03
5.91250000000000e-01 6.31735169421176e-01 4.37538199590248e-03
5.96750000000000e-01 6.28227095190191e-01 4.37127657096941e-03
6.02250000000000e-01 6.24738501566597e-01 4.36698949049848e-03
6.07750000000000e-01 6.21269280373074e-01 4.36252466641031e-03
6.13250000000000e-01 6.17819324033021e-01 4.35788592781207e-03
6.18750000000000e-01 6.14388525567217e-01 4.35307702327568e-03
6.24250000000000e-01 6.10976778590506e-01 4.34810162303376e-03
6.29750000000000e-01 6.07583977308495e-01 4.34296332109547e-03
6.35250000000000e-01 6.04210016514279e-01 4.33766563728588e-03
6.40750000000000e-01 6.00854791585171e-01 4.33221201921378e-03
6.46250000000000e-01 5.97518198479464e-01 4.32660584417009e-03
6.51750000000000e-01 5.94200133733203e-01 4.32085042096017e-03
6.57250000000000e-01 5.90900494456975e-01 4.31494899167253e-03
6.62750000000000e-01 5.87619178332721e-01 4.30890473338805e-03
6.68250000000000e-01 5.84356083610561e-01 4.30272075983038e-03
6.73750000000000e-01 5.81111109105642e-01 4.29640012296063e-03
6.79250000000000e-01 5.77884154194995e-01 4.28994581452002e-03
6.84750000000000e-01 5.74675118814422e-01 4.28336076752162e-03
6.90250000000000e-01 5.71483903455386e-01 4.27664785769260e-03
6.95750000000000e-01 5.68310409161930e-01 4.26980990487046e-03
7.01250000000000e-01 5.65154537527608e-01 4.26284967435383e-03
7.06750000000000e-01 5.62016190692430e-01 4.25576987821046e-03
7.12250000000000e-01 5.58895271339833e-01 4.24857317654529e-03
7.17750000000000e-01 5.55791682693657e-01 4.24126217872588e-03
7.23250000000000e-01 5.52705328515153e-01 4.23383944457320e-03
7.28750000000000e-01 5.49636113099986e-01 4.22630748551440e-03
7.34250000000000e-01 5.46583941275280e-01 4.21866876569817e-03
7.39750000000000e-01 5.43548718396660e-01 4.21092570308080e-03
7.45250000000000e-01 5.40530350345318e-01 4.20308067047663e-03
7.50750000000000e-01 5.37528743525094e-01 4.19513599657797e-03
7.56250000000000e-01 5.34543804859577e-01 4.18709396694507e-03
7.61750000000000e-01 5.31575441789216e-01 4.17895682496668e-03
7.67250000000000e-01 5.28623562268448e-01 4.17072677279362e-03
7.72750000000000e-01 5.25688074762849e-01 4.16240597224438e-03
7.78250000000000e-01 5.22768888246291e-01 4.15399654568583e-03
7.83750000000000e-01 5.19865912198122e-01 4.14550057688845e-03
7.89250000000000e-01 5.16979056600358e-01 4.13692011185764e-03
7.94750000000000e-01 5.14108231934892e-01 4.12825715964147e-03
8.00250000000000e-01 5.11253349180717e-01 4.11951369311645e-03
8.05750000000000e-01 5.08414319811168e-01 4.11069164975167e-03
8.11250000000000e-01 5.05591055791175e-01 4.10179293235238e-03
8.16750000000000e-01 5.02783469574532e-01 4.09281940978237e-03
8.22250000000000e-01 4.99991474101185e-01 4.08377291766821e-03
8.27750000000000e-01 4.97214982794533e-01 4.07465525908376e-03
8.33250000000000e-01 4.94453909558737e-01 4.06546820521670e-03
8.38750000000000e-01 4.91708168776060e-01 4.05621349601840e-03
8.44250000000000e-01 4.88977675304205e-01 4.04689284083620e-03
8.49750000000000e-01 4.86262344473674e-01 4.03750791902874e-03
8.55250000000000e-01 4.83562092085150e-01 4.02806038056616e-03
8.60750000000000e-01 4.80876834406877e-01 4.01855184661503e-03
8.66250000000000e-01 4.78206488172071e-01 4.00898391010744e-03
8.71750000000000e-01 4.75550970576333e-01 3.99935813629737e-03
8.77250000000000e-01 4.72910199275084e-01 3.98967606330219e-03
8.82750000000000e-01 4.70284092381012e-01 3.97993920263047e-03
8.88250000000000e-01 4.67672568461529e-01 3.97014903969665e-03
8.93750000000000e-01 4.65075546536250e-01 3.96030703432423e-03
8.99250000000000e-01 4.62492946074481e-01 3.95041462123589e-03
9.04750000000000e-01 4.59924686992719e-01 3.94047321053152e-03
9.10250000000000e-01 4.57370689652173e-01 3.93048418815509e-03
9.15750000000000e-01 4.54830874856292e-01 3.92044891635042e-03
9.21250000000000e-01 4.52305163848308e-01 3.91036873410600e-03
9.26750000000000e-01 4.49793478308797e-01 3.90024495758956e-03
9.32250000000000e-01 4.47295740353249e-01 3.89007888057228e-03
9.37750000000000e-01 4.44811872529651e-01 3.87987177484277e-03
9.43250000000000e-01 4.42341797816089e-01 3.86962489061205e-03
9.48750000000000e-01 4.39885439618355e-01 3.85933945690921e-03
9.54250000000000e-01 4.37442721767579e-01 3.84901668196721e-03
9.59750000000000e-01 4.35013568517857e-01 3.83865775360075e-03
9.65250000000000e-01 4.32597904543913e-01 3.82826383957588e-03
9.70750000000000e-01 4.30195654938754e-01 3.81783608797011e-03
9.76250000000000e-01 4.27806745211355e-01 3.80737562752595e-03
9.81750000000000e-01 4.25431101284343e-01 3.79688356799520e-03
9.87250000000000e-01 4.23068649491702e-01 3.78636100047625e-03
9.92750000000000e-01 4.20719316576491e-01 3.77580899774497e-03
9.98250000000000e-01 4.18383029688569e-01 3.76522861457607e-03
1.00375000000000e+00 4.16059716382339e-01 3.75462088805970e-03
1.00925000000000e+00 4.13749304614497e-01 3.74398683791094e-03
1.01475000000000e+00 4.11451722741805e-01 3.73332746677080e-03
1.02025000000000e+00 4.09166899518862e-01 3.72264376050358e-03
1.02575000000000e+00 4.06894764095900e-01 3.71193668848591e-03
1.03125000000000e+00 4.04635246016585e-01 3.70120720388976e-03
1.03675000000000e+00 4.02388275215833e-01 3.69045624396097e-03
1.04225000000000e+00 4.00153782017636e-01 3.67968473029042e-03
1.04775000000000e+00 3.97931697132902e-01 3.66889356908101e-03
1.05325000000000e+00 3.95721951657307e-01 3.65808365140804e-03
1.05875000000000e+00 3.93524477069159e-01 3.64725585347381e-03
1.06425000000000e+00 3.91339205227270e-01 3.63641103685867e-03
1.06975000000000e+00 3.89166068368849e-01 3.62555004876622e-03
1.07525000000000e+00 3.87004999107392e-01 3.61467372226339e-03
1.08075000000000e+00 3.84855930430603e-01 3.60378287651518e-03
1.08625000000000e+00 3.82718795698305e-01 3.59287831701539e-03
1.09175000000000e+00 3.80593528640384e-01 3.58196083581374e-03
1.09725000000000e+00 3.78480063354725e-01 3.57103121173664e-03
1.10275000000000e+00 3.76378334305175e-01 3.56009021060413e-03
1.10825000000000e+00 3.74288276319508e-01 3.54913858544378e-03
1.11375000000000e+00 3.72209824587403e-01 3.53817707669875e-03
1.11925000000000e+00 3.70142914658438e-01 3.52720641243258e-03
1.12475000000000e+00 3.68087482440087e-01 3.51622730853092e-03
1.13025000000000e+00 3.66043464195737e-01 3.50524046889752e-03
1.13575000000000e+00 3.64010796542706e-01 3.49424658564820e-03
1.14125000000000e+00 3.61989416450285e-01 3.48324633930020e-03
1.14675000000000e+00 3.59979261237776e-01 3.47224039895762e-03
1.15225000000000e+00 3.57980268572554e-01 3.46122942249461e-03
1.15775000000000e+00 3.55992376468130e-01 3.45021405673397e-03
1.16325000000000e+00 3.54015523282233e-01 3.43919493762311e-03
1.16875000000000e+00 3.52049647714894e-01 3.42817269040673e-03
1.17425000000000e+00 3.50094688806549e-01 3.41714792979546e-03
1.17975000000000e+00 3.48150585936147e-01 3.40612126013217e-03
1.18525000000000e+00 3.46217278819270e-01 3.39509327555591e-03
1.19075000000000e+00 3.44294707506263e-01 3.38406456016086e-03
1.19625000000000e+00 3.42382812380379e-01 3.37303568815370e-03
1.20175000000000e+00 3.40481534155924e-01 3.36200722400889e-03
1.20725000000000e+00 3.38590813876425e-01 3.35097972261966e-03
1.21275000000000e+00 3.36710592912797e-01 3.33995372944668e-03
1.21825000000000e+00 3.34840812961527e-01 3.32892978066481e-03
1.22375000000000e+00 3.32981416042867e-01 3.31790840330634e-03
1.22925000000000e+00 3.31132344499033e-01 3.30689011540193e-03
1.23475000000000e+00 3.29293540992422e-01 3.29587542611965e-03
1.24025000000000e+00 3.27464948503828e-01 3.28486483590086e-03
1.24575000000000e+00 3.25646510330680e-01 3.27385883659411e-03
1.25125000000000e+00 3.23838170085279e-01 3.26285791158660e-03
1.25675000000000e+00 3.22039871693051e-01 3.25186253593296e-03
1.26225000000000e+00 3.20251559390809e-01 3.24087317648238e-03
1.26775000000000e+00 3.18473177725024e-01 3.22989029200365e-03
1.27325000000000e+00 3.16704671550104e-01 3.21891433330740e-03
1.27875000000000e+00 3.14945986026684e-01 3.20794574336680e-03
1.28425000000000e+00 3.13197066619928e-01 3.19698495743580e-03
1.28975000000000e+00 3.11457859097835e-01 3.18603240316611e-03
1.29525000000000e+00 3.09728309529559e-01 3.17508850072118e-03
1.30075000000000e+00 3.08008364283736e-01 3.16415366288849e-03
1.30625000000000e+00 3.06297970026820e-01 3.15322829519098e-03
1.31175000000000e+00 3.04597073721431e-01 3.14231279599520e-03
1.31725000000000e+00 3.02905622624711e-01 3.13140755661874e-03
1.32275000000000e+00 3.01223564286686e-01 3.12051296143548e-03
1.32825000000000e+00 2.99550846548641e-01 3.10962938797849e-03
1.33375000000000e+00 2.97887417541501e-01 3.09875720704235e-03
1.33925000000000e+00 2.96233225684226e-01 3.08789678278326e-03
1.34475000000000e+00 2.94588219682210e-01 3.07704847281747e-03
1.35025000000000e+00 2.92952348525686e-01 3.06621262831786e-03
1.35575000000000e+00 2.91325561488153e-01 3.05538959410954e-03
1.36125000000000e+00 2.89707808124796e-01 3.04457970876340e-03
1.36675000000000e+00 2.88099038270922e-01 3.03378330468860e-03
1.37225000000000e+00 2.86499202040411e-01 3.02300070822326e-03
1.37775000000000e+00 2.84908249824160e-01 3.01223223972343e-03
1.38325000000000e+00 2.83326132288552e-01 3.00147821365153e-03
1.38875000000000e+00 2.81752800373921e-01 2.99073893866224e-03
1.39425000000000e+00 2.80188205293037e-01 2.98001471768803e-03
1.39975000000000e+00 2.78632298529585e-01 2.96930584802287e-03
1.40525000000000e+00 2.77085031836667e-01 2.95861262140405e-03
1.41075000000000e+00 2.75546357235303e-01 2.94793532409407e-03
1.41625000000000e+00 2.74016227012946e-01 2.93727423696050e-03
1.42175000000000e+00 2.72494593721997e-01 2.92662963555407e-03
1.42725000000000e+00 2.70981410178340e-01 2.91600179018626e-03
1.43275000000000e+00 2.69476629459875e-01 2.90539096600563e-03
1.43825000000000e+00 2.67980204905064e-01 2.89479742307266e-03
1.44375000000000e+00 2.66492090111485e-01 2.88422141643382e-03
1.44925000000000e+00 2.65012238934391e-01 2.87366319619419e-03
1.45475000000000e+00 2.63540605485280e-01 2.86312300758865e-03
1.46025000000000e+00 2.62077144130474e-01 2.85260109105292e-03
1.46575000000000e+00 2.60621809489702e-01 2.84209768229266e-03
1.47125000000000e+00 2.59174556434692e-01 2.83161301235186e-03
1.47675000000000e+00 2.57735340087774e-01 2.82114730768047e-03
1.48225000000000e+00 2.56304115820486e-01 2.81070079020011e-03
1.48775000000000e+00 2.54880839252193e-01 2.80027367737012e-03
1.49325000000000e+00 2.53465466248708e-01 2.78986618225116e-03
1.49875000000000e+00 2.52057952920923e-01 2.77947851356867e-03
1.50425000000000e+00 2.50658255623454e-01 2.76911087577574e-03
1.50975000000000e+00 2.49266330953278e-01 2.75876346911436e-03
1.51525000000000e+00 2.47882135748396e-01 2.74843648967579e-03
1.52075000000000e+00 2.46505627086490e-01 2.73813012946012e-03
1.52625000000000e+00 2.45136762283592e-01 2.72784457643536e-03
1.53175000000000e+00 2.43775498892762e-01 2.71758001459520e-03
1.53725000000000e+00 2.42421794702771e-01 2.70733662401591e-03
1.54275000000000e+00 2.41075607736794e-01 2.69711458091255e-03
1.54825000000000e+00 2.39736896251102e-01 2.68691405769473e-03
1.55375000000000e+00 2.38405618733778e-01 2.67673522302071e-03
1.55925000000000e+00 2.37081733903420e-01 2.66657824185124e-03
1.56475000000000e+00 2.35765200707865e-01 2.65644327550281e-03
1.57025000000000e+00 2.34455978322917e-01 2.64633048169953e-03
1.57575000000000e+00 2.33154026151080e-01 2.63624001462461e-03
1.58125000000000e+00 2.31859303820298e-01 2.62617202497115e-03
1.58675000000000e+00 2.30571771182706e-01 2.61612665999228e-03
1.59225000000000e+00 2.29291388313381e-01 2.60610406355019e-03
1.59775000000000e+00 2.28018115509106e-01 2.59610437616465e-03
1.60325000000000e+00 2.26751913287142e-01 2.58612773506076e-03
1.60875000000000e+00 2.25492742383998e-01 2.57617427421621e-03
1.61425000000000e+00 2.24240563754218e-01 2.56624412440796e-03
1.61975000000000e+00 2.22995338569166e-01 2.55633741325799e-03
1.62525000000000e+00 2.21757028215826e-01 2.54645426527822e-03
1.63075000000000e+00 2.20525594295604e-01 2.53659480191513e-03
1.63625000000000e+00 2.19300998623135e-01 2.52675914159340e-03
1.64175000000000e+00 2.18083203225100e-01 2.51694739975993e-03
1.64725000000000e+00 2.16872170339051e-01 2.50715968892582e-03
1.65275000000000e+00 2.15667862412234e-01 2.49739611870849e-03
1.65825000000000e+00 2.14470242100432e-01 2.48765679587352e-03
1.66375000000000e+00 2.13279272266801e-01 2.47794182437498e-03
1.66925000000000e+00 2.12094915980722e-01 2.46825130539615e-03
1.67475000000000e+00 2.10917136516654e-01 2.45858533738914e-03
1.68025000000000e+00 2.09745897352996e-01 2.44894401611416e-03
1.68575000000000e+00 2.08581162170955e-01 2.43932743467791e-03
1.69125000000000e+00 2.07422894853417e-01 2.42973568357169e-03
1.69675000000000e+00 2.06271059483831e-01 2.42016885070951e-03
1.70225000000000e+00 2.05125620345094e-01 2.41062702146477e-03
1.70775000000000e+00 2.03986541918440e-01 2.40111027870635e-03
1.71325000000000e+00 2.02853788882343e-01 2.39161870283507e-03
1.71875000000000e+00 2.01727326111422e-01 2.38215237181955e-03
1.72425000000000e+00 2.00607118675347e-01 2.37271136123083e-03
1.72975000000000e+00 1.99493131837760e-01 2.36329574427686e-03
1.73525000000000e+00 1.98385331055197e-01 2.35390559183688e-03
