Energy (eV)          EEDF (eV^-(3/2))     First Anisotropy
1.72500000000000e-03 1.46635111064267e+01 1.19426682296983e-02
5.17500000000000e-03 1.43847392262587e+01 1.95991701897484e-02
8.62500000000000e-03 1.41112671518804e+01 2.55530535715996e-02
1.20750000000000e-02 1.38429941272909e+01 2.98861167437920e-02
1.55250000000000e-02 1.35798213119836e+01 3.33459051810692e-02
1.89750000000000e-02 1.33216517445339e+01 3.62204456682413e-02
2.24250000000000e-02 1.30683903068765e+01 3.86614720002766e-02
2.58750000000000e-02 1.28199436892602e+01 4.07621947897741e-02
2.93250000000000e-02 1.25762203558706e+01 4.25854650532342e-02
3.27750000000000e-02 1.23371305111045e+01 4.41764211228931e-02
3.62250000000000e-02 1.21025860664865e+01 4.55689959660696e-02
3.96750000000000e-02 1.18725006082148e+01 4.67895989927928e-02
4.31250000000000e-02 1.16467893653229e+01 4.78593512999506e-02
4.65750000000000e-02 1.14253691784477e+01 4.87955188571543e-02
5.00250000000000e-02 1.12081584691905e+01 4.96124724615726e-02
5.34750000000000e-02 1.09950772100612e+01 5.03223541674557e-02
5.69250000000000e-02 1.07860468949935e+01 5.09355540076982e-02
6.03750000000000e-02 1.05809905104206e+01 5.14610597997734e-02
6.38250000000000e-02 1.03798325069008e+01 5.19067195105385e-02
6.72750000000000e-02 1.01824987712830e+01 5.22794418281559e-02
7.07250000000000e-02 9.98891659940067e+00 5.25853520884341e-02
7.41750000000000e-02 9.79901466928532e+00 5.28299153092806e-02
7.76250000000000e-02 9.61272301488931e+00 5.30180345692624e-02
8.10750000000000e-02 9.42997300030801e+00 5.31541306155182e-02
8.45250000000000e-02 9.25069729449204e+00 5.32422069808763e-02
8.79750000000000e-02 9.07482984644041e+00 5.32859037721561e-02
9.14250000000000e-02 8.90230586086512e+00 5.32885424994291e-02
9.48750000000000e-02 8.73306177431851e+00 5.32531637455874e-02
9.83250000000000e-02 8.56703523177440e+00 5.31825590588553e-02
1.01775000000000e-01 8.40416506365445e+00 5.30792981423653e-02
1.05225000000000e-01 8.24439126329134e+00 5.29457521836944e-02
1.08675000000000e-01 8.08765496482035e+00 5.27841139920411e-02
1.12125000000000e-01 7.93389842149122e+00 5.25964154765112e-02
1.15575000000000e-01 7.78306498439244e+00 5.23845428951814e-02
1.19025000000000e-01 7.63509908157987e+00 5.21502502236565e-02
1.22475000000000e-01 7.48994619760231e+00 5.18951709280967e-02
1.25925000000000e-01 7.34755285341615e+00 5.16208283771536e-02
1.29375000000000e-01 7.20786658668203e+00 5.13286450868817e-02
1.32825000000000e-01 7.07083593243595e+00 5.10199509602057e-02
1.36275000000000e-01 6.93641040412795e+00 5.06959906562096e-02
1.39725000000000e-01 6.80454047502116e+00 5.03579302030886e-02
1.43175000000000e-01 6.67517755994461e+00 5.00068629510390e-02
1.46625000000000e-01 6.54827399739283e+00 4.96438149468771e-02
1.50075000000000e-01 6.42378303196580e+00 4.92697498001941e-02
1.53525000000000e-01 6.30165879714275e+00 4.88855731008703e-02
1.56975000000000e-01 6.18185629838348e+00 4.84921364394219e-02
1.60425000000000e-01 6.06433139655082e+00 4.80902410746323e-02
1.63875000000000e-01 5.94904079164842e+00 4.76806412870149e-02
1.67325000000000e-01 5.83594200686757e+00 4.72640474516232e-02
1.70775000000000e-01 5.72499337293741e+00 4.68411288594704e-02
1.74225000000000e-01 5.61615401277256e+00 4.64125163131744e-02
1.77675000000000e-01 5.50938382641271e+00 4.59788045193235e-02
1.81125000000000e-01 5.40464347624849e+00 4.55405542973795e-02
1.84575000000000e-01 5.30189437252818e+00 4.50982946226222e-02
1.88025000000000e-01 5.20109865914004e+00 4.46525245186274e-02
1.91475000000000e-01 5.10221919966486e+00 4.42037148130501e-02
1.94925000000000e-01 5.00521956369368e+00 4.37523097689603e-02
1.98375000000000e-01 4.91006401340568e+00 4.32987286026615e-02
2.01825000000000e-01 4.81671749040118e+00 4.28433668977740e-02
2.05275000000000e-01 4.72514560278498e+00 4.23865979243393e-02
2.08725000000000e-01 4.63531461249528e+00 4.19287738708198e-02
2.12175000000000e-01 4.54719142287351e+00 4.14702269960873e-02
2.15625000000000e-01 4.46074356647036e+00 4.10112707077794e-02
2.19075000000000e-01 4.37593919308381e+00 4.05522005728014e-02
2.22525000000000e-01 4.29274705802441e+00 4.00932952652109e-02
2.25975000000000e-01 4.21113651060378e+00 3.96348174562235e-02
2.29425000000000e-01 4.13107748284183e+00 3.91770146506433e-02
2.32875000000000e-01 4.05254047838880e+00 3.87201199736494e-02
2.36325000000000e-01 3.97549656165782e+00 3.82643529115070e-02
2.39775000000000e-01 3.89991734716408e+00 3.78099200094725e-02
2.43225000000000e-01 3.82577498906675e+00 3.73570155298780e-02
2.46675000000000e-01 3.75304217090961e+00 3.69058220731290e-02
2.50125000000000e-01 3.68169209555678e+00 3.64565111641215e-02
2.53575000000000e-01 3.61169847531984e+00 3.60092438063835e-02
2.57025000000000e-01 3.54303552227252e+00 3.55641710060652e-02
2.60475000000000e-01 3.47567793874965e+00 3.51214342677204e-02
2.63925000000000e-01 3.40960090802664e+00 3.46811660636845e-02
2.67375000000000e-01 3.34478008517620e+00 3.42434902787108e-02
2.70825000000000e-01 3.28119158809887e+00 3.38085226313956e-02
2.74275000000000e-01 3.21881198872412e+00 3.33763710738203e-02
2.77725000000000e-01 3.15761830437860e+00 3.29471361707234e-02
2.81175000000000e-01 3.09758798931868e+00 3.25209114594253e-02
2.84625000000000e-01 3.03869892642378e+00 3.20977837916413e-02
2.88075000000000e-01 2.98092941904776e+00 3.16778336582349e-02
2.91525000000000e-01 2.92425818302512e+00 3.12611354978961e-02
2.94975000000000e-01 2.86866433882928e+00 3.08477579906554e-02
2.98425000000000e-01 2.81412740387983e+00 3.04377643370883e-02
3.01875000000000e-01 2.76062728499611e+00 3.00312125240055e-02
3.05325000000000e-01 2.70814427099422e+00 2.96281555773675e-02
3.08775000000000e-01 2.65665902542478e+00 2.92286418031232e-02
3.12225000000000e-01 2.60615257944875e+00 2.88327150166220e-02
3.15675000000000e-01 2.55660632484869e+00 2.84404147612031e-02
3.19125000000000e-01 2.50800200717292e+00 2.80517765165370e-02
3.22575000000000e-01 2.46032171900993e+00 2.76668318972536e-02
3.26025000000000e-01 2.41354789339075e+00 2.72856088423579e-02
3.29475000000000e-01 2.36766329731669e+00 2.69081317959047e-02
3.32925000000000e-01 2.32265102541016e+00 2.65344218793752e-02
3.36375000000000e-01 2.27849449368614e+00 2.61644970561797e-02
3.39825000000000e-01 2.23517743344216e+00 2.57983722886678e-02
3.43275000000000e-01 2.19268388526431e+00 2.54360596880250e-02
3.46725000000000e-01 2.15099819314734e+00 2.50775686574019e-02
3.50175000000000e-01 2.11010499872644e+00 2.47229060286032e-02
3.53625000000000e-01 2.06998923561871e+00 2.43720761926503e-02
3.57075000000000e-01 2.03063612387227e+00 2.40250812245109e-02
3.60525000000000e-01 1.99203116452076e+00 2.36819210022685e-02
3.63975000000000e-01 1.95416013424153e+00 2.33425933209982e-02
3.67425000000000e-01 1.91700908011526e+00 2.30070940015963e-02
3.70875000000000e-01 1.88056431448527e+00 2.26754169947961e-02
3.74325000000000e-01 1.84481240991452e+00 2.23475544805962e-02
3.77775000000000e-01 1.80974019423852e+00 2.20234969633085e-02
3.81225000000000e-01 1.77533474571230e+00 2.17032333624251e-02
3.84675000000000e-01 1.74158338824958e+00 2.13867510994987e-02
3.88125000000000e-01 1.70847368675248e+00 2.10740361812118e-02
3.91575000000000e-01 1.67599344253008e+00 2.07650732788057e-02
3.95025000000000e-01 1.64413068880397e+00 2.04598458040337e-02
3.98475000000000e-01 1.61287368629935e+00 2.01583359817900e-02
4.01925000000000e-01 1.58221091891985e+00 1.98605249195647e-02
4.05375000000000e-01 1.55213108950466e+00 1.95663926738595e-02
4.08825000000000e-01 1.52262311566625e+00 1.92759183136984e-02
4.12275000000000e-01 1.49367612570733e+00 1.89890799813631e-02
4.15725000000000e-01 1.46527945461527e+00 1.87058549504676e-02
4.19175000000000e-01 1.43742264013285e+00 1.84262196814901e-02
4.22625000000000e-01 1.41009541890355e+00 1.81501498748698e-02
4.26075000000000e-01 1.38328772269025e+00 1.78776205217743e-02
4.29525000000000e-01 1.35698967466574e+00 1.76086059526339e-02
4.32975000000000e-01 1.33119158577377e+00 1.73430798835402e-02
4.36425000000000e-01 1.30588395115932e+00 1.70810154605976e-02
4.39875000000000e-01 1.28105744666665e+00 1.68223853023141e-02
4.43325000000000e-01 1.25670292540402e+00 1.65671615401137e-02
4.46775000000000e-01 1.23281141437366e+00 1.63153158570492e-02
4.50225000000000e-01 1.20937411116583e+00 1.60668195247906e-02
4.53675000000000e-01 1.18638238071572e+00 1.58216434389602e-02
4.57125000000000e-01 1.16382775212202e+00 1.55797581528825e-02
4.60575000000000e-01 1.14170191552598e+00 1.53411339098160e-02
4.64025000000000e-01 1.11999671904973e+00 1.51057406737288e-02
4.67475000000000e-01 1.09870416579292e+00 1.48735481586764e-02
4.70925000000000e-01 1.07781641088640e+00 1.46445258568424e-02
4.74375000000000e-01 1.05732575860188e+00 1.44186430652940e-02
4.77825000000000e-01 1.03722465951659e+00 1.41958689115060e-02
4.81275000000000e-01 1.01750570773183e+00 1.39761723777041e-02
4.84725000000000e-01 9.98161638144412e-01 1.37595223240746e-02
4.88175000000000e-01 9.79185323769920e-01 1.35458875108873e-02
4.91625000000000e-01 9.60569773116930e-01 1.33352366195764e-02
4.95075000000000e-01 9.42308127611110e-01 1.31275382728202e-02
4.98525000000000e-01 9.24393659068289e-01 1.29227610536628e-02
5.01975000000000e-01 9.06819767215585e-01 1.27208735237128e-02
5.05425000000000e-01 8.89579977259644e-01 1.25218442404606e-02
5.08875000000000e-01 8.72667937501118e-01 1.23256417737477e-02
5.12325000000000e-01 8.56077416994491e-01 1.21322347214219e-02
5.15775000000000e-01 8.39802303252400e-01 1.19415917242137e-02
5.19225000000000e-01 8.23836599993590e-01 1.17536814798639e-02
5.22675000000000e-01 8.08174424933692e-01 1.15684727565317e-02
5.26125000000000e-01 7.92810007617999e-01 1.13859344055151e-02
5.29575000000000e-01 7.77737687295439e-01 1.12060353733089e-02
5.33025000000000e-01 7.62951910832974e-01 1.10287447130293e-02
5.36475000000000e-01 7.48447230669647e-01 1.08540315952295e-02
5.39925000000000e-01 7.34218302809515e-01 1.06818653181316e-02
5.43375000000000e-01 7.20259884852758e-01 1.05122153172981e-02
5.46825000000000e-01 7.06566834064198e-01 1.03450511747661e-02
5.50275000000000e-01 6.93134105478555e-01 1.01803426276666e-02
5.53725000000000e-01 6.79956750041717e-01 1.00180595763487e-02
5.57175000000000e-01 6.67029912787343e-01 9.85817209203033e-03
5.60625000000000e-01 6.54348831048141e-01 9.70065042399385e-03
5.64075000000000e-01 6.41908832701144e-01 9.54546500634626e-03
5.67525000000000e-01 6.29705334446345e-01 9.39258646436047e-03
5.70975000000000e-01 6.17733840118066e-01 9.24198562041636e-03
5.74425000000000e-01 6.05989939028422e-01 9.09363349955769e-03
5.77875000000000e-01 5.94469304342278e-01 8.94750133468038e-03
5.81325000000000e-01 5.83167691483103e-01 8.80356057136794e-03
5.84775000000000e-01 5.72080936569134e-01 8.66178287238869e-03
5.88225000000000e-01 5.61204954879261e-01 8.52214012186897e-03
5.91675000000000e-01 5.50535739348086e-01 8.38460442915557e-03
5.95125000000000e-01 5.40069359089588e-01 8.24914813238140e-03
5.98575000000000e-01 5.29801957948859e-01 8.11574380174554e-03
6.02025000000000e-01 5.19729753081368e-01 7.98436424252082e-03
6.05475000000000e-01 5.09849033559241e-01 7.85498249780127e-03
6.08925000000000e-01 5.00156159004035e-01 7.72757185099877e-03
6.12375000000000e-01 4.90647558245500e-01 7.60210582810060e-03
6.15825000000000e-01 4.81319728005847e-01 7.47855819969860e-03
6.19275000000000e-01 4.72169231609026e-01 7.35690298279961e-03
6.22725000000000e-01 4.63192697714543e-01 7.23711444242688e-03
6.26175000000000e-01 4.54386819075346e-01 7.11916709302034e-03
6.29625000000000e-01 4.45748351319332e-01 7.00303569964714e-03
6.33075000000000e-01 4.37274111754012e-01 6.88869527902933e-03
6.36525000000000e-01 4.28960978193902e-01 6.77612110039631e-03
6.39975000000000e-01 4.20805887810214e-01 6.66528868617161e-03
6.43425000000000e-01 4.12805836002402e-01 6.55617381250021e-03
6.46875000000000e-01 4.04957875291179e-01 6.44875250962480e-03
6.50325000000000e-01 3.97259114232561e-01 6.34300106211663e-03
6.53775000000000e-01 3.89706716352570e-01 6.23889600896892e-03
6.57225000000000e-01 3.82297899102183e-01 6.13641414355891e-03
6.60675000000000e-01 3.75029932832153e-01 6.03553251348462e-03
6.64125000000000e-01 3.67900139787312e-01 5.93622842028228e-03
6.67575000000000e-01 3.60905893120005e-01 5.83847941903069e-03
6.71025000000000e-01 3.54044615922271e-01 5.74226331784772e-03
6.74475000000000e-01 3.47313780276425e-01 5.64755817728396e-03
6.77925000000000e-01 3.40710906323694e-01 5.55434230961897e-03
6.81375000000000e-01 3.34233561350552e-01 5.46259427806539e-03
6.84825000000000e-01 3.27879358892435e-01 5.37229289588539e-03
6.88275000000000e-01 3.21645957854486e-01 5.28341722542367e-03
6.91725000000000e-01 3.15531061649018e-01 5.19594657706158e-03
6.95175000000000e-01 3.09532417349383e-01 5.10986050809689e-03
6.98625000000000e-01 3.03647814859911e-01 5.02513882155324e-03
7.02075000000000e-01 2.97875086101649e-01 4.94176156492234e-03
7.05525000000000e-01 2.92212104213563e-01 4.85970902884388e-03
7.08975000000000e-01 2.86656782768934e-01 4.77896174572570e-03
7.12425000000000e-01 2.81207075006655e-01 4.69950048830825e-03
7.15875000000000e-01 2.75860973077132e-01 4.62130626817668e-03
7.19325000000000e-01 2.70616507302533e-01 4.54436033422317e-03
7.22775000000000e-01 2.65471745451089e-01 4.46864417106331e-03
7.26225000000000e-01 2.60424792025198e-01 4.39413949740869e-03
7.29675000000000e-01 2.55473787563065e-01 4.32082826439926e-03
7.33125000000000e-01 2.50616907953614e-01 4.24869265389788e-03
7.36575000000000e-01 2.45852363764425e-01 4.17771507674921e-03
7.40025000000000e-01 2.41178399582452e-01 4.10787817100609e-03
7.43475000000000e-01 2.36593293367268e-01 4.03916480012553e-03
7.46925000000000e-01 2.32095355816612e-01 3.97155805113645e-03
7.50375000000000e-01 2.27682929743993e-01 3.90504123278167e-03
7.53825000000000e-01 2.23354389468131e-01 3.83959787363603e-03
7.57275000000000e-01 2.19108140214002e-01 3.77521172020280e-03
7.60725000000000e-01 2.14942617525270e-01 3.71186673499020e-03
7.64175000000000e-01 2.10856286687893e-01 3.64954709456989e-03
7.67625000000000e-01 2.06847642164680e-01 3.58823718761925e-03
7.71075000000000e-01 2.02915207040608e-01 3.52792161294935e-03
7.74525000000000e-01 1.99057532478673e-01 3.46858517751983e-03
7.77975000000000e-01 1.95273197186096e-01 3.41021289444252e-03
7.81425000000000e-01 1.91560806890667e-01 3.35278998097547e-03
7.84875000000000e-01 1.87918993827056e-01 3.29630185650822e-03
7.88325000000000e-01 1.84346416232880e-01 3.24073414054016e-03
7.91775000000000e-01 1.80841757854353e-01 3.18607265065357e-03
7.95225000000000e-01 1.77403727461339e-01 3.13230340048161e-03
7.98675000000000e-01 1.74031058371620e-01 3.07941259767335e-03
8.02125000000000e-01 1.70722507984204e-01 3.02738664185671e-03
8.05575000000000e-01 1.67476857321518e-01 2.97621212260029e-03
8.09025000000000e-01 1.64292910580293e-01 2.92587581737527e-03
8.12475000000000e-01 1.61169494690991e-01 2.87636468951798e-03
8.15925000000000e-01 1.58105458885607e-01 2.82766588619476e-03
8.19375000000000e-01 1.55099674273693e-01 2.77976673636960e-03
8.22825000000000e-01 1.52151033426434e-01 2.73265474877541e-03
8.26275000000000e-01 1.49258449968637e-01 2.68631760988972e-03
8.29725000000000e-01 1.46420858178473e-01 2.64074318191581e-03
8.33175000000000e-01 1.43637212594835e-01 2.59591950076969e-03
8.36625000000000e-01 1.40906487632149e-01 2.55183477407391e-03
8.40075000000000e-01 1.38227677202524e-01 2.50847737915882e-03
8.43525000000000e-01 1.35599794345066e-01 2.46583586107176e-03
8.46975000000000e-01 1.33021870862260e-01 2.42389893059478e-03
8.50425000000000e-01 1.30492956963246e-01 2.38265546227168e-03
8.53875000000000e-01 1.28012120913891e-01 2.34209449244478e-03
8.57325000000000e-01 1.25578448693504e-01 2.30220521730177e-03
8.60775000000000e-01 1.23191043658084e-01 2.26297699093341e-03
8.64225000000000e-01 1.20849026209964e-01 2.22439932340241e-03
8.67675000000000e-01 1.18551533473742e-01 2.18646187882374e-03
8.71125000000000e-01 1.16297718978368e-01 2.14915447345699e-03
8.74575000000000e-01 1.14086752345276e-01 2.11246707381117e-03
8.78025000000000e-01 1.11917818982445e-01 2.07638979476216e-03
8.81475000000000e-01 1.09790119784280e-01 2.04091289768320e-03
8.84925000000000e-01 1.07702870837193e-01 2.00602678858886e-03
8.88375000000000e-01 1.05655303130783e-01 1.97172201629244e-03
8.91825000000000e-01 1.03646662274508e-01 1.93798927057745e-03
8.95275000000000e-01 1.01676208219748e-01 1.90481938038326e-03
8.98725000000000e-01 9.97432149871372e-02 1.87220331200505e-03
9.02175000000000e-01 9.78469703990989e-02 1.84013216730850e-03
9.05625000000000e-01 9.59867758174507e-02 1.80859718195930e-03
9.09075000000000e-01 9.41619458860056e-02 1.77758972366752e-03
9.12525000000000e-01 9.23718082780638e-02 1.74710129044726e-03
9.15975000000000e-01 9.06157034487060e-02 1.71712350889163e-03
9.19425000000000e-01 8.88929843917951e-02 1.68764813246310e-03
9.22875000000000e-01 8.72030164015990e-02 1.65866703979951e-03
9.26325000000000e-01 8.55451768389433e-02 1.63017223303583e-03
9.29775000000000e-01 8.39188549018116e-02 1.60215583614152e-03
9.33225000000000e-01 8.23234514003057e-02 1.57461009327399e-03
9.36675000000000e-01 8.07583785358848e-02 1.54752736714782e-03
9.40125000000000e-01 7.92230596848013e-02 1.52090013742015e-03
9.43575000000000e-01 7.77169291856539e-02 1.49472099909212e-03
9.47025000000000e-01 7.62394321309795e-02 1.46898266092636e-03
9.50475000000000e-01 7.47900241628071e-02 1.44367794388072e-03
9.53925000000000e-01 7.33681712720990e-02 1.41879977955798e-03
9.57375000000000e-01 7.19733496020041e-02 1.39434120867202e-03
9.60825000000000e-01 7.06050452548523e-02 1.37029537953013e-03
9.64275000000000e-01 6.92627541028176e-02 1.34665554653128e-03
9.67725000000000e-01 6.79459816021815e-02 1.32341506868092e-03
9.71175000000000e-01 6.66542426111262e-02 1.30056740812176e-03
9.74625000000000e-01 6.53870612109933e-02 1.27810612868064e-03
9.78075000000000e-01 6.41439705309398e-02 1.25602489443174e-03
9.81525000000000e-01 6.29245125759272e-02 1.23431746827573e-03
9.84975000000000e-01 6.17282380579818e-02 1.21297771053500e-03
9.88425000000000e-01 6.05547062306621e-02 1.19199957756487e-03
9.91875000000000e-01 5.94034847266735e-02 1.17137712038082e-03
9.95325000000000e-01 5.82741493985701e-02 1.15110448330152e-03
9.98775000000000e-01 5.71662841624853e-02 1.13117590260772e-03
1.00222500000000e+00 5.60794808448325e-02 1.11158570521693e-03
1.00567500000000e+00 5.50133390319209e-02 1.09232830737373e-03
1.00912500000000e+00 5.39674659224301e-02 1.07339821335577e-03
1.01257500000000e+00 5.29414761826893e-02 1.05479001419519e-03
1.01602500000000e+00 5.19349918047079e-02 1.03649838641561e-03
1.01947500000000e+00 5.09476419669049e-02 1.01851809078434e-03
1.02292500000000e+00 4.99790628974863e-02 1.00084397108001e-03
1.02637500000000e+00 4.90288977404196e-02 9.83470952875293e-04
1.02982500000000e+00 4.80967964239566e-02 9.66394042334629e-04
1.03327500000000e+00 4.71824155316555e-02 9.49608325027090e-04
1.03672500000000e+00 4.62854181758551e-02 9.33108964753968e-04
1.04017500000000e+00 4.54054738735546e-02 9.16891202391257e-04
1.04362500000000e+00 4.45422584246526e-02 9.00950354746746e-04
1.04707500000000e+00 4.36954537925015e-02 8.85281813431595e-04
1.05052500000000e+00 4.28647479867321e-02 8.69881043746441e-04
1.05397500000000e+00 4.20498349483069e-02 8.54743583581817e-04
1.05742500000000e+00 4.12504144367571e-02 8.39865042332753e-04
1.06087500000000e+00 4.04661919195650e-02 8.25241099827512e-04
1.06432500000000e+00 3.96968784636483e-02 8.10867505270268e-04
1.06777500000000e+00 3.89421906289078e-02 7.96740076197690e-04
1.07122500000000e+00 3.82018503637985e-02 7.82854697449182e-04
1.07467500000000e+00 3.74755849028873e-02 7.69207320150787e-04
1.07812500000000e+00 3.67631266663562e-02 7.55793960712664e-04
1.08157500000000e+00 3.60642131614182e-02 7.42610699839782e-04
1.08502500000000e+00 3.53785868856057e-02 7.29653681555961e-04
1.08847500000000e+00 3.47059952318985e-02 7.16919112241042e-04
