Energy (eV)          EEDF (eV^-(3/2))     First Anisotropy
1.76190476190476e-04 1.26237852062682e+02 4.60873412575762e-02
5.28571428571429e-04 1.25206404459800e+02 7.60480510883807e-02
8.80952380952381e-04 1.24183384472438e+02 1.00245788673504e-01
1.23333333333333e-03 1.23168723240685e+02 1.18540224950390e-01
1.58571428571429e-03 1.22162352470477e+02 1.33724719775347e-01
1.93809523809524e-03 1.21164204422450e+02 1.46857422739634e-01
2.29047619047619e-03 1.20174211911268e+02 1.58486919796810e-01
2.64285714285714e-03 1.19192308299114e+02 1.68945071323612e-01
2.99523809523810e-03 1.18218427496022e+02 1.78452356734814e-01
3.34761904761905e-03 1.17252503950139e+02 1.87164875587341e-01
3.70000000000000e-03 1.16294472645277e+02 1.95198379222314e-01
4.05238095238095e-03 1.15344269095550e+02 2.02641782789762e-01
4.40476190476190e-03 1.14401829344012e+02 2.09565317303181e-01
4.75714285714286e-03 1.13467089955187e+02 2.16025723775350e-01
5.10952380952381e-03 1.12539988011924e+02 2.22069710477213e-01
5.46190476190476e-03 1.11620461110478e+02 2.27736337750696e-01
5.81428571428571e-03 1.10708447358427e+02 2.33058712901211e-01
6.16666666666667e-03 1.09803885368291e+02 2.38065225689141e-01
6.51904761904762e-03 1.08906714254169e+02 2.42780468938899e-01
6.87142857142857e-03 1.08016873627122e+02 2.47225937562191e-01
7.22380952380952e-03 1.07134303592727e+02 2.51420568217363e-01
7.57619047619048e-03 1.06258944745367e+02 2.55381162144782e-01
7.92857142857143e-03 1.05390738164807e+02 2.59122720985993e-01
8.28095238095238e-03 1.04529625412236e+02 2.62658716497850e-01
8.63333333333333e-03 1.03675548525935e+02 2.66001309645157e-01
8.98571428571429e-03 1.02828450018588e+02 2.69161530186189e-01
9.33809523809524e-03 1.01988272872163e+02 2.72149425216426e-01
9.69047619047619e-03 1.01154960534506e+02 2.74974183120710e-01
1.00428571428571e-02 1.00328456915208e+02 2.77644237738023e-01
1.03952380952381e-02 9.95087063834518e+01 2.80167356273853e-01
1.07476190476190e-02 9.86956537598123e+01 2.82550714569651e-01
1.11000000000000e-02 9.78892443209629e+01 2.84800961068857e-01
1.14523809523810e-02 9.70894237847044e+01 2.86924272233972e-01
1.18047619047619e-02 9.62961383181076e+01 2.88926400469103e-01
1.21571428571429e-02 9.55093345225823e+01 2.90812715684493e-01
1.25095238095238e-02 9.47289594411336e+01 2.92588241758258e-01
1.28619047619048e-02 9.39549605443743e+01 2.94257688391989e-01
1.32142857142857e-02 9.31872857370111e+01 2.95825479300980e-01
1.35666666666667e-02 9.24258833446928e+01 2.97295777021437e-01
1.39190476190476e-02 9.16707021198229e+01 2.98672505036426e-01
1.42714285714286e-02 9.09216912291530e+01 2.99959367370791e-01
1.46238095238095e-02 9.01788002590037e+01 3.01159866192727e-01
1.49761904761905e-02 8.94419792035258e+01 3.02277317388383e-01
1.53285714285714e-02 8.87111784674873e+01 3.03314865136010e-01
1.56809523809524e-02 8.79863488627960e+01 3.04275494010176e-01
1.60333333333333e-02 8.72674415994349e+01 3.05162040869302e-01
1.63857142857143e-02 8.65544082897353e+01 3.05977205201055e-01
1.67380952380952e-02 8.58472009378051e+01 3.06723558536667e-01
1.70904761904762e-02 8.51457719433819e+01 3.07403553084293e-01
1.74428571428571e-02 8.44500740917650e+01 3.08019529535793e-01
1.77952380952381e-02 8.37600605572924e+01 3.08573724260494e-01
1.81476190476190e-02 8.30756848937334e+01 3.09068275833189e-01
1.85000000000000e-02 8.23969010374272e+01 3.09505231076291e-01
1.88523809523810e-02 8.17236632980996e+01 3.09886550560570e-01
1.92047619047619e-02 8.10559263616962e+01 3.10214113717451e-01
1.95571428571429e-02 8.03936452815905e+01 3.10489723507055e-01
1.99095238095238e-02 7.97367754811404e+01 3.10715110773254e-01
2.02619047619048e-02 7.90852727452592e+01 3.10891938231166e-01
2.06142857142857e-02 7.84390932227211e+01 3.11021804200480e-01
2.09666666666667e-02 7.77981934180692e+01 3.11106246032491e-01
2.13190476190476e-02 7.71625301936921e+01 3.11146743329204e-01
2.16714285714286e-02 7.65320607620470e+01 3.11144720905369e-01
2.20238095238095e-02 7.59067426875273e+01 3.11101551579500e-01
2.23761904761905e-02 7.52865338789792e+01 3.11018558676444e-01
2.27285714285714e-02 7.46713925902986e+01 3.10897018741157e-01
2.30809523809524e-02 7.40612774175539e+01 3.10738163370931e-01
2.34333333333333e-02 7.34561472929519e+01 3.10543181608543e-01
2.37857142857143e-02 7.28559614863572e+01 3.10313221866830e-01
2.41380952380952e-02 7.22606795983715e+01 3.10049393778237e-01
2.44904761904762e-02 7.16702615616926e+01 3.09752769954155e-01
2.48428571428571e-02 7.10846676344369e+01 3.09424387618013e-01
2.51952380952381e-02 7.05038584013506e+01 3.09065250162206e-01
2.55476190476190e-02 6.99277947673612e+01 3.08676328595883e-01
2.59000000000000e-02 6.93564379586540e+01 3.08258562927934e-01
2.62523809523810e-02 6.87897495164390e+01 3.07812863455318e-01
2.66047619047619e-02 6.82276912979033e+01 3.07340111996012e-01
2.69571428571429e-02 6.76702254701822e+01 3.06841163039585e-01
2.73095238095238e-02 6.71173145111971e+01 3.06316844850059e-01
2.76619047619048e-02 6.65689212038205e+01 3.05767960496934e-01
2.80142857142857e-02 6.60250086366072e+01 3.05195288844857e-01
2.83666666666667e-02 6.54855401981445e+01 3.04599585480479e-01
2.87190476190476e-02 6.49504795776847e+01 3.03981583603311e-01
2.90714285714286e-02 6.44197907596703e+01 3.03341994861364e-01
2.94238095238095e-02 6.38934380242764e+01 3.02681510155364e-01
2.97761904761905e-02 6.33713859421021e+01 3.02000800342164e-01
3.01285714285714e-02 6.28535993739445e+01 3.01300517170271e-01
3.04809523809524e-02 6.23400434683941e+01 3.00581293656701e-01
3.08333333333333e-02 6.18306836574329e+01 2.99843744948705e-01
3.11857142857143e-02 6.13254856568266e+01 2.99088468902010e-01
3.15380952380952e-02 6.08244154611537e+01 2.98316046675170e-01
3.18904761904762e-02 6.03274393441252e+01 2.97527043303450e-01
3.22428571428571e-02 5.98345238537588e+01 2.96722008241069e-01
3.25952380952381e-02 5.93456358126321e+01 2.95901475885180e-01
3.29476190476190e-02 5.88607423131938e+01 2.95065966071769e-01
3.33000000000000e-02 5.83798107179561e+01 2.94215984555021e-01
3.36523809523810e-02 5.79028086549378e+01 2.93352023461828e-01
3.40047619047619e-02 5.74297040177993e+01 2.92474561731286e-01
3.43571428571429e-02 5.69604649614125e+01 2.91584065532172e-01
3.47095238095238e-02 5.64950599019426e+01 2.90680988666623e-01
3.50619047619048e-02 5.60334575125393e+01 2.89765772954375e-01
3.54142857142857e-02 5.55756267233700e+01 2.88838848604296e-01
3.57666666666667e-02 5.51215367174267e+01 2.87900634568675e-01
3.61190476190476e-02 5.46711569305143e+01 2.86951538885753e-01
3.64714285714286e-02 5.42244570471694e+01 2.85991959007026e-01
3.68238095238095e-02 5.37814070006057e+01 2.85022282113607e-01
3.71761904761905e-02 5.33419769687413e+01 2.84042885379584e-01
3.75285714285714e-02 5.29061373736421e+01 2.83054136421989e-01
3.78809523809524e-02 5.24738588795056e+01 2.82056393346849e-01
3.82333333333333e-02 5.20451123892999e+01 2.81050005175774e-01
3.85857142857143e-02 5.16198690446414e+01 2.80035312068352e-01
3.89380952380952e-02 5.11981002220488e+01 2.79012645573402e-01
3.92904761904762e-02 5.07797775327878e+01 2.77982328871531e-01
3.96428571428571e-02 5.03648728192207e+01 2.76944677008965e-01
3.99952380952381e-02 4.99533581546197e+01 2.75899997123129e-01
4.03476190476190e-02 4.95452058396087e+01 2.74848588660549e-01
4.07000000000000e-02 4.91403884019478e+01 2.73790743586861e-01
4.10523809523810e-02 4.87388785930641e+01 2.72726746590211e-01
4.14047619047619e-02 4.83406493878093e+01 2.71656875277045e-01
4.17571428571429e-02 4.79456739810769e+01 2.70581400362171e-01
4.21095238095238e-02 4.75539257875343e+01 2.69500585851538e-01
4.24619047619048e-02 4.71653784383237e+01 2.68414689220093e-01
4.28142857142857e-02 4.67800057807709e+01 2.67323961582586e-01
4.31666666666667e-02 4.63977818751665e+01 2.66228647860191e-01
4.35190476190476e-02 4.60186809944538e+01 2.65128986940351e-01
4.38714285714286e-02 4.56426776210873e+01 2.64025211833030e-01
4.42238095238095e-02 4.52697464467014e+01 2.62917549820420e-01
4.45761904761905e-02 4.48998623690435e+01 2.61806222573258e-01
4.49285714285714e-02 4.45330004913004e+01 2.60691446412560e-01
4.52809523809524e-02 4.41691361204060e+01 2.59573432265962e-01
4.56333333333333e-02 4.38082447644046e+01 2.58452385920953e-01
4.59857142857143e-02 4.34503021320940e+01 2.57328508122829e-01
4.63380952380952e-02 4.30952841301200e+01 2.56201994700680e-01
4.66904761904762e-02 4.27431668626042e+01 2.55073036687410e-01
4.70428571428571e-02 4.23939266283066e+01 2.53941820438477e-01
4.73952380952381e-02 4.20475399202393e+01 2.52808527744823e-01
4.77476190476190e-02 4.17039834228947e+01 2.51673335944881e-01
4.81000000000000e-02 4.13632340118465e+01 2.50536418030852e-01
4.84523809523810e-02 4.10252687510416e+01 2.49397942754527e-01
4.88047619047619e-02 4.06900648923896e+01 2.48258074727465e-01
4.91571428571429e-02 4.03575998731164e+01 2.47116974520926e-01
4.95095238095238e-02 4.00278513153427e+01 2.45974798760399e-01
4.98619047619048e-02 3.97007970234983e+01 2.44831700220149e-01
5.02142857142857e-02 3.93764149838904e+01 2.43687827912382e-01
5.05666666666667e-02 3.90546833621762e+01 2.42543327176796e-01
5.09190476190476e-02 3.87355805029225e+01 2.41398339764805e-01
5.12714285714286e-02 3.84190849271351e+01 2.40253003924327e-01
5.16238095238095e-02 3.81051753318101e+01 2.39107454479424e-01
5.19761904761905e-02 3.77938305875184e+01 2.37961822886940e-01
5.23285714285714e-02 3.74850297377153e+01 2.36816237406691e-01
5.26809523809524e-02 3.71787519973188e+01 2.35670823035462e-01
5.30333333333333e-02 3.68749767506066e+01 2.34525701674159e-01
5.33857142857143e-02 3.65736835507617e+01 2.33380992174059e-01
5.37380952380952e-02 3.62748521175774e+01 2.32236810407415e-01
5.40904761904762e-02 3.59784623369966e+01 2.31093269333174e-01
5.44428571428571e-02 3.56844942588675e+01 2.29950479064096e-01
5.47952380952381e-02 3.53929280964779e+01 2.28808546929048e-01
5.51476190476190e-02 3.51037442243592e+01 2.27667577536858e-01
5.55000000000000e-02 3.48169231778166e+01 2.26527672835386e-01
5.58523809523810e-02 3.45324456507805e+01 2.25388932172292e-01
5.62047619047619e-02 3.42502924953330e+01 2.24251452351100e-01
5.65571428571429e-02 3.39704447196056e+01 2.23115327689056e-01
5.69095238095238e-02 3.36928834873017e+01 2.21980650070379e-01
5.72619047619048e-02 3.34175901156400e+01 2.20847509001363e-01
5.76142857142857e-02 3.31445460748744e+01 2.19715991660986e-01
5.79666666666667e-02 3.28737329862804e+01 2.18586182953477e-01
5.83190476190476e-02 3.26051326216730e+01 2.17458165556364e-01
5.86714285714286e-02 3.23387269014361e+01 2.16332019970613e-01
5.90238095238095e-02 3.20744978940386e+01 2.15207824566339e-01
5.93761904761905e-02 3.18124278141046e+01 2.14085655611894e-01
5.97285714285714e-02 3.15524990217559e+01 2.12965587392250e-01
6.00809523809524e-02 3.12946940214155e+01 2.11847692142208e-01
6.04333333333333e-02 3.10389954601124e+01 2.10732040163926e-01
6.07857142857143e-02 3.07853861270008e+01 2.09618699849173e-01
6.11380952380952e-02 3.05338489515239e+01 2.08507737721966e-01
6.14904761904762e-02 3.02843670029329e+01 2.07399218477020e-01
6.18428571428571e-02 3.00369234884893e+01 2.06293205020571e-01
6.21952380952381e-02 2.97915017529831e+01 2.05189758507002e-01
6.25476190476190e-02 2.95480852769724e+01 2.04088938377853e-01
6.29000000000000e-02 2.93066576763018e+01 2.02990802396734e-01
6.32523809523809e-02 2.90672027003782e+01 2.01895406686687e-01
6.36047619047619e-02 2.88297042316896e+01 2.00802805763451e-01
6.39571428571429e-02 2.85941462841161e+01 1.99713052571207e-01
6.43095238095238e-02 2.83605130024497e+01 1.98626198514331e-01
6.46619047619048e-02 2.81287886607397e+01 1.97542293491618e-01
6.50142857142857e-02 2.78989576618132e+01 1.96461385926562e-01
6.53666666666667e-02 2.76710045356540e+01 1.95383522800143e-01
6.57190476190476e-02 2.74449139389252e+01 1.94308749679759e-01
6.60714285714286e-02 2.72206706533804e+01 1.93237110750630e-01
6.64238095238095e-02 2.69982595853871e+01 1.92168648843365e-01
6.67761904761905e-02 2.67776657643709e+01 1.91103405449227e-01
6.71285714285714e-02 2.65588743422111e+01 1.90041420805980e-01
6.74809523809524e-02 2.63418705922344e+01 1.88982733837282e-01
6.78333333333333e-02 2.61266399078364e+01 1.87927382238712e-01
6.81857142857143e-02 2.59131678020128e+01 1.86875402487947e-01
6.85380952380952e-02 2.57014399058769e+01 1.85826829871934e-01
6.88904761904762e-02 2.54914419681929e+01 1.84781698510388e-01
6.92428571428571e-02 2.52831598539229e+01 1.83740041381856e-01
6.95952380952381e-02 2.50765795437627e+01 1.82701890346190e-01
6.99476190476191e-02 2.48716871327174e+01 1.81667276169560e-01
7.03000000000000e-02 2.46684688296400e+01 1.80636228545939e-01
7.06523809523810e-02 2.44669109558345e+01 1.79608776121135e-01
7.10047619047619e-02 2.42669999445976e+01 1.78584946513307e-01
7.13571428571429e-02 2.40687223398499e+01 1.77564766336080e-01
7.17095238095238e-02 2.38720647956792e+01 1.76548261218177e-01
7.20619047619048e-02 2.36770140749990e+01 1.75535455825607e-01
7.24142857142857e-02 2.34835570490952e+01 1.74526373880463e-01
7.27666666666667e-02 2.32916806963104e+01 1.73521038182216e-01
7.31190476190476e-02 2.31013721015936e+01 1.72519470625726e-01
7.34714285714286e-02 2.29126184552106e+01 1.71521692221741e-01
7.38238095238095e-02 2.27254070522961e+01 1.70527723114088e-01
7.41761904761905e-02 2.25397252915901e+01 1.69537582587476e-01
7.45285714285714e-02 2.23555606748944e+01 1.68551289131573e-01
7.48809523809524e-02 2.21729008062273e+01 1.67568860388332e-01
7.52333333333333e-02 2.19917333906945e+01 1.66590313216599e-01
7.55857142857143e-02 2.18120462340525e+01 1.65615663696063e-01
7.59380952380952e-02 2.16338272415024e+01 1.64644927145157e-01
7.62904761904762e-02 2.14570644172560e+01 1.63678118135827e-01
7.66428571428571e-02 2.12817458633528e+01 1.62715250510773e-01
7.69952380952381e-02 2.11078597792301e+01 1.61756337397571e-01
7.73476190476191e-02 2.09353944605627e+01 1.60801391225269e-01
7.77000000000000e-02 2.07643382988360e+01 1.59850423737945e-01
7.80523809523810e-02 2.05946797802088e+01 1.58903446010658e-01
7.84047619047619e-02 2.04264074850894e+01 1.57960468462424e-01
7.87571428571429e-02 2.02595100870200e+01 1.57021500871619e-01
7.91095238095238e-02 2.00939763522572e+01 1.56086552388381e-01
7.94619047619048e-02 1.99297951386774e+01 1.55155631549435e-01
7.98142857142857e-02 1.97669553953608e+01 1.54228746290015e-01
8.01666666666667e-02 1.96054461615180e+01 1.53305903958116e-01
8.05190476190476e-02 1.94452565660774e+01 1.52387111325911e-01
8.08714285714286e-02 1.92863758266326e+01 1.51472374603517e-01
8.12238095238095e-02 1.91287932490332e+01 1.50561699449905e-01
8.15761904761905e-02 1.89724982263527e+01 1.49655090976589e-01
8.19285714285714e-02 1.88174802384077e+01 1.48752553796359e-01
8.22809523809524e-02 1.86637288510465e+01 1.47854091978441e-01
8.26333333333333e-02 1.85112337152215e+01 1.46959709097934e-01
8.29857142857143e-02 1.83599845665916e+01 1.46069408236417e-01
8.33380952380952e-02 1.82099712245363e+01 1.45183191994056e-01
8.36904761904762e-02 1.80611835917618e+01 1.44301062499018e-01
8.40428571428571e-02 1.79136116533333e+01 1.43423021419136e-01
8.43952380952381e-02 1.77672454762856e+01 1.42549069970939e-01
8.47476190476190e-02 1.76220752086734e+01 1.41679208930898e-01
8.51000000000000e-02 1.74780910791858e+01 1.40813438644061e-01
8.54523809523809e-02 1.73352833962142e+01 1.39951759034933e-01
8.58047619047619e-02 1.71936425474710e+01 1.39094169615747e-01
8.61571428571429e-02 1.70531589990752e+01 1.38240669496931e-01
8.65095238095238e-02 1.69138232951743e+01 1.37391257395064e-01
8.68619047619048e-02 1.67756260570479e+01 1.36545931642967e-01
8.72142857142857e-02 1.66385579827331e+01 1.35704690197336e-01
8.75666666666667e-02 1.65026098461445e+01 1.34867530648469e-01
8.79190476190476e-02 1.63677724967041e+01 1.34034450227564e-01
8.82714285714286e-02 1.62340368584779e+01 1.33205445816134e-01
8.86238095238095e-02 1.61013939298090e+01 1.32380513953002e-01
8.89761904761905e-02 1.59698347824710e+01 1.31559650835639e-01
8.93285714285714e-02 1.58393505612467e+01 1.30742852357756e-01
8.96809523809524e-02 1.57099324833297e+01 1.29930114071534e-01
9.00333333333333e-02 1.55815718375592e+01 1.29121431225931e-01
9.03857142857143e-02 1.54542599840646e+01 1.28316798765556e-01
9.07380952380952e-02 1.53279883534564e+01 1.27516211338978e-01
9.10904761904762e-02 1.52027484464736e+01 1.26719663304764e-01
9.14428571428571e-02 1.50785318331902e+01 1.25927148739476e-01
9.17952380952381e-02 1.49553301526669e+01 1.25138661443481e-01
9.21476190476190e-02 1.48331351121715e+01 1.24354194948672e-01
9.25000000000000e-02 1.47119384868349e+01 1.23573742524007e-01
9.28523809523810e-02 1.45917321188862e+01 1.22797297183000e-01
9.32047619047619e-02 1.44725079173121e+01 1.22024851689016e-01
9.35571428571429e-02 1.43542578571062e+01 1.21256398562485e-01
9.39095238095238e-02 1.42369739789328e+01 1.20491930085992e-01
9.42619047619048e-02 1.41206483883896e+01 1.19731438311250e-01
9.46142857142857e-02 1.40052732556751e+01 1.18974915063979e-01
9.49666666666667e-02 1.38908408148655e+01 1.18222351950615e-01
9.53190476190476e-02 1.37773433635856e+01 1.17473740362989e-01
9.56714285714286e-02 1.36647732622992e+01 1.16729071484832e-01
9.60238095238095e-02 1.35531229339836e+01 1.15988336296239e-01
9.63761904761905e-02 1.34423848634330e+01 1.15251525573705e-01
9.67285714285714e-02 1.33325515968923e+01 1.14518629919373e-01
9.70809523809524e-02 1.32236157415534e+01 1.13789639729436e-01
9.74333333333333e-02 1.31155699649223e+01 1.13064545224101e-01
9.77857142857143e-02 1.30084069945055e+01 1.12343336445597e-01
9.81380952380952e-02 1.29021196171425e+01 1.11626003263937e-01
9.84904761904762e-02 1.27967006786962e+01 1.10912535380757e-01
9.88428571428571e-02 1.26921430833977e+01 1.10202922334878e-01
9.91952380952381e-02 1.25884397935400e+01 1.09497153505982e-01
9.95476190476191e-02 1.24855838288351e+01 1.08795218119981e-01
9.99000000000000e-02 1.23835682661116e+01 1.08097105280750e-01
1.00252380952381e-01 1.22823862388829e+01 1.07402803884863e-01
1.00604761904762e-01 1.21820309364053e+01 1.06712302700289e-01
1.00957142857143e-01 1.20824956037858e+01 1.06025590405815e-01
1.01309523809524e-01 1.19837735413229e+01 1.05342655520409e-01
1.01661904761905e-01 1.18858581040567e+01 1.04663486434009e-01
1.02014285714286e-01 1.17887427013207e+01 1.03988071411431e-01
1.02366666666667e-01 1.16924207962987e+01 1.03316398596210e-01
1.02719047619048e-01 1.15968859055845e+01 1.02648456014378e-01
1.03071428571429e-01 1.15021315987458e+01 1.01984231578160e-01
1.03423809523810e-01 1.14081514978911e+01 1.01323713089610e-01
1.03776190476190e-01 1.13149392772407e+01 1.00666888244150e-01
1.04128571428571e-01 1.12224886627004e+01 1.00013744634091e-01
1.04480952380952e-01 1.11307934314398e+01 9.93642697520515e-02
1.04833333333333e-01 1.10398474114733e+01 9.87184509942988e-02
1.05185714285714e-01 1.09496444812441e+01 9.80762756640476e-02
1.05538095238095e-01 1.08601785692132e+01 9.74377309746966e-02
1.05890476190476e-01 1.07714436534495e+01 9.68028040529967e-02
1.06242857142857e-01 1.06834337612256e+01 9.61714819421503e-02
1.06595238095238e-01 1.05961429686150e+01 9.55437516048704e-02
1.06947619047619e-01 1.05095654000937e+01 9.49195999263637e-02
1.07300000000000e-01 1.04236952281446e+01 9.42990137632023e-02
1.07652380952381e-01 1.03385266731797e+01 9.36819798079742e-02
1.08004761904762e-01 1.02540540022019e+01 9.30684846874828e-02
1.08357142857143e-01 1.01702715293745e+01 9.24585150492166e-02
1.08709523809524e-01 1.00871736153176e+01 9.18520574336745e-02
1.09061904761905e-01 1.00047546667291e+01 9.12490983205946e-02
1.09414285714286e-01 9.92300913600770e+00 9.06496241315586e-02
1.09766666666667e-01 9.84193152087985e+00 9.00536212325461e-02
1.10119047619048e-01 9.76151636402915e+00 8.94610759364412e-02
1.10471428571429e-01 9.68175825272913e+00 8.88719745054819e-02
1.10823809523810e-01 9.60265181847894e+00 8.82863031536589e-02
1.11176190476190e-01 9.52419173664192e+00 8.77040480490832e-02
