Energy (eV)          EEDF (eV^-(3/2))     First Anisotropy
2.27272727272727e-02 4.39893929504599e-02 2.03321917147040e-05
6.81818181818182e-02 4.37596989554644e-02 3.35995273329615e-05
1.13636363636364e-01 4.35312043256815e-02 4.44222574707036e-05
1.59090909090909e-01 4.33039027986236e-02 5.26853226891850e-05
2.04545454545455e-01 4.30777881431858e-02 5.96108072207335e-05
2.50000000000000e-01 4.28528541633029e-02 6.56596582217510e-05
2.95454545454545e-01 4.26290946929863e-02 7.10698746668623e-05
3.40909090909091e-01 4.24065036003025e-02 7.59848587153958e-05
3.86363636363636e-01 4.21850747837511e-02 8.04995088632442e-05
4.31818181818182e-01 4.19648021750639e-02 8.46807511688817e-05
4.77272727272727e-01 4.17456797364439e-02 8.85780200300169e-05
5.22727272727273e-01 4.15277014627063e-02 9.22291418160828e-05
5.68181818181818e-01 4.13108613794395e-02 9.56638793473027e-05
6.13636363636364e-01 4.10951535431214e-02 9.89061864606176e-05
6.59090909090909e-01 4.08805720419925e-02 1.01975706687844e-04
7.04545454545455e-01 4.06671109944809e-02 1.04888805325836e-04
7.50000000000000e-01 4.04547645503626e-02 1.07659301852529e-04
7.95454545454546e-01 4.02435268893620e-02 1.10299003044458e-04
8.40909090909091e-01 4.00333922221581e-02 1.12818099552259e-04
8.86363636363636e-01 3.98243547891262e-02 1.15225466584306e-04
9.31818181818182e-01 3.96164088612207e-02 1.17528895686898e-04
9.77272727272727e-01 3.94095487388311e-02 1.19735276093598e-04
1.02272727272727e+00 3.92037687525635e-02 1.21850738590000e-04
1.06818181818182e+00 3.89990632613877e-02 1.23880770324194e-04
1.11363636363636e+00 3.87954266567386e-02 1.25830309082433e-04
1.15909090909091e+00 3.85928533554362e-02 1.27703819302796e-04
1.20454545454545e+00 3.83913378071530e-02 1.29505355357804e-04
1.25000000000000e+00 3.81908744870306e-02 1.31238614265625e-04
1.29545454545455e+00 3.79914579024039e-02 1.32906979759437e-04
1.34090909090909e+00 3.77930825861001e-02 1.34513559646343e-04
1.38636363636364e+00 3.75957431025400e-02 1.36061217431555e-04
1.43181818181818e+00 3.73994340416136e-02 1.37552599480541e-04
1.47727272727273e+00 3.72041500242519e-02 1.38990158253516e-04
1.52272727272727e+00 3.70098856967959e-02 1.40376172718858e-04
1.56818181818182e+00 3.68166357348716e-02 1.41712764876952e-04
1.61363636363636e+00 3.66243948431543e-02 1.43001916394227e-04
1.65909090909091e+00 3.64331577514829e-02 1.44245481054986e-04
1.70454545454545e+00 3.62429192196089e-02 1.45445196688630e-04
1.75000000000000e+00 3.60536740323401e-02 1.46602695582713e-04
1.79545454545455e+00 3.58654170039405e-02 1.47719513614140e-04
1.84090909090909e+00 3.56781429736047e-02 1.48797098452866e-04
1.88636363636364e+00 3.54918468095498e-02 1.49836816790857e-04
1.93181818181818e+00 3.53065234047829e-02 1.50839960888396e-04
1.97727272727273e+00 3.51221676809193e-02 1.51807754365886e-04
2.02272727272727e+00 3.49387745842115e-02 1.52741357672537e-04
2.06818181818182e+00 3.47563390882368e-02 1.53641872038838e-04
2.11363636363636e+00 3.45748561937066e-02 1.54510344886232e-04
2.15909090909091e+00 3.43943209256644e-02 1.55347772959545e-04
2.20454545454545e+00 3.42147283368504e-02 1.56155106000491e-04
2.25000000000000e+00 3.40360735041682e-02 1.56933249981623e-04
2.29545454545455e+00 3.38583515318493e-02 1.57683069989160e-04
2.34090909090909e+00 3.36815575481130e-02 1.58405392920756e-04
2.38636363636364e+00 3.35056867081496e-02 1.59101009892950e-04
2.43181818181818e+00 3.33307341909561e-02 1.59770678509049e-04
2.47727272727273e+00 3.31566952021540e-02 1.60415124884144e-04
2.52272727272727e+00 3.29835649709859e-02 1.61035045721330e-04
2.56818181818182e+00 3.28113387523101e-02 1.61631109401373e-04
2.61363636363636e+00 3.26400118264349e-02 1.62203958550702e-04
2.65909090909091e+00 3.24695794969690e-02 1.62754210902944e-04
2.70454545454545e+00 3.23000370933542e-02 1.63282460812594e-04
2.75000000000000e+00 3.21313799681417e-02 1.63789280558536e-04
2.79545454545455e+00 3.19636034993971e-02 1.64275221503809e-04
2.84090909090909e+00 3.17967030881024e-02 1.64740815223037e-04
2.88636363636364e+00 3.16306741604426e-02 1.65186574503860e-04
2.93181818181818e+00 3.14655121653242e-02 1.65612994327095e-04
2.97727272727273e+00 3.13012125765517e-02 1.66020552735570e-04
3.02272727272727e+00 3.11377708904555e-02 1.66409711825200e-04
3.06818181818182e+00 3.09751826274350e-02 1.66780917962691e-04
3.11363636363636e+00 3.08134433318112e-02 1.67134603341672e-04
3.15909090909091e+00 3.06525485701103e-02 1.67471186126131e-04
3.20454545454545e+00 3.04924939330454e-02 1.67791071211269e-04
3.25000000000000e+00 3.03332750333385e-02 1.68094650847077e-04
3.29545454545455e+00 3.01748875076131e-02 1.68382305184119e-04
3.34090909090909e+00 3.00173270143043e-02 1.68654402826587e-04
3.38636363636364e+00 2.98605892354690e-02 1.68911301314376e-04
3.43181818181818e+00 2.97046698747782e-02 1.69153347615391e-04
3.47727272727273e+00 2.95495646592502e-02 1.69380878552852e-04
3.52272727272727e+00 2.93952693373195e-02 1.69594221362960e-04
3.56818181818182e+00 2.92417796800681e-02 1.69793693602747e-04
3.61363636363636e+00 2.90890914810890e-02 1.69979604248740e-04
3.65909090909091e+00 2.89372005550803e-02 1.70152253580170e-04
3.70454545454545e+00 2.87861027394362e-02 1.70311933621619e-04
3.75000000000000e+00 2.86357938924603e-02 1.70458928480054e-04
3.79545454545455e+00 2.84862698948929e-02 1.70593514631235e-04
3.84090909090909e+00 2.83375266481879e-02 1.70715961224197e-04
3.88636363636364e+00 2.81895600759807e-02 1.70826530338377e-04
3.93181818181818e+00 2.80423661224258e-02 1.70925477259458e-04
3.97727272727273e+00 2.78959407536074e-02 1.71013050710829e-04
4.02272727272727e+00 2.77502799559351e-02 1.71089493208391e-04
4.06818181818182e+00 2.76053797371445e-02 1.71155040852088e-04
4.11363636363636e+00 2.74612361261728e-02 1.71209924177032e-04
4.15909090909091e+00 2.73178451719812e-02 1.71254367938787e-04
4.20454545454546e+00 2.71752029448601e-02 1.71288591401063e-04
4.25000000000000e+00 2.70333055349331e-02 1.71312808535411e-04
4.29545454545455e+00 2.68921490534135e-02 1.71327228183864e-04
4.34090909090909e+00 2.67517296311580e-02 1.71332054241895e-04
4.38636363636364e+00 2.66120434198772e-02 1.71327485806281e-04
4.43181818181818e+00 2.64730865907361e-02 1.71313717343085e-04
4.47727272727273e+00 2.63348553355212e-02 1.71290938822302e-04
4.52272727272727e+00 2.61973458652853e-02 1.71259335965348e-04
4.56818181818182e+00 2.60605544111751e-02 1.71219089996151e-04
4.61363636363636e+00 2.59244772243148e-02 1.71170378338770e-04
4.65909090909091e+00 2.57891105748064e-02 1.71113374369540e-04
4.70454545454546e+00 2.56544507528157e-02 1.71048247620529e-04
4.75000000000000e+00 2.55204940673012e-02 1.70975163906558e-04
4.79545454545455e+00 2.53872368470636e-02 1.70894285423283e-04
4.84090909090909e+00 2.52546754395134e-02 1.70805770864956e-04
4.88636363636364e+00 2.51228062116837e-02 1.70709775514320e-04
4.93181818181818e+00 2.49916255490360e-02 1.70606451351954e-04
4.97727272727273e+00 2.48611298564384e-02 1.70495947138876e-04
5.02272727272727e+00 2.47313155570064e-02 1.70378408601427e-04
5.06818181818182e+00 2.46021790927951e-02 1.70253978174169e-04
5.11363636363636e+00 2.44737169246913e-02 1.70122795592077e-04
5.15909090909091e+00 2.43459255315538e-02 1.69984997637464e-04
5.20454545454546e+00 2.42188014111274e-02 1.69840718293215e-04
5.25000000000000e+00 2.40923410789517e-02 1.69690088828507e-04
5.29545454545455e+00 2.39665410692457e-02 1.69533237860581e-04
5.34090909090909e+00 2.38413979338475e-02 1.69370291434841e-04
5.38636363636364e+00 2.37169082430708e-02 1.69201373081972e-04
5.43181818181818e+00 2.35930685846739e-02 1.69026603892953e-04
5.47727272727273e+00 2.34698755646891e-02 1.68846102571914e-04
5.52272727272727e+00 2.33473258064207e-02 1.68659985581389e-04
5.56818181818182e+00 2.32254159510297e-02 1.68468366891275e-04
5.61363636363636e+00 2.31041426574335e-02 1.68271358493015e-04
5.65909090909091e+00 2.29835026015588e-02 1.68069070153654e-04
5.70454545454546e+00 2.28634924771196e-02 1.67861609536975e-04
5.75000000000000e+00 2.27441089946698e-02 1.67649082263986e-04
5.79545454545455e+00 2.26253488823572e-02 1.67431591953281e-04
5.84090909090909e+00 2.25072088850020e-02 1.67209240278035e-04
5.88636363636364e+00 2.23896857648278e-02 1.66982127003477e-04
5.93181818181818e+00 2.22727763005640e-02 1.66750350040711e-04
5.97727272727273e+00 2.21564772881548e-02 1.66514005481568e-04
6.02272727272727e+00 2.20407855398854e-02 1.66273187717100e-04
6.06818181818182e+00 2.19256978848808e-02 1.66027989198833e-04
6.11363636363636e+00 2.18112111690115e-02 1.65778500892019e-04
6.15909090909091e+00 2.16973222542399e-02 1.65524812042261e-04
6.20454545454546e+00 2.15840280192864e-02 1.65267010274682e-04
6.25000000000000e+00 2.14713253588019e-02 1.65005181638332e-04
6.29545454545455e+00 2.13592111840148e-02 1.64739410633237e-04
6.34090909090909e+00 2.12476824219239e-02 1.64469780252492e-04
6.38636363636364e+00 2.11367360159269e-02 1.64196372007545e-04
6.43181818181818e+00 2.10263689250336e-02 1.63919265968152e-04
6.47727272727273e+00 2.09165781244762e-02 1.63638540785930e-04
6.52272727272727e+00 2.08073606049418e-02 1.63354273793779e-04
6.56818181818182e+00 2.06987133730005e-02 1.63066540781843e-04
6.61363636363636e+00 2.05906334510175e-02 1.62775416401330e-04
6.65909090909091e+00 2.04831178765765e-02 1.62480973945733e-04
6.70454545454546e+00 2.03761637030547e-02 1.62183285434230e-04
6.75000000000000e+00 2.02697679988944e-02 1.61882421645351e-04
6.79545454545455e+00 2.01639278481623e-02 1.61578452135480e-04
6.84090909090909e+00 2.00586403498379e-02 1.61271445270932e-04
6.88636363636364e+00 1.99539026183573e-02 1.60961468245280e-04
6.93181818181818e+00 1.98497117829193e-02 1.60648587109991e-04
6.97727272727273e+00 1.97460649880134e-02 1.60332866790626e-04
7.02272727272727e+00 1.96429593927424e-02 1.60014371171973e-04
7.06818181818182e+00 1.95403921711918e-02 1.59693162889344e-04
7.11363636363636e+00 1.94383605123471e-02 1.59369303691134e-04
7.15909090909091e+00 1.93368616195827e-02 1.59042854235120e-04
7.20454545454546e+00 1.92358927111612e-02 1.58713874159998e-04
7.25000000000000e+00 1.91354510195885e-02 1.58382422111632e-04
7.29545454545455e+00 1.90355337920994e-02 1.58048555755840e-04
7.34090909090909e+00 1.89361382900278e-02 1.57712331803538e-04
7.38636363636364e+00 1.88372617892791e-02 1.57373806022779e-04
7.43181818181818e+00 1.87389015797145e-02 1.57033033262755e-04
7.47727272727273e+00 1.86410549656115e-02 1.56690067465141e-04
7.52272727272727e+00 1.85437192650618e-02 1.56344961738155e-04
7.56818181818182e+00 1.84468918102918e-02 1.55997768162888e-04
7.61363636363636e+00 1.83505699475851e-02 1.55648538120694e-04
7.65909090909091e+00 1.82547510368271e-02 1.55297322104271e-04
7.70454545454546e+00 1.81594324519406e-02 1.54944169779969e-04
7.75000000000000e+00 1.80646115803119e-02 1.54589130008635e-04
7.79545454545455e+00 1.79702858232150e-02 1.54232250854641e-04
7.84090909090909e+00 1.78764525952505e-02 1.53873579605942e-04
7.88636363636364e+00 1.77831093247588e-02 1.53513162782503e-04
7.93181818181818e+00 1.76902534532714e-02 1.53151046155586e-04
7.97727272727273e+00 1.75978824359133e-02 1.52787274755715e-04
8.02272727272727e+00 1.75059937408663e-02 1.52421892937854e-04
8.06818181818182e+00 1.74145848496479e-02 1.52054944202087e-04
8.11363636363636e+00 1.73236532570389e-02 1.51686471490638e-04
8.15909090909091e+00 1.72331964706759e-02 1.51316517012935e-04
8.20454545454546e+00 1.71432120114320e-02 1.50945122300532e-04
8.25000000000000e+00 1.70536974129055e-02 1.50572328224048e-04
8.29545454545454e+00 1.69646502217906e-02 1.50198174999472e-04
8.34090909090909e+00 1.68760679973766e-02 1.49822702204521e-04
8.38636363636364e+00 1.67879483119096e-02 1.49445948784582e-04
8.43181818181818e+00 1.67002887501025e-02 1.49067953068445e-04
8.47727272727273e+00 1.66130869094874e-02 1.48688752773897e-04
8.52272727272727e+00 1.65263403999357e-02 1.48308385065656e-04
8.56818181818182e+00 1.64400468439019e-02 1.47926886389510e-04
8.61363636363636e+00 1.63542038763549e-02 1.47544292742733e-04
8.65909090909091e+00 1.62688091444128e-02 1.47160639512273e-04
8.70454545454546e+00 1.61838603076773e-02 1.46775961523584e-04
8.75000000000000e+00 1.60993550377747e-02 1.46390293054623e-04
8.79545454545454e+00 1.60152910186830e-02 1.46003667840262e-04
8.84090909090909e+00 1.59316659462820e-02 1.45616119085821e-04
8.88636363636364e+00 1.58484775286717e-02 1.45227679471218e-04
8.93181818181818e+00 1.57657234857325e-02 1.44838381164048e-04
8.97727272727273e+00 1.56834015494356e-02 1.44448255823481e-04
9.02272727272727e+00 1.56015094634119e-02 1.44057334652110e-04
9.06818181818182e+00 1.55200449831657e-02 1.43665648242615e-04
9.11363636363636e+00 1.54390058760102e-02 1.43273226824690e-04
9.15909090909091e+00 1.53583899207383e-02 1.42880100115412e-04
9.20454545454546e+00 1.52781949079176e-02 1.42486297362984e-04
9.25000000000000e+00 1.51984186394780e-02 1.42091847358471e-04
9.29545454545454e+00 1.51190589289992e-02 1.41696778438827e-04
9.34090909090909e+00 1.50401136013068e-02 1.41301118498260e-04
9.38636363636364e+00 1.49615804927533e-02 1.40904894991103e-04
9.43181818181818e+00 1.48834574508214e-02 1.40508134942788e-04
9.47727272727273e+00 1.48057423343991e-02 1.40110864952583e-04
9.52272727272727e+00 1.47284330133904e-02 1.39713111240230e-04
9.56818181818182e+00 1.46515273689039e-02 1.39314899504187e-04
9.61363636363636e+00 1.45750232931918e-02 1.38916255147672e-04
9.65909090909091e+00 1.44989186893525e-02 1.38517203140295e-04
9.70454545454546e+00 1.44232114715914e-02 1.38117768057484e-04
9.75000000000000e+00 1.43478995648487e-02 1.37717974090374e-04
9.79545454545454e+00 1.42729809050544e-02 1.37317845047904e-04
9.84090909090909e+00 1.41984534387632e-02 1.36917404366456e-04
9.88636363636364e+00 1.41243151234034e-02 1.36516675111778e-04
9.93181818181818e+00 1.40505639269189e-02 1.36115679988334e-04
9.97727272727273e+00 1.39771978280126e-02 1.35714441341124e-04
1.00227272727273e+01 1.39042148157946e-02 1.35312981032543e-04
1.00681818181818e+01 1.38316128903072e-02 1.34911321006592e-04
1.01136363636364e+01 1.37593900609607e-02 1.34509482406037e-04
1.01590909090909e+01 1.36875443489863e-02 1.34107486191411e-04
1.02045454545455e+01 1.36160737845335e-02 1.33705353007681e-04
1.02500000000000e+01 1.35449764094389e-02 1.33303103157385e-04
1.02954545454545e+01 1.34742502743748e-02 1.32900756637096e-04
1.03409090909091e+01 1.34038934415686e-02 1.32498333110799e-04
1.03863636363636e+01 1.33339039820019e-02 1.32095851945808e-04
1.04318181818182e+01 1.32642799780804e-02 1.31693332186373e-04
1.04772727272727e+01 1.31950195208833e-02 1.31290792588968e-04
1.05227272727273e+01 1.31261207127847e-02 1.30888251290589e-04
1.05681818181818e+01 1.30575816653983e-02 1.30485727067801e-04
1.06136363636364e+01 1.29894004995620e-02 1.30083237479105e-04
1.06590909090909e+01 1.29215753472091e-02 1.29680800097502e-04
1.07045454545455e+01 1.28541043487554e-02 1.29278432229096e-04
1.07500000000000e+01 1.27869856555870e-02 1.28876150888016e-04
1.07954545454545e+01 1.27202174274934e-02 1.28473972829408e-04
1.08409090909091e+01 1.26537978351114e-02 1.28071914524637e-04
1.08863636363636e+01 1.25877250574023e-02 1.27669992193749e-04
1.09318181818182e+01 1.25219972840527e-02 1.27268221780924e-04
1.09772727272727e+01 1.24566127129961e-02 1.26866618986431e-04
1.10227272727273e+01 1.23915695527709e-02 1.26465198960421e-04
1.10681818181818e+01 1.23268660206675e-02 1.26063977463700e-04
1.11136363636364e+01 1.22625003427111e-02 1.25662969153992e-04
1.11590909090909e+01 1.21984707553468e-02 1.25262188722474e-04
1.12045454545455e+01 1.21347755030812e-02 1.24861650633724e-04
1.12500000000000e+01 1.20714128407244e-02 1.24461369102388e-04
1.12954545454545e+01 1.20083810310720e-02 1.24061358123126e-04
1.13409090909091e+01 1.19456783471080e-02 1.23661631447496e-04
1.13863636363636e+01 1.18833030697263e-02 1.23262202613454e-04
1.14318181818182e+01 1.18212534898953e-02 1.22863084922508e-04
1.14772727272727e+01 1.17595279064189e-02 1.22464291468731e-04
1.15227272727273e+01 1.16981246280628e-02 1.22065834855877e-04
1.15681818181818e+01 1.16370419718803e-02 1.21667728268713e-04
1.16136363636364e+01 1.15762782631935e-02 1.21269983890457e-04
1.16590909090909e+01 1.15158318371145e-02 1.20872613951855e-04
1.17045454545455e+01 1.14557010364122e-02 1.20475630490724e-04
1.17500000000000e+01 1.13958842135364e-02 1.20079045330208e-04
1.17954545454545e+01 1.13363797285212e-02 1.19682870106064e-04
1.18409090909091e+01 1.12771859509734e-02 1.19287116245153e-04
1.18863636363636e+01 1.12183012580123e-02 1.18891794992279e-04
1.19318181818182e+01 1.11597240362234e-02 1.18496917388984e-04
1.19772727272727e+01 1.11014526796328e-02 1.18102494299925e-04
1.20227272727273e+01 1.10434855916282e-02 1.17708536151315e-04
1.20681818181818e+01 1.09858211834425e-02 1.17315053920721e-04
1.21136363636364e+01 1.09284578741353e-02 1.16922057674274e-04
1.21590909090909e+01 1.08713940919670e-02 1.16529557536012e-04
1.22045454545455e+01 1.08146282724669e-02 1.16137563465301e-04
1.22500000000000e+01 1.07581588602637e-02 1.15746085236647e-04
1.22954545454545e+01 1.07019843071850e-02 1.15355132464580e-04
1.23409090909091e+01 1.06461030740569e-02 1.14964714583656e-04
1.23863636363636e+01 1.05905136288357e-02 1.14574840872953e-04
1.24318181818182e+01 1.05352144483764e-02 1.14185520436344e-04
1.24772727272727e+01 1.04802040165958e-02 1.13796762226623e-04
1.25227272727273e+01 1.04254808262108e-02 1.13408574803440e-04
1.25681818181818e+01 1.03710433773641e-02 1.13020967248558e-04
1.26136363636364e+01 1.03168901776039e-02 1.12633947812652e-04
1.26590909090909e+01 1.02630197431292e-02 1.12247524811759e-04
1.27045454545455e+01 1.02094305970361e-02 1.11861706421176e-04
1.27500000000000e+01 1.01561212709761e-02 1.11476500656657e-04
1.27954545454545e+01 1.01030903034313e-02 1.11091915397145e-04
1.28409090909091e+01 1.00503362413446e-02 1.10707958366231e-04
1.28863636363636e+01 9.99785763842365e-03 1.10324637154540e-04
1.29318181818182e+01 9.94565305674374e-03 1.09941959201397e-04
1.29772727272727e+01 9.89372106507940e-03 1.09559931816885e-04
1.30227272727273e+01 9.84206024048075e-03 1.09178561957693e-04
1.30681818181818e+01 9.79066916702403e-03 1.08797857074176e-04
1.31136363636364e+01 9.73954643579235e-03 1.08417823857529e-04
1.31590909090909e+01 9.68869064600418e-03 1.08038469069527e-04
1.32045454545455e+01 9.63810040342004e-03 1.07659799351491e-04
1.32500000000000e+01 9.58777432184650e-03 1.07281821206830e-04
1.32954545454545e+01 9.53771102156857e-03 1.06904541021875e-04
1.33409090909091e+01 9.48790913082901e-03 1.06527965048627e-04
1.33863636363636e+01 9.43836728428600e-03 1.06152099425272e-04
1.34318181818182e+01 9.38908412446817e-03 1.05776950159154e-04
1.34772727272727e+01 9.34005830025710e-03 1.05402523146975e-04
1.35227272727273e+01 9.29128846831854e-03 1.05028823967082e-04
1.35681818181818e+01 9.24277329196555e-03 1.04655858664028e-04
1.36136363636364e+01 9.19451144113925e-03 1.04283632587817e-04
1.36590909090909e+01 9.14650159343379e-03 1.03912151162466e-04
1.37045454545455e+01 9.09874243264609e-03 1.03541419708872e-04
1.37500000000000e+01 9.05123265014230e-03 1.03171443428583e-04
1.37954545454545e+01 9.00397094343074e-03 1.02802227422905e-04
1.38409090909091e+01 8.95695601750618e-03 1.02433776676865e-04
1.38863636363636e+01 8.91018658344547e-03 1.02066096078056e-04
1.39318181818182e+01 8.86366135973009e-03 1.01699190400774e-04
1.39772727272727e+01 8.81737907086407e-03 1.01333064324604e-04
1.40227272727273e+01 8.77133844867515e-03 1.00967722241801e-04
1.40681818181818e+01 8.72553823127897e-03 1.00603168984435e-04
1.41136363636364e+01 8.67997716306005e-03 1.00239408748271e-04
1.41590909090909e+01 8.63465399560390e-03 9.98764458051499e-05
1.42045454545455e+01 8.58956748637517e-03 9.95142843386364e-05
1.42500000000000e+01 8.54471639996093e-03 9.91529284289229e-05
1.42954545454545e+01 8.50009950676969e-03 9.87923820704004e-05
1.43409090909091e+01 8.45571558425471e-03 9.84326491567368e-05
