Energy (eV)          EEDF (eV^-(3/2))     First Anisotropy
3.18604651162791e-02 5.03244858895731e-02 2.87728527572477e-05
9.55813953488372e-02 4.99217272913721e-02 4.74816565611071e-05
1.59302325581395e-01 4.95221920652890e-02 6.26004160905691e-05
2.23023255813953e-01 4.91258544109484e-02 7.40372261316745e-05
2.86744186046512e-01 4.87326887400209e-02 8.35351769934938e-05
3.50465116279070e-01 4.83426696659724e-02 9.17544025495429e-05
4.14186046511628e-01 4.79557720057270e-02 9.90370609038653e-05
4.77906976744186e-01 4.75719707769886e-02 1.05590088554033e-04
5.41627906976744e-01 4.71912411992450e-02 1.11550937410685e-04
6.05348837209302e-01 4.68135586892843e-02 1.17016901730650e-04
6.69069767441860e-01 4.64388988606620e-02 1.22060111263111e-04
7.32790697674419e-01 4.60672375216069e-02 1.26735960576884e-04
7.96511627906977e-01 4.56985506750767e-02 1.31088194332386e-04
8.60232558139535e-01 4.53328145154875e-02 1.35152147179234e-04
9.23953488372093e-01 4.49700054277754e-02 1.38956899782651e-04
9.87674418604651e-01 4.46100999858887e-02 1.42526765982098e-04
1.05139534883721e+00 4.42530749522587e-02 1.45882349994209e-04
1.11511627906977e+00 4.38989072732376e-02 1.49041316587973e-04
1.17883720930233e+00 4.35475740807496e-02 1.52018964803809e-04
1.24255813953488e+00 4.31990526897377e-02 1.54828664020545e-04
1.30627906976744e+00 4.28533205966984e-02 1.57482190260038e-04
1.37000000000000e+00 4.25103554782295e-02 1.59989990047553e-04
1.43372093023256e+00 4.21701351871774e-02 1.62361388805446e-04
1.49744186046512e+00 4.18326377585853e-02 1.64604759536392e-04
1.56116279069767e+00 4.14978414007388e-02 1.66727659892714e-04
1.62488372093023e+00 4.11657244963289e-02 1.68736943198942e-04
1.68860465116279e+00 4.08362656010562e-02 1.70638851316052e-04
1.75232558139535e+00 4.05094434422461e-02 1.72439091831217e-04
1.81604651162791e+00 4.01852369174748e-02 1.74142902907316e-04
1.87976744186047e+00 3.98636250932070e-02 1.75755108140839e-04
1.94348837209302e+00 3.95445872034441e-02 1.77280163263881e-04
2.00720930232558e+00 3.92281026483830e-02 1.78722196138380e-04
2.07093023255814e+00 3.89141509930862e-02 1.80085041194918e-04
2.13465116279070e+00 3.86027119661620e-02 1.81372269240416e-04
2.19837209302326e+00 3.82937654584560e-02 1.82587213381746e-04
2.26209302325581e+00 3.79872915217523e-02 1.83732991673089e-04
2.32581395348837e+00 3.76832703674855e-02 1.84812526985048e-04
2.38953488372093e+00 3.73816823654628e-02 1.85828564505912e-04
2.45325581395349e+00 3.70825080425968e-02 1.86783687215273e-04
2.51697674418605e+00 3.67857280816480e-02 1.87680329613621e-04
2.58069767441860e+00 3.64913233199774e-02 1.88520789945444e-04
2.64441860465116e+00 3.61992747483092e-02 1.89307241115885e-04
2.70813953488372e+00 3.59095635095034e-02 1.90041740470027e-04
2.77186046511628e+00 3.56221708973383e-02 1.90726238578716e-04
2.83558139534884e+00 3.53370783553017e-02 1.91362587152924e-04
2.89930232558140e+00 3.50542674753945e-02 1.91952546192243e-04
2.96302325581395e+00 3.47737199969414e-02 1.92497790457860e-04
3.02674418604651e+00 3.44954178054113e-02 1.92999915346936e-04
3.09046511627907e+00 3.42193429312483e-02 1.93460442236502e-04
3.15418604651163e+00 3.39454775487108e-02 1.93880823355180e-04
3.21790697674419e+00 3.36738039747212e-02 1.94262446233658e-04
3.28162790697674e+00 3.34043046677234e-02 1.94606637778473e-04
3.34534883720930e+00 3.31369622265507e-02 1.94914668008188e-04
3.40906976744186e+00 3.28717593893021e-02 1.95187753486157e-04
3.47279069767442e+00 3.26086790322276e-02 1.95427060480128e-04
3.53651162790698e+00 3.23477041686225e-02 1.95633707875394e-04
3.60023255813953e+00 3.20888179477309e-02 1.95808769865035e-04
3.66395348837209e+00 3.18320036536575e-02 1.95953278438343e-04
3.72767441860465e+00 3.15772447042878e-02 1.96068225685932e-04
3.79139534883721e+00 3.13245246502185e-02 1.96154565938293e-04
3.85511627906977e+00 3.10738271736943e-02 1.96213217752526e-04
3.91883720930233e+00 3.08251360875548e-02 1.96245065760625e-04
3.98255813953488e+00 3.05784353341893e-02 1.96250962391216e-04
4.04627906976744e+00 3.03337089845001e-02 1.96231729475437e-04
4.11000000000000e+00 3.00909412368735e-02 1.96188159862832e-04
4.17372093023256e+00 2.98501164155828e-02 1.96121018472113e-04
4.23744186046512e+00 2.96112189715258e-02 1.96031043839891e-04
4.30116279069767e+00 2.93742334794521e-02 1.95918949588747e-04
4.36488372093023e+00 2.91391446375633e-02 1.95785425221097e-04
4.42860465116279e+00 2.89059372665247e-02 1.95631137323831e-04
4.49232558139535e+00 2.86745963084858e-02 1.95456730587081e-04
4.55604651162791e+00 2.84451068261071e-02 1.95262828762830e-04
4.61976744186047e+00 2.82174540015966e-02 1.95050035567880e-04
4.68348837209302e+00 2.79916231357523e-02 1.94818935535171e-04
4.74720930232558e+00 2.77675996470135e-02 1.94570094817104e-04
4.81093023255814e+00 2.75453690705190e-02 1.94304061944319e-04
4.87465116279070e+00 2.73249170571735e-02 1.94021368542931e-04
4.93837209302326e+00 2.71062293727208e-02 1.93722530013103e-04
5.00209302325581e+00 2.68892918968247e-02 1.93408046171548e-04
5.06581395348837e+00 2.66740906221574e-02 1.93078401860414e-04
5.12953488372093e+00 2.64606116534951e-02 1.92734067524665e-04
5.19325581395349e+00 2.62488412068208e-02 1.92375499760037e-04
5.25697674418605e+00 2.60387656084339e-02 1.92003141833487e-04
5.32069767441860e+00 2.58303712940681e-02 1.91617424177820e-04
5.38441860465116e+00 2.56236448080147e-02 1.91218764862090e-04
5.44813953488372e+00 2.54185728022543e-02 1.90807570039301e-04
5.51186046511628e+00 2.52151420355951e-02 1.90384234372819e-04
5.57558139534884e+00 2.50133393728171e-02 1.89949141442582e-04
5.63930232558139e+00 2.48131517838250e-02 1.89502664132558e-04
5.70302325581395e+00 2.46145663428062e-02 1.89045165000449e-04
5.76674418604651e+00 2.44175702273965e-02 1.88576996630566e-04
5.83046511627907e+00 2.42221507178522e-02 1.88098501970936e-04
5.89418604651163e+00 2.40282951962284e-02 1.87610014655509e-04
5.95790697674419e+00 2.38359911455649e-02 1.87111859312316e-04
6.02162790697674e+00 2.36452261490773e-02 1.86604351858296e-04
6.08534883720930e+00 2.34559878893560e-02 1.86087799781539e-04
6.14906976744186e+00 2.32682641475702e-02 1.85562502411666e-04
6.21279069767442e+00 2.30820428026795e-02 1.85028751178929e-04
6.27651162790698e+00 2.28973118306508e-02 1.84486829862607e-04
6.34023255813953e+00 2.27140593036824e-02 1.83937014829324e-04
6.40395348837209e+00 2.25322733894334e-02 1.83379575261739e-04
6.46767441860465e+00 2.23519423502598e-02 1.82814773378113e-04
6.53139534883721e+00 2.21730545424571e-02 1.82242864643254e-04
6.59511627906977e+00 2.19955984155077e-02 1.81664097971224e-04
6.65883720930232e+00 2.18195625113356e-02 1.81078715920209e-04
6.72255813953488e+00 2.16449354635667e-02 1.80486954879985e-04
6.78627906976744e+00 2.14717059967942e-02 1.79889045252254e-04
6.85000000000000e+00 2.12998629258513e-02 1.79285211688102e-04
6.91372093023256e+00 2.11293951548430e-02 1.78675673062420e-04
6.97744186046512e+00 2.09602916771729e-02 1.78060642764247e-04
7.04116279069767e+00 2.07925415740831e-02 1.77440328982737e-04
7.10488372093023e+00 2.06261340142010e-02 1.76814934659537e-04
7.16860465116279e+00 2.04610582528398e-02 1.76184657699361e-04
7.23232558139535e+00 2.02973036313053e-02 1.75549691109224e-04
7.29604651162791e+00 2.01348595762069e-02 1.74910223132828e-04
7.35976744186046e+00 1.99737155987757e-02 1.74266437380319e-04
7.42348837209302e+00 1.98138612941867e-02 1.73618512953605e-04
7.48720930232558e+00 1.96552863408870e-02 1.72966624567411e-04
7.55093023255814e+00 1.94979804999299e-02 1.72310942666271e-04
7.61465116279070e+00 1.93419336143129e-02 1.71651633537621e-04
7.67837209302326e+00 1.91871356083227e-02 1.70988859421139e-04
7.74209302325581e+00 1.90335764868843e-02 1.70322778614556e-04
7.80581395348837e+00 1.88812463349153e-02 1.69653545575997e-04
7.86953488372093e+00 1.87301353166865e-02 1.68981311023059e-04
7.93325581395349e+00 1.85802336751858e-02 1.68306222028705e-04
7.99697674418605e+00 1.84315317314892e-02 1.67628422114122e-04
8.06069767441860e+00 1.82840198841352e-02 1.66948051338730e-04
8.12441860465116e+00 1.81376886085050e-02 1.66265246387325e-04
8.18813953488372e+00 1.79925284562077e-02 1.65580140654542e-04
8.25186046511628e+00 1.78485300544698e-02 1.64892864326792e-04
8.31558139534884e+00 1.77056841055307e-02 1.64203544461658e-04
8.37930232558139e+00 1.75639813860415e-02 1.63512305064895e-04
8.44302325581395e+00 1.74234127464703e-02 1.62819267165184e-04
8.50674418604651e+00 1.72839691105108e-02 1.62124548886641e-04
8.57046511627907e+00 1.71456414744966e-02 1.61428265519208e-04
8.63418604651163e+00 1.70084209068198e-02 1.60730529586953e-04
8.69790697674419e+00 1.68722985473541e-02 1.60031450914434e-04
8.76162790697674e+00 1.67372656068830e-02 1.59331136691137e-04
8.82534883720930e+00 1.66033133665321e-02 1.58629691534072e-04
8.88906976744186e+00 1.64704331772062e-02 1.57927217548604e-04
8.95279069767442e+00 1.63386164590308e-02 1.57223814387574e-04
9.01651162790698e+00 1.62078547007981e-02 1.56519579308757e-04
9.08023255813953e+00 1.60781394594175e-02 1.55814607230745e-04
9.14395348837209e+00 1.59494623593706e-02 1.55108990787275e-04
9.20767441860465e+00 1.58218150921699e-02 1.54402820380068e-04
9.27139534883721e+00 1.56951894158230e-02 1.53696184230256e-04
9.33511627906977e+00 1.55695771543000e-02 1.52989168428403e-04
9.39883720930233e+00 1.54449701970054e-02 1.52281856983185e-04
9.46255813953488e+00 1.53213604982552e-02 1.51574331868763e-04
9.52627906976744e+00 1.51987400767563e-02 1.50866673070934e-04
9.59000000000000e+00 1.50771010150922e-02 1.50158958670246e-04
9.65372093023256e+00 1.49564354590868e-02 1.49451264770381e-04
9.71744186046512e+00 1.48367356176733e-02 1.48743665618071e-04
9.78116279069767e+00 1.47179937620126e-02 1.48036233722858e-04
9.84488372093023e+00 1.46002022251212e-02 1.47329039779540e-04
9.90860465116279e+00 1.44833534013762e-02 1.46622152747183e-04
9.97232558139535e+00 1.43674397460243e-02 1.45915639709755e-04
1.00360465116279e+01 1.42524537752629e-02 1.45209566697083e-04
1.00997674418605e+01 1.41383880632534e-02 1.44503997511810e-04
1.01634883720930e+01 1.40252352460811e-02 1.43798994113717e-04
1.02272093023256e+01 1.39129880176237e-02 1.43094618046785e-04
1.02909302325581e+01 1.38016391291585e-02 1.42390928280180e-04
1.03546511627907e+01 1.36911813921459e-02 1.41687982300619e-04
1.04183720930233e+01 1.35816076744811e-02 1.40985837170442e-04
1.04820930232558e+01 1.34729109001100e-02 1.40284547507269e-04
1.05458139534884e+01 1.33650840516916e-02 1.39584166540244e-04
1.06095348837209e+01 1.32581201669950e-02 1.38884746814497e-04
1.06732558139535e+01 1.31520123395108e-02 1.38186339513984e-04
1.07369767441860e+01 1.30467537170316e-02 1.37488993881990e-04
1.08006976744186e+01 1.29423375041525e-02 1.36792757888057e-04
1.08644186046512e+01 1.28387569588633e-02 1.36097679204485e-04
1.09281395348837e+01 1.27360053921787e-02 1.35403803336611e-04
1.09918604651163e+01 1.26340761705320e-02 1.34711174596398e-04
1.10555813953488e+01 1.25329627124937e-02 1.34019837046417e-04
1.11193023255814e+01 1.24326584884127e-02 1.33329832687681e-04
1.11830232558140e+01 1.23331570227054e-02 1.32641202402037e-04
1.12467441860465e+01 1.22344518907003e-02 1.31953986866031e-04
1.13104651162791e+01 1.21365367182835e-02 1.31268224794416e-04
1.13741860465116e+01 1.20394051840927e-02 1.30583953851292e-04
1.14379069767442e+01 1.19430510164805e-02 1.29901211258573e-04
1.15016279069767e+01 1.18474679939928e-02 1.29220033204731e-04
1.15653488372093e+01 1.17526499441538e-02 1.28540454336898e-04
1.16290697674419e+01 1.16585907455300e-02 1.27862508337275e-04
1.16927906976744e+01 1.15652843248497e-02 1.27186228767541e-04
1.17565116279070e+01 1.14727246566661e-02 1.26511647441137e-04
1.18202325581395e+01 1.13809057653339e-02 1.25838795265834e-04
1.18839534883721e+01 1.12898217222353e-02 1.25167703061430e-04
1.19476744186047e+01 1.11994666454495e-02 1.24498399981480e-04
1.20113953488372e+01 1.11098347016474e-02 1.23830914328715e-04
1.20751162790698e+01 1.10209201034201e-02 1.23165274098735e-04
1.21388372093023e+01 1.09327171096770e-02 1.22501506447746e-04
1.22025581395349e+01 1.08452200245634e-02 1.21839637234243e-04
1.22662790697674e+01 1.07584231992452e-02 1.21179691534296e-04
1.23300000000000e+01 1.06723210293731e-02 1.20521694398413e-04
1.23937209302326e+01 1.05869079547669e-02 1.19865669387633e-04
1.24574418604651e+01 1.05021784611268e-02 1.19211639328341e-04
1.25211627906977e+01 1.04181270775881e-02 1.18559627045340e-04
1.25848837209302e+01 1.03347483764129e-02 1.17909653941988e-04
1.26486046511628e+01 1.02520369746314e-02 1.17261740731270e-04
1.27123255813953e+01 1.01699875316850e-02 1.16615907922721e-04
1.27760465116279e+01 1.00885947497569e-02 1.15972175342770e-04
1.28397674418605e+01 1.00078533728065e-02 1.15330561720891e-04
1.29034883720930e+01 9.92775818811662e-03 1.14691085151214e-04
1.29672093023256e+01 9.84830402405400e-03 1.14053763772114e-04
1.30309302325581e+01 9.76948574977516e-03 1.13418614448035e-04
1.30946511627907e+01 9.69129827671147e-03 1.12785653446883e-04
1.31583720930233e+01 9.61373655640780e-03 1.12154897098362e-04
1.32220930232558e+01 9.53679558023549e-03 1.11526360515094e-04
1.32858139534884e+01 9.46047038081747e-03 1.10900058249209e-04
1.33495348837209e+01 9.38475602994351e-03 1.10276004729183e-04
1.34132558139535e+01 9.30964763884544e-03 1.09654213827232e-04
1.34769767441860e+01 9.23514035733257e-03 1.09034698485355e-04
1.35406976744186e+01 9.16122937513733e-03 1.08417471129595e-04
1.36044186046512e+01 9.08790991993221e-03 1.07802544281132e-04
1.36681395348837e+01 9.01517725705590e-03 1.07189929368061e-04
1.37318604651163e+01 8.94302669080510e-03 1.06579637334261e-04
1.37955813953488e+01 8.87145356251964e-03 1.05971679231466e-04
1.38593023255814e+01 8.80045325031550e-03 1.05366065066161e-04
1.39230232558140e+01 8.73002117032499e-03 1.04762804390116e-04
1.39867441860465e+01 8.66015277484859e-03 1.04161906874702e-04
1.40504651162791e+01 8.59084355209280e-03 1.03563381191792e-04
1.41141860465116e+01 8.52208902736216e-03 1.02967235585981e-04
1.41779069767442e+01 8.45388476127492e-03 1.02373478255833e-04
1.42416279069767e+01 8.38622634997860e-03 1.01782116974474e-04
1.43053488372093e+01 8.31910942440033e-03 1.01193158760893e-04
1.43690697674419e+01 8.25252965137293e-03 1.00606610241604e-04
1.44327906976744e+01 8.18648273193493e-03 1.00022478183988e-04
1.44965116279070e+01 8.12096440108208e-03 9.94407684555366e-05
1.45602325581395e+01 8.05597042884905e-03 9.88614865555511e-05
1.46239534883721e+01 7.99149661866749e-03 9.82846381325196e-05
1.46876744186047e+01 7.92753880712257e-03 9.77102279738087e-05
1.47513953488372e+01 7.86409286499298e-03 9.71382605211788e-05
1.48151162790698e+01 7.80115469566480e-03 9.65687402139747e-05
1.48788372093023e+01 7.73872023531028e-03 9.60016711462781e-05
1.49425581395349e+01 7.67678545221423e-03 9.54370567694401e-05
1.50062790697674e+01 7.61534634775742e-03 9.48749002177098e-05
1.50700000000000e+01 7.55439895490441e-03 9.43152047891937e-05
1.51337209302326e+01 7.49393933797252e-03 9.37579730056668e-05
1.51974418604651e+01 7.43396359357706e-03 9.32032070918616e-05
1.52611627906977e+01 7.37446784916971e-03 9.26509094420633e-05
1.53248837209302e+01 7.31544826281267e-03 9.21010817072301e-05
1.53886046511628e+01 7.25690102408758e-03 9.15537252599418e-05
1.54523255813953e+01 7.19882235268297e-03 9.10088415036804e-05
1.55160465116279e+01 7.14120849854224e-03 9.04664315627939e-05
1.55797674418605e+01 7.08405574125740e-03 8.99264960131422e-05
1.56434883720930e+01 7.02736039092940e-03 8.93890351755990e-05
1.57072093023256e+01 6.97111878682052e-03 8.88540495502400e-05
1.57709302325581e+01 6.91532729713982e-03 8.83215389662802e-05
1.58346511627907e+01 6.85998231987042e-03 8.77915030145783e-05
1.58983720930233e+01 6.80508028146623e-03 8.72639414688840e-05
1.59620930232558e+01 6.75061763664244e-03 8.67388534602786e-05
1.60258139534884e+01 6.69659086917120e-03 8.62162378969725e-05
1.60895348837209e+01 6.64299649062159e-03 8.56960937433268e-05
1.61532558139535e+01 6.58983104048160e-03 8.51784197392731e-05
1.62169767441860e+01 6.53709108561185e-03 8.46632141562640e-05
1.62806976744186e+01 6.48477322099932e-03 8.41504750620905e-05
1.63444186046512e+01 6.43287406855455e-03 8.36402007132417e-05
1.64081395348837e+01 6.38139027691240e-03 8.31323887857166e-05
1.64718604651163e+01 6.33031852215726e-03 8.26270367656820e-05
1.65355813953488e+01 6.27965550665906e-03 8.21241423301353e-05
1.65993023255814e+01 6.22939795887905e-03 8.16237025997514e-05
1.66630232558140e+01 6.17954263406743e-03 8.11257145182469e-05
1.67267441860465e+01 6.13008631313747e-03 8.06301752220464e-05
1.67904651162791e+01 6.08102580247518e-03 8.01370813145002e-05
1.68541860465116e+01 6.03235793461114e-03 7.96464292339664e-05
1.69179069767442e+01 5.98407956713121e-03 7.91582154987954e-05
1.69816279069767e+01 5.93618758277064e-03 7.86724364602928e-05
1.70453488372093e+01 5.88867888893637e-03 7.81890880875212e-05
1.71090697674419e+01 5.84155041834352e-03 7.77081661998715e-05
1.71727906976744e+01 5.79479912797443e-03 7.72296668114118e-05
1.72365116279070e+01 5.74842199889848e-03 7.67535854541929e-05
1.73002325581395e+01 5.70241603688468e-03 7.62799175212986e-05
1.73639534883721e+01 5.65677827139424e-03 7.58086586012598e-05
1.74276744186046e+01 5.61150575540426e-03 7.53398038205927e-05
1.74913953488372e+01 5.56659556599774e-03 7.48733481768068e-05
1.75551162790698e+01 5.52204480338851e-03 7.44092867598862e-05
1.76188372093023e+01 5.47785059099809e-03 7.39476145283878e-05
1.76825581395349e+01 5.43401007502393e-03 7.34883261141987e-05
1.77462790697674e+01 5.39052042499884e-03 7.30314160328253e-05
1.78100000000000e+01 5.34737883285876e-03 7.25768789951329e-05
1.78737209302326e+01 5.30458251277564e-03 7.21247092940652e-05
1.79374418604651e+01 5.26212870169609e-03 7.16749011151043e-05
1.80011627906977e+01 5.22001465843870e-03 7.12274488390074e-05
1.80648837209302e+01 5.17823766353076e-03 7.07823464458716e-05
1.81286046511628e+01 5.13679501972704e-03 7.03395878166166e-05
1.81923255813953e+01 5.09568405113588e-03 6.98991669333797e-05
1.82560465116279e+01 5.05490210328149e-03 6.94610776764635e-05
1.83197674418605e+01 5.01444654271332e-03 6.90253136471091e-05
1.83834883720930e+01 4.97431475749838e-03 6.85918683577836e-05
1.84472093023256e+01 4.93450415638523e-03 6.81607355145942e-05
1.85109302325581e+01 4.89501216864914e-03 6.77319084611419e-05
1.85746511627907e+01 4.85583624456622e-03 6.73053804596797e-05
1.86383720930233e+01 4.81697385460357e-03 6.68811449653819e-05
1.87020930232558e+01 4.77842248926814e-03 6.64591950858222e-05
1.87658139534884e+01 4.74017965956346e-03 6.60395238541262e-05
1.88295348837209e+01 4.70224289620531e-03 6.56221244104295e-05
1.88932558139535e+01 4.66460974967184e-03 6.52069898176084e-05
1.89569767441860e+01 4.62727778984990e-03 6.47941129003238e-05
1.90206976744186e+01 4.59024460646861e-03 6.43834864173456e-05
1.90844186046512e+01 4.55350780834892e-03 6.39751033175732e-05
1.91481395348837e+01 4.51706502326006e-03 6.35689562353835e-05
1.92118604651163e+01 4.48091389833740e-03 6.31650377454441e-05
1.92755813953488e+01 4.44505209935502e-03 6.27633406113472e-05
1.93393023255814e+01 4.40947731058586e-03 6.23638572950769e-05
1.94030232558140e+01 4.37418723520418e-03 6.19665802046392e-05
1.94667441860465e+01 4.33917959458088e-03 6.15715019357081e-05
1.95304651162791e+01 4.30445212814663e-03 6.11786147947987e-05
1.95941860465116e+01 4.27000259377990e-03 6.07879110397630e-05
1.96579069767442e+01 4.23582876712423e-03 6.03993830397300e-05
1.97216279069767e+01 4.20192844162518e-03 6.00130231123815e-05
1.97853488372093e+01 4.16829942821920e-03 5.96288233816464e-05
1.98490697674419e+01 4.13493955570217e-03 5.92467759296123e-05
1.99127906976744e+01 4.10184667007540e-03 5.88668730221037e-05
1.99765116279070e+01 4.06901863441613e-03 5.84891066632676e-05
2.00402325581395e+01 4.03645332923257e-03 5.81134688201706e-05
2.01039534883721e+01 4.00414865183015e-03 5.77399516420226e-05
