Energy (eV)          EEDF (eV^-(3/2))     First Anisotropy
1.03750000000000e-01 5.74164077789030e-02 6.14736257929434e-05
3.11250000000000e-01 5.57878494339079e-02 1.00408361748755e-04
5.18750000000000e-01 5.42054834995081e-02 1.29662557734249e-04
7.26250000000000e-01 5.26679997746888e-02 1.50203775495618e-04
9.33750000000000e-01 5.11741252209621e-02 1.65994406234970e-04
1.14125000000000e+00 4.97226229082890e-02 1.78584726796752e-04
1.34875000000000e+00 4.83122909909007e-02 1.88802826255575e-04
1.55625000000000e+00 4.69419617121678e-02 1.97163830701412e-04
1.76375000000000e+00 4.56105004376971e-02 2.04019023005054e-04
1.97125000000000e+00 4.43168047158526e-02 2.09623216340460e-04
2.17875000000000e+00 4.30598033649240e-02 2.14169632974534e-04
2.38625000000000e+00 4.18384555861869e-02 2.17809760514388e-04
2.59375000000000e+00 4.06517501021204e-02 2.20665482361274e-04
2.80125000000000e+00 3.94987043190678e-02 2.22836905162329e-04
3.00875000000000e+00 3.83783635136477e-02 2.24407635845023e-04
3.21625000000000e+00 3.72898000422423e-02 2.25448469455285e-04
3.42375000000000e+00 3.62321125729065e-02 2.26020045088882e-04
3.63125000000000e+00 3.52044253390646e-02 2.26174808193133e-04
3.83875000000000e+00 3.42058874143744e-02 2.25958492665140e-04
4.04625000000000e+00 3.32356720081584e-02 2.25411261923645e-04
4.25375000000000e+00 3.22929757808212e-02 2.24568602345150e-04
4.46125000000000e+00 3.13770181786821e-02 2.23462033318289e-04
4.66875000000000e+00 3.04870407876765e-02 2.22119679110741e-04
4.87625000000000e+00 2.96223067053879e-02 2.20566734967704e-04
5.08375000000000e+00 2.87820999308914e-02 2.18825851109976e-04
5.29125000000000e+00 2.79657247719045e-02 2.16917452187309e-04
5.49875000000000e+00 2.71725052687527e-02 2.14860005397741e-04
5.70625000000000e+00 2.64017846346741e-02 2.12670247345198e-04
5.91375000000000e+00 2.56529247119992e-02 2.10363377407569e-04
6.12125000000000e+00 2.49253054437553e-02 2.07953223679209e-04
6.32875000000000e+00 2.42183243602590e-02 2.05452386267349e-04
6.53625000000000e+00 2.35313960802699e-02 2.02872361745216e-04
6.74375000000000e+00 2.28639518262947e-02 2.00223651814096e-04
6.95125000000000e+00 2.22154389536385e-02 1.97515858644212e-04
7.15875000000000e+00 2.15853204928144e-02 1.94757768908300e-04
7.36625000000000e+00 2.09730747049318e-02 1.91957428161641e-04
7.57375000000000e+00 2.03781946496963e-02 1.89122206935719e-04
7.78125000000000e+00 1.98001877656623e-02 1.86258859682829e-04
7.98875000000000e+00 1.92385754623913e-02 1.83373577523370e-04
8.19625000000000e+00 1.86928927241790e-02 1.80472035596706e-04
8.40375000000000e+00 1.81626877250209e-02 1.77559435693068e-04
8.61125000000000e+00 1.76475214545005e-02 1.74640544742489e-04
8.81875000000000e+00 1.71469673542877e-02 1.71719729652702e-04
9.02625000000000e+00 1.66606109649482e-02 1.68800988918163e-04
9.23375000000000e+00 1.61880495827702e-02 1.65887981363881e-04
9.44125000000000e+00 1.57288919263256e-02 1.62984052338734e-04
9.64875000000000e+00 1.52827578124884e-02 1.60092257631559e-04
9.85625000000000e+00 1.48492778416425e-02 1.57215385348226e-04
1.00637500000000e+01 1.44280930918182e-02 1.54355975958070e-04
1.02712500000000e+01 1.40188548215046e-02 1.51516340692542e-04
1.04787500000000e+01 1.36212241808912e-02 1.48698578457099e-04
1.06862500000000e+01 1.32348719312996e-02 1.45904591398537e-04
1.08937500000000e+01 1.28594781725735e-02 1.43136099253673e-04
1.11012500000000e+01 1.24947320782014e-02 1.40394652591264e-04
1.13087500000000e+01 1.21403316379509e-02 1.37681645046751e-04
1.15162500000000e+01 1.17959834078050e-02 1.34998324638774e-04
1.17237500000000e+01 1.14614022669892e-02 1.32345804247043e-04
1.19312500000000e+01 1.11363111818914e-02 1.29725071322971e-04
1.21387500000000e+01 1.08204409766780e-02 1.27136996897265e-04
1.23462500000000e+01 1.05135301104155e-02 1.24582343942321e-04
1.25537500000000e+01 1.02153244605146e-02 1.22061775141652e-04
1.27612500000000e+01 9.92557711231631e-03 1.19575860113601e-04
1.29687500000000e+01 9.64404815464610e-03 1.17125082132154e-04
1.31762500000000e+01 9.37050448116744e-03 1.14709844383767e-04
1.33837500000000e+01 9.10471959736924e-03 1.12330475795554e-04
1.35912500000000e+01 8.84647343302821e-03 1.09987236467096e-04
1.37987500000000e+01 8.59555215999037e-03 1.07680322735272e-04
1.40062500000000e+01 8.35174801512113e-03 1.05409871899010e-04
1.42137500000000e+01 8.11485912827710e-03 1.03175966628572e-04
1.44212500000000e+01 7.88468935515735e-03 1.00978639081940e-04
1.46287500000000e+01 7.66104811489573e-03 9.88178747490167e-05
1.48362500000000e+01 7.44375023225961e-03 9.66936160426756e-05
1.50437500000000e+01 7.23261578432459e-03 9.46057656541997e-05
1.52512500000000e+01 7.02746995149808e-03 9.25541896892478e-05
1.54587500000000e+01 6.82814287276842e-03 9.05387205992415e-05
1.56662500000000e+01 6.63446950505982e-03 8.85591599219449e-05
1.58737500000000e+01 6.44628948657640e-03 8.66152808439474e-05
1.60812500000000e+01 6.26344700402249e-03 8.47068305968298e-05
1.62887500000000e+01 6.08579066358896e-03 8.28335326979159e-05
1.64962500000000e+01 5.91317336559898e-03 8.09950890457299e-05
1.67037500000000e+01 5.74545218270932e-03 7.91911818795469e-05
1.69112500000000e+01 5.58248824156629e-03 7.74214756117593e-05
1.71187500000000e+01 5.42414660781846e-03 7.56856185411644e-05
1.73262500000000e+01 5.27029617439080e-03 7.39832444547222e-05
1.75337500000000e+01 5.12080955292792e-03 7.23139741248142e-05
1.77412500000000e+01 4.97556296831629e-03 7.06774167085436e-05
1.79487500000000e+01 4.83443615619829e-03 6.90731710551912e-05
1.81562500000000e+01 4.69731226339323e-03 6.75008269275205e-05
1.83637500000000e+01 4.56407775114270e-03 6.59599661422635e-05
1.85712500000000e+01 4.43462230110035e-03 6.44501636347526e-05
1.87787500000000e+01 4.30883872398818e-03 6.29709884523480e-05
1.89862500000000e+01 4.18662287084367e-03 6.15220046810191e-05
1.91937500000000e+01 4.06787354678429e-03 6.01027723091431e-05
1.94012500000000e+01 3.95249242721802e-03 5.87128480323427e-05
1.96087500000000e+01 3.84038397643048e-03 5.73517860029284e-05
1.98162500000000e+01 3.73145536848120e-03 5.60191385272973e-05
2.00237500000000e+01 3.62561641034366e-03 5.47144567144376e-05
2.02312500000000e+01 3.52277946722532e-03 5.34372910784747e-05
2.04387500000000e+01 3.42285939000590e-03 5.21871920980329e-05
2.06462500000000e+01 3.32577344473384e-03 5.09637107350109e-05
2.08537500000000e+01 3.23144124412242e-03 4.97663989152110e-05
2.10612500000000e+01 3.13978468098904e-03 4.85948099731161e-05
2.12687500000000e+01 3.05072786358234e-03 4.74484990629708e-05
2.14762500000000e+01 2.96419705274374e-03 4.63270235381917e-05
2.16837500000000e+01 2.88012060085134e-03 4.52299433010192e-05
2.18912500000000e+01 2.79842889249557e-03 4.41568211242014e-05
2.20987500000000e+01 2.71905428683754e-03 4.31072229464018e-05
2.23062500000000e+01 2.64193106160239e-03 4.20807181429193e-05
2.25137500000000e+01 2.56699535866110e-03 4.10768797732174e-05
2.27212500000000e+01 2.49418513115591e-03 4.00952848066734e-05
2.29287500000000e+01 2.42344009212543e-03 3.91355143278769e-05
2.31362500000000e+01 2.35470166458698e-03 3.81971537227293e-05
2.33437500000000e+01 2.28791293303476e-03 3.72797928465197e-05
2.35512500000000e+01 2.22301859631370e-03 3.63830261750938e-05
2.37587500000000e+01 2.15996492183013e-03 3.55064529401631e-05
2.39662500000000e+01 2.09869970106100e-03 3.46496772497386e-05
2.41737500000000e+01 2.03917220632528e-03 3.38123081946249e-05
2.43812500000000e+01 1.98133314878127e-03 3.29939599418507e-05
2.45887500000000e+01 1.92513463761544e-03 3.21942518158658e-05
2.47962500000000e+01 1.87053014038876e-03 3.14128083682833e-05
2.50037500000000e+01 1.81747444450778e-03 3.06492594369060e-05
2.52112500000000e+01 1.76592361978852e-03 2.99032401947325e-05
2.54187500000000e+01 1.71583498208227e-03 2.91743911895961e-05
2.56262500000000e+01 1.66716705793302e-03 2.84623583750586e-05
2.58337500000000e+01 1.61987955023742e-03 2.77667931331393e-05
2.60412500000000e+01 1.57393330487868e-03 2.70873522894309e-05
2.62487500000000e+01 1.52929027830694e-03 2.64236981211208e-05
2.64562500000000e+01 1.48591350603920e-03 2.57754983584076e-05
2.66637500000000e+01 1.44376707205258e-03 2.51424261797758e-05
2.68712500000000e+01 1.40281607904593e-03 2.45241602015622e-05
2.70787500000000e+01 1.36302661954470e-03 2.39203844622255e-05
2.72862500000000e+01 1.32436574782562e-03 2.33307884017067e-05
2.74937500000000e+01 1.28680145263750e-03 2.27550668362449e-05
2.77012500000000e+01 1.25030263069596e-03 2.21929199289937e-05
2.79087500000000e+01 1.21483906092979e-03 2.16440531567601e-05
2.81162500000000e+01 1.18038137945793e-03 2.11081772731742e-05
2.83237500000000e+01 1.14690105527610e-03 2.05850082685765e-05
2.85312500000000e+01 1.11437036663311e-03 2.00742673268946e-05
2.87387500000000e+01 1.08276237807721e-03 1.95756807797638e-05
2.89462500000000e+01 1.05205091815350e-03 1.90889800581332e-05
2.91537500000000e+01 1.02221055773394e-03 1.86139016415840e-05
2.93612500000000e+01 9.93216588961963e-04 1.81501870055714e-05
2.95687500000000e+01 9.65045004794405e-04 1.76975825667924e-05
2.97762500000000e+01 9.37672479123583e-04 1.72558396268674e-05
2.99837500000000e+01 9.11076347463275e-04 1.68247143145112e-05
3.01912500000000e+01 8.85234588182494e-04 1.64039675263640e-05
3.03987500000000e+01 8.60125804271543e-04 1.59933648666339e-05
3.06062500000000e+01 8.35729205625270e-04 1.55926765857014e-05
3.08137500000000e+01 8.12024591828831e-04 1.52016775178213e-05
3.10212500000000e+01 7.88992335431723e-04 1.48201470180533e-05
3.12287500000000e+01 7.66613365696225e-04 1.44478688985409e-05
3.14362500000000e+01 7.44869152806811e-04 1.40846313642526e-05
3.16437500000000e+01 7.23741692527430e-04 1.37302269482918e-05
3.18512500000000e+01 7.03213491293984e-04 1.33844524468752e-05
3.20587500000000e+01 6.83267551729628e-04 1.30471088540712e-05
3.22662500000000e+01 6.63887358570923e-04 1.27180012963870e-05
3.24737500000000e+01 6.45056864993177e-04 1.23969389672839e-05
3.26812500000000e+01 6.26760479323653e-04 1.20837350616969e-05
3.28887500000000e+01 6.08983052131645e-04 1.17782067106289e-05
3.30962500000000e+01 5.91709863684729e-04 1.14801749158861e-05
3.33037500000000e+01 5.74926611760805e-04 1.11894644850136e-05
3.35112500000000e+01 5.58619399805841e-04 1.09059039664880e-05
3.37187500000000e+01 5.42774725427508e-04 1.06293255852214e-05
3.39262500000000e+01 5.27379469215179e-04 1.03595651784226e-05
3.41337500000000e+01 5.12420883877045e-04 1.00964621318619e-05
3.43412500000000e+01 4.97886583685337e-04 9.83985931658099e-06
3.45487500000000e+01 4.83764534220931e-04 9.58960302608446e-06
3.47562500000000e+01 4.70043042408829e-04 9.34554291404944e-06
3.49637500000000e+01 4.56710746836284e-04 9.10753193258470e-06
3.51712500000000e+01 4.43756608345530e-04 8.87542627106863e-06
3.53787500000000e+01 4.31169900893350e-04 8.64908529559260e-06
3.55862500000000e+01 4.18940202669893e-04 8.42837148903410e-06
3.57937500000000e+01 4.07057387469410e-04 8.21315039178162e-06
3.60012500000000e+01 3.95511616305735e-04 8.00329054313106e-06
3.62087500000000e+01 3.84293329265594e-04 7.79866342337119e-06
3.64162500000000e+01 3.73393237592990e-04 7.59914339657385e-06
3.66237500000000e+01 3.62802315998092e-04 7.40460765410325e-06
3.68312500000000e+01 3.52511795184291e-04 7.21493615885646e-06
3.70387500000000e+01 3.42513154587208e-04 7.03001159024570e-06
3.72462500000000e+01 3.32798115319656e-04 6.84971928993135e-06
3.74537500000000e+01 3.23358633316711e-04 6.67394720831409e-06
3.76612500000000e+01 3.14186892675217e-04 6.50258585179196e-06
3.78687500000000e+01 3.05275299182206e-04 6.33552823078810e-06
3.80762500000000e+01 2.96616474026883e-04 6.17266980855222e-06
3.82837500000000e+01 2.88203247690957e-04 6.01390845074004e-06
3.84912500000000e+01 2.80028654012276e-04 5.85914437577196e-06
3.86987500000000e+01 2.72085924416831e-04 5.70828010597111e-06
3.89062500000000e+01 2.64368482314370e-04 5.56122041948256e-06
3.91137500000000e+01 2.56869937652976e-04 5.41787230297166e-06
3.93212500000000e+01 2.49584081628088e-04 5.27814490510044e-06
3.95287500000000e+01 2.42504881541612e-04 5.14194949077958e-06
3.97362500000000e+01 2.35626475806833e-04 5.00919939619324e-06
3.99437500000000e+01 2.28943169095016e-04 4.87980998459340e-06
4.01512500000000e+01 2.22449427619665e-04 4.75369860285915e-06
4.03587500000000e+01 2.16139874554545e-04 4.63078453881633e-06
4.05662500000000e+01 2.10009285581657e-04 4.51098897931280e-06
4.07737500000000e+01 2.04052584565501e-04 4.39423496904333e-06
4.09812500000000e+01 1.98264839350025e-04 4.28044737011840e-06
4.11887500000000e+01 1.92641257674799e-04 4.16955282237008e-06
4.13962500000000e+01 1.87177183207011e-04 4.06147970438858e-06
4.16037500000000e+01 1.81868091686022e-04 3.95615809528266e-06
4.18112500000000e+01 1.76709587177271e-04 3.85351973715586e-06
4.20187500000000e+01 1.71697398432435e-04 3.75349799829115e-06
4.22262500000000e+01 1.66827375352831e-04 3.65602783703660e-06
4.24337500000000e+01 1.62095485553127e-04 3.56104576638347e-06
4.26412500000000e+01 1.57497811022525e-04 3.46848981922847e-06
4.28487500000000e+01 1.53030544880641e-04 3.37829951431209e-06
4.30562500000000e+01 1.48689988225402e-04 3.29041582282406e-06
4.32637500000000e+01 1.44472547070353e-04 3.20478113566733e-06
4.34712500000000e+01 1.40374729368830e-04 3.12133923137175e-06
4.36787500000000e+01 1.36393142122542e-04 3.04003524464834e-06
4.38862500000000e+01 1.32524488572163e-04 2.96081563557549e-06
4.40937500000000e+01 1.28765565467611e-04 2.88362815940766e-06
4.43012500000000e+01 1.25113260415753e-04 2.80842183699735e-06
4.45087500000000e+01 1.21564549303342e-04 2.73514692582157e-06
4.47162500000000e+01 1.18116493793043e-04 2.66375489160334e-06
4.49237500000000e+01 1.14766238890489e-04 2.59419838051889e-06
4.51312500000000e+01 1.11511010580341e-04 2.52643119198153e-06
4.53387500000000e+01 1.08348113529400e-04 2.46040825199275e-06
4.55462500000000e+01 1.05274928854867e-04 2.39608558705168e-06
4.57537500000000e+01 1.02288911955906e-04 2.33342029861325e-06
4.59612500000000e+01 9.93875904067103e-05 2.27237053808615e-06
4.61687500000000e+01 9.65685619093310e-05 2.21289548236160e-06
4.63762500000000e+01 9.38294923045712e-05 2.15495530986353e-06
4.65837500000000e+01 9.11681136392992e-05 2.09851117711118e-06
4.67912500000000e+01 8.85822222885804e-05 2.04352519578539e-06
4.69987500000000e+01 8.60696771310732e-05 1.98996041028951e-06
4.72062500000000e+01 8.36283977761775e-05 1.93778077579602e-06
4.74137500000000e+01 8.12563628414691e-05 1.88695113677021e-06
4.76212500000000e+01 7.89516082789918e-05 1.83743720596214e-06
4.78287500000000e+01 7.67122257490238e-05 1.78920554385830e-06
4.80362500000000e+01 7.45363610399696e-05 1.74222353858440e-06
4.82437500000000e+01 7.24222125330708e-05 1.69645938625107e-06
4.84512500000000e+01 7.03680297106628e-05 1.65188207173372e-06
4.86587500000000e+01 6.83721117067447e-05 1.60846134987851e-06
4.88662500000000e+01 6.64328058986596e-05 1.56616772712647e-06
4.90737500000000e+01 6.45485065387212e-05 1.52497244354737e-06
4.92812500000000e+01 6.27176534246524e-05 1.48484745527553e-06
4.94887500000000e+01 6.09387306077359e-05 1.44576541733969e-06
4.96962500000000e+01 5.92102651376069e-05 1.40769966687922e-06
4.99037500000000e+01 5.75308258426481e-05 1.37062420673897e-06
5.01112500000000e+01 5.58990221449781e-05 1.33451368943526e-06
5.03187500000000e+01 5.43135029090506e-05 1.29934340148545e-06
5.05262500000000e+01 5.27729553229129e-05 1.26508924809384e-06
5.07337500000000e+01 5.12761038111957e-05 1.23172773818681e-06
5.09412500000000e+01 4.98217089789353e-05 1.19923596978974e-06
5.11487500000000e+01 4.84085665853526e-05 1.16759161573911e-06
5.13562500000000e+01 4.70355065467407e-05 1.13677290972252e-06
5.15637500000000e+01 4.57013919676335e-05 1.10675863263999e-06
5.17712500000000e+01 4.44051181994553e-05 1.07752809927999e-06
5.19787500000000e+01 4.31456119258702e-05 1.04906114530328e-06
5.21862500000000e+01 4.19218302740748e-05 1.02133811452854e-06
5.23937500000000e+01 4.07327599512980e-05 9.94339846513010e-07
5.26012500000000e+01 3.95774164057937e-05 9.68047664422132e-07
5.28087500000000e+01 3.84548430116304e-05 9.42443363182010e-07
5.30162500000000e+01 3.73641102766036e-05 9.17509197908605e-07
5.32237500000000e+01 3.63043150726155e-05 8.93227872607715e-07
5.34312500000000e+01 3.52745798878833e-05 8.69582529140036e-07
5.36387500000000e+01 3.42740521003588e-05 8.46556736445431e-07
5.38462500000000e+01 3.33019032717556e-05 8.24134480020844e-07
5.40537500000000e+01 3.23573284616020e-05 8.02300151646397e-07
5.42612500000000e+01 3.14395455607485e-05 7.81038539354146e-07
5.44687500000000e+01 3.05477946437807e-05 7.60334817634240e-07
5.46762500000000e+01 2.96813373398003e-05 7.40174537873300e-07
5.48837500000000e+01 2.88394562210527e-05 7.20543619019803e-07
5.50912500000000e+01 2.80214542088963e-05 7.01428338471528e-07
5.52987500000000e+01 2.72266539966199e-05 6.82815323180088e-07
5.55062500000000e+01 2.64543974886326e-05 6.64691540967746e-07
5.57137500000000e+01 2.57040452555593e-05 6.47044292051802e-07
5.59212500000000e+01 2.49749760047924e-05 6.29861200771811e-07
5.61287500000000e+01 2.42665860660609e-05 6.13130207515164e-07
5.63362500000000e+01 2.35782888915908e-05 5.96839560836534e-07
5.65437500000000e+01 2.29095145704423e-05 5.80977809766813e-07
5.67512500000000e+01 2.22597093566231e-05 5.65533796307279e-07
5.69587500000000e+01 2.16283352105862e-05 5.50496648104732e-07
5.71662500000000e+01 2.10148693537322e-05 5.35855771303520e-07
5.73737500000000e+01 2.04188038355478e-05 5.21600843570436e-07
5.75812500000000e+01 1.98396451130226e-05 5.07721807288511e-07
5.77887500000000e+01 1.92769136419946e-05 4.94208862915805e-07
5.79962500000000e+01 1.87301434800868e-05 4.81052462505484e-07
5.82037500000000e+01 1.81988819009068e-05 4.68243303383398e-07
5.84112500000000e+01 1.76826890191883e-05 4.55772321979559e-07
5.86187500000000e+01 1.71811374265659e-05 4.43630687809952e-07
5.88262500000000e+01 1.66938118376802e-05 4.31809797605219e-07
5.90337500000000e+01 1.62203087463211e-05 4.20301269582758e-07
5.92412500000000e+01 1.57602360913241e-05 4.09096937858937e-07
5.94487500000000e+01 1.53132129319432e-05 3.98188846998156e-07
5.96562500000000e+01 1.48788691324313e-05 3.87569246695556e-07
5.98637500000000e+01 1.44568450555676e-05 3.77230586590229e-07
6.00712500000000e+01 1.40467912648773e-05 3.67165511205885e-07
6.02787500000000e+01 1.36483682352980e-05 3.57366855015998e-07
6.04862500000000e+01 1.32612460720523e-05 3.47827637630461e-07
6.06937500000000e+01 1.28851042374943e-05 3.38541059100912e-07
6.09012500000000e+01 1.25196312857047e-05 3.29500495341942e-07
6.11087500000000e+01 1.21645246046125e-05 3.20699493665397e-07
6.13162500000000e+01 1.18194901654321e-05 3.12131768425140e-07
6.15237500000000e+01 1.14842422792070e-05 3.03791196769629e-07
6.17312500000000e+01 1.11585033602594e-05 2.95671814499744e-07
6.19387500000000e+01 1.08420036963481e-05 2.87767812029366e-07
6.21462500000000e+01 1.05344812253472e-05 2.80073530446243e-07
6.23537500000000e+01 1.02356813182578e-05 2.72583457670776e-07
6.25612500000000e+01 9.94535656837524e-06 2.65292224710347e-07
6.27687500000000e+01 9.66326658643564e-06 2.58194602006911e-07
6.29762500000000e+01 9.38917780157365e-06 2.51285495875631e-07
6.31837500000000e+01 9.12286326792528e-06 2.44559945032342e-07
6.33912500000000e+01 8.86410247671648e-06 2.38013117207720e-07
6.35987500000000e+01 8.61268117368157e-06 2.31640305846068e-07
6.38062500000000e+01 8.36839118166048e-06 2.25436926886654e-07
6.40137500000000e+01 8.13103022822775e-06 2.19398515625651e-07
6.42212500000000e+01 7.90040177821072e-06 2.13520723656675e-07
6.44287500000000e+01 7.67631487095818e-06 2.07799315888048e-07
6.46362500000000e+01 7.45858396222466e-06 2.02230167634929e-07
6.48437500000000e+01 7.24702877053960e-06 1.96809261784460e-07
6.50512500000000e+01 7.04147412793404e-06 1.91532686032187e-07
6.52587500000000e+01 6.84174983490133e-06 1.86396630188008e-07
6.54662500000000e+01 6.64769051947169e-06 1.81397383549935e-07
