Energy (eV)          EEDF (eV^-(3/2))     First Anisotropy
1.43166666666667e-02 2.85830547121925e-01 1.94534288416048e-04
4.29500000000000e-02 2.82560077098134e-01 3.20471000521247e-04
7.15833333333333e-02 2.79327027751243e-01 4.21048376076494e-04
1.00216666666667e-01 2.76130970922944e-01 4.96245770752981e-04
1.28850000000000e-01 2.72971483349877e-01 5.57966314111017e-04
1.57483333333333e-01 2.69848146583316e-01 6.10741453461613e-04
1.86116666666667e-01 2.66760547010664e-01 6.56931569105348e-04
2.14750000000000e-01 2.63708275723413e-01 6.97971109188946e-04
2.43383333333333e-01 2.60690928481901e-01 7.34817380306489e-04
2.72016666666667e-01 2.57708105699638e-01 7.68151165299622e-04
3.00650000000000e-01 2.54759412346507e-01 7.98479486569614e-04
3.29283333333333e-01 2.51844457904403e-01 8.26193484698114e-04
3.57916666666667e-01 2.48962856342735e-01 8.51603405187551e-04
3.86550000000000e-01 2.46114226037321e-01 8.74960930671280e-04
4.15183333333333e-01 2.43298189724220e-01 8.96474066569632e-04
4.43816666666667e-01 2.40514374470571e-01 9.16317432093777e-04
4.72450000000000e-01 2.37762411602806e-01 9.34639587568755e-04
5.01083333333333e-01 2.35041936660589e-01 9.51568381351341e-04
5.29716666666667e-01 2.32352589365135e-01 9.67214944806075e-04
5.58350000000000e-01 2.29694013553870e-01 9.81676731485087e-04
5.86983333333333e-01 2.27065857135159e-01 9.95039864270333e-04
6.15616666666667e-01 2.24467772055309e-01 1.00738098159451e-03
6.44250000000000e-01 2.21899414238118e-01 1.01876870614174e-03
6.72883333333333e-01 2.19360443540673e-01 1.02926482370229e-03
7.01516666666667e-01 2.16850523719776e-01 1.03892524559869e-03
7.30150000000000e-01 2.14369322375410e-01 1.04780079944815e-03
7.58783333333333e-01 2.11916510907755e-01 1.05593788152803e-03
7.87416666666667e-01 2.09491764483479e-01 1.06337900493589e-03
8.16050000000000e-01 2.07094761982502e-01 1.07016326114424e-03
8.44683333333333e-01 2.04725185956284e-01 1.07632670844640e-03
8.73316666666667e-01 2.02382722594272e-01 1.08190270614014e-03
9.01950000000000e-01 2.00067061673532e-01 1.08692220137799e-03
9.30583333333333e-01 1.97777896518310e-01 1.09141397410408e-03
9.59216666666667e-01 1.95514923966858e-01 1.09540485208864e-03
9.87850000000000e-01 1.93277844323585e-01 1.09891989920257e-03
1.01648333333333e+00 1.91066361313245e-01 1.10198257389022e-03
1.04511666666667e+00 1.88880182074971e-01 1.10461487707571e-03
1.07375000000000e+00 1.86719017082439e-01 1.10683748360082e-03
1.10238333333333e+00 1.84582580103234e-01 1.10866984222202e-03
1.13101666666667e+00 1.82470588219393e-01 1.11013028280663e-03
1.15965000000000e+00 1.80382761729697e-01 1.11123611280784e-03
1.18828333333333e+00 1.78318824116358e-01 1.11200368257481e-03
1.21691666666667e+00 1.76278502060726e-01 1.11244846453621e-03
1.24555000000000e+00 1.74261525353255e-01 1.11258512456269e-03
1.27418333333333e+00 1.72267626860878e-01 1.11242756674550e-03
1.30281666666667e+00 1.70296542538753e-01 1.11198899314647e-03
1.33145000000000e+00 1.68348011346884e-01 1.11128195806293e-03
1.36008333333333e+00 1.66421775218278e-01 1.11031839899742e-03
1.38871666666667e+00 1.64517579067379e-01 1.10910968289768e-03
1.41735000000000e+00 1.62635170712564e-01 1.10766664843058e-03
1.44598333333333e+00 1.60774300845109e-01 1.10599962744299e-03
1.47461666666667e+00 1.58934723034866e-01 1.10411848155026e-03
1.50325000000000e+00 1.57116193657968e-01 1.10203263577812e-03
1.53188333333333e+00 1.55318471866628e-01 1.09975109334573e-03
1.56051666666667e+00 1.53541319592509e-01 1.09728246519034e-03
1.58915000000000e+00 1.51784501479087e-01 1.09463499724942e-03
1.61778333333333e+00 1.50047784852295e-01 1.09181658047688e-03
1.64641666666667e+00 1.48330939721951e-01 1.08883477508504e-03
1.67505000000000e+00 1.46633738718316e-01 1.08569683304231e-03
1.70368333333333e+00 1.44955957063588e-01 1.08240970464102e-03
1.73231666666667e+00 1.43297372571694e-01 1.07898005871115e-03
1.76095000000000e+00 1.41657765588648e-01 1.07541430145023e-03
1.78958333333333e+00 1.40036918964883e-01 1.07171858047016e-03
1.81821666666667e+00 1.38434618053677e-01 1.06789880188421e-03
1.84685000000000e+00 1.36850650654958e-01 1.06396064627729e-03
1.87548333333333e+00 1.35284806988478e-01 1.05990957089426e-03
1.90411666666667e+00 1.33736879691075e-01 1.05575082426110e-03
1.93275000000000e+00 1.32206663763643e-01 1.05148945989024e-03
1.96138333333333e+00 1.30693956545128e-01 1.04713033709139e-03
1.99001666666667e+00 1.29198557708811e-01 1.04267813361918e-03
2.01865000000000e+00 1.27720269212189e-01 1.03813735755891e-03
2.04728333333333e+00 1.26258895271770e-01 1.03351234711352e-03
2.07591666666667e+00 1.24814242358544e-01 1.02880728165013e-03
2.10455000000000e+00 1.23386119150534e-01 1.02402619210470e-03
2.13318333333333e+00 1.21974336508388e-01 1.01917296000804e-03
2.16181666666667e+00 1.20578707470161e-01 1.01425132721733e-03
2.19045000000000e+00 1.19199047206344e-01 1.00926490510054e-03
2.21908333333333e+00 1.17835172996227e-01 1.00421717299881e-03
2.24771666666667e+00 1.16486904222109e-01 9.99111486865493e-04
2.27635000000000e+00 1.15154062326627e-01 9.93951087434127e-04
2.30498333333333e+00 1.13836470789870e-01 9.88739098266418e-04
2.33361666666667e+00 1.12533955123120e-01 9.83478533474182e-04
2.36225000000000e+00 1.11246342828315e-01 9.78172305031923e-04
2.39088333333333e+00 1.09973463375896e-01 9.72823220524263e-04
2.41951666666667e+00 1.08715148198169e-01 9.67433990090462e-04
2.44815000000000e+00 1.07471230650748e-01 9.62007233010238e-04
2.47678333333333e+00 1.06241545991128e-01 9.56545475237990e-04
2.50541666666667e+00 1.05025931371728e-01 9.51051155682403e-04
2.53405000000000e+00 1.03824225803197e-01 9.45526632169428e-04
2.56268333333333e+00 1.02636270133682e-01 9.39974178830722e-04
2.59131666666667e+00 1.01461907041623e-01 9.34395991809722e-04
2.61995000000000e+00 1.00300981000803e-01 9.28794194686463e-04
2.64858333333333e+00 9.91533382602876e-02 9.23170835772328e-04
2.67721666666667e+00 9.80188268370289e-02 9.17527893317797e-04
2.70585000000000e+00 9.68972964825525e-02 9.11867280468907e-04
2.73448333333333e+00 9.57885986635506e-02 9.06190842508436e-04
2.76311666666667e+00 9.46925865543419e-02 9.00500361627762e-04
2.79175000000000e+00 9.36091150050945e-02 8.94797561472763e-04
2.82038333333333e+00 9.25380405230562e-02 8.89084104362810e-04
2.84901666666667e+00 9.14792212649109e-02 8.83361595678671e-04
2.87765000000000e+00 9.04325170064479e-02 8.77631588046243e-04
2.90628333333333e+00 8.93977891244097e-02 8.71895578557720e-04
2.93491666666667e+00 8.83749005887814e-02 8.66155012819293e-04
2.96355000000000e+00 8.73637159338237e-02 8.60411288813602e-04
2.99218333333333e+00 8.63641012405187e-02 8.54665754141714e-04
3.02081666666667e+00 8.53759241288249e-02 8.48919709767749e-04
3.04945000000000e+00 8.43990537299965e-02 8.43174413594884e-04
3.07808333333333e+00 8.34333606696096e-02 8.37431077742505e-04
3.10671666666667e+00 8.24787170598094e-02 8.31690872019494e-04
3.13535000000000e+00 8.15349964728455e-02 8.25954927243376e-04
3.16398333333333e+00 8.06020739246608e-02 8.20224332563658e-04
3.19261666666667e+00 7.96798258671538e-02 8.14500138691041e-04
3.22125000000000e+00 7.87681301628656e-02 8.08783360985359e-04
3.24988333333333e+00 7.78668660691130e-02 8.03074976833337e-04
3.27851666666667e+00 7.69759142302865e-02 7.97375928657312e-04
3.30715000000000e+00 7.60951566536289e-02 7.91687126794009e-04
3.33578333333333e+00 7.52244766938942e-02 7.86009446932895e-04
3.36441666666667e+00 7.43637590457010e-02 7.80343732924961e-04
3.39305000000000e+00 7.35128897203438e-02 7.74690799471608e-04
3.42168333333333e+00 7.26717560309630e-02 7.69051429627981e-04
3.45031666666667e+00 7.18402465849675e-02 7.63426377429771e-04
3.47895000000000e+00 7.10182512618272e-02 7.57816370409123e-04
3.50758333333333e+00 7.02056611987370e-02 7.52222107165963e-04
3.53621666666667e+00 6.94023687831218e-02 7.46644259828588e-04
3.56485000000000e+00 6.86082676313613e-02 7.41083476411408e-04
3.59348333333333e+00 6.78232525749321e-02 7.35540378456362e-04
3.62211666666667e+00 6.70472196530062e-02 7.30015563341155e-04
3.65075000000000e+00 6.62800660920619e-02 7.24509606492067e-04
3.67938333333333e+00 6.55216902924888e-02 7.19023059096443e-04
3.70801666666667e+00 6.47719918212892e-02 7.13556450270915e-04
3.73665000000000e+00 6.40308713925326e-02 7.08110289141044e-04
3.76528333333333e+00 6.32982308544072e-02 7.02685062625225e-04
3.79391666666667e+00 6.25739731820342e-02 6.97281237474059e-04
3.82255000000000e+00 6.18580024587231e-02 6.91899262227091e-04
3.85118333333333e+00 6.11502238634577e-02 6.86539565068088e-04
3.87981666666667e+00 6.04505436638277e-02 6.81202555745399e-04
3.90845000000000e+00 5.97588691980486e-02 6.75888627415051e-04
3.93708333333333e+00 5.90751088628670e-02 6.70598154566902e-04
3.96571666666667e+00 5.83991721066151e-02 6.65331494834786e-04
3.99435000000000e+00 5.77309694119605e-02 6.60088990734464e-04
4.02298333333333e+00 5.70704122842152e-02 6.54870967659724e-04
4.05161666666667e+00 5.64174132445199e-02 6.49677735590267e-04
4.08025000000000e+00 5.57718858132875e-02 6.44509590732020e-04
4.10888333333333e+00 5.51337444989050e-02 6.39366813582031e-04
4.13751666666667e+00 5.45029047910491e-02 6.34249670541385e-04
4.16615000000000e+00 5.38792831447931e-02 6.29158415464745e-04
4.19478333333333e+00 5.32627969696880e-02 6.24093287792581e-04
4.22341666666667e+00 5.26533646232125e-02 6.19054514075677e-04
4.25205000000000e+00 5.20509053955135e-02 6.14042309440184e-04
4.28068333333333e+00 5.14553394988535e-02 6.09056875785678e-04
4.30931666666667e+00 5.08665880611975e-02 6.04098403227187e-04
4.33795000000000e+00 5.02845731115586e-02 5.99167071481383e-04
4.36658333333333e+00 4.97092175697994e-02 5.94263048128825e-04
4.39521666666667e+00 4.91404452403578e-02 5.89386489978946e-04
4.42385000000000e+00 4.85781807981702e-02 5.84537544382622e-04
4.45248333333333e+00 4.80223497788158e-02 5.79716347556840e-04
4.48111666666667e+00 4.74728785723820e-02 5.74923025877649e-04
4.50975000000000e+00 4.69296944099398e-02 5.70157697123801e-04
4.53838333333333e+00 4.63927253540199e-02 5.65420468862098e-04
4.56701666666667e+00 4.58619002926175e-02 5.60711439672921e-04
4.59565000000000e+00 4.53371489261966e-02 5.56030700329229e-04
4.62428333333333e+00 4.48184017584863e-02 5.51378332240762e-04
4.65291666666667e+00 4.43055900906255e-02 5.46754408616348e-04
4.68155000000000e+00 4.37986460086728e-02 5.42158995582266e-04
4.71018333333333e+00 4.32975023747131e-02 5.37592150683545e-04
4.73881666666667e+00 4.28020928211410e-02 5.33053923986845e-04
4.76745000000000e+00 4.23123517386555e-02 5.28544359141963e-04
4.79608333333333e+00 4.18282142676656e-02 5.24063491938313e-04
4.82471666666667e+00 4.13496162927125e-02 5.19611351351959e-04
4.85335000000000e+00 4.08764944309284e-02 5.15187960553694e-04
4.88198333333333e+00 4.04087860237304e-02 5.10793335518858e-04
4.91061666666667e+00 3.99464291313823e-02 5.06427486021917e-04
4.93925000000000e+00 3.94893625218955e-02 5.02090416594133e-04
4.96788333333333e+00 3.90375256630042e-02 4.97782125185048e-04
4.99651666666667e+00 3.85908587168627e-02 4.93502604107611e-04
5.02515000000000e+00 3.81493025293725e-02 4.89251840948397e-04
5.05378333333333e+00 3.77127986224276e-02 4.85029817278916e-04
5.08241666666667e+00 3.72812891887472e-02 4.80836509554162e-04
5.11105000000000e+00 3.68547170816101e-02 4.76671889978114e-04
5.13968333333333e+00 3.64330258073618e-02 4.72535925263178e-04
5.16831666666667e+00 3.60161595203806e-02 4.68428577484744e-04
5.19695000000000e+00 3.56040630132031e-02 4.64349804904459e-04
5.22558333333333e+00 3.51966817092835e-02 4.60299560776154e-04
5.25421666666667e+00 3.47939616580919e-02 4.56277794158871e-04
5.28285000000000e+00 3.43958495256142e-02 4.52284450700289e-04
5.31148333333333e+00 3.40022925873562e-02 4.48319471487396e-04
5.34011666666667e+00 3.36132387235710e-02 4.44382793820309e-04
5.36875000000000e+00 3.32286364101192e-02 4.40474351958069e-04
5.39738333333333e+00 3.28484347117083e-02 4.36594076012454e-04
5.42601666666667e+00 3.24725832772483e-02 4.32741892684705e-04
5.45465000000000e+00 3.21010323310568e-02 4.28917725975722e-04
5.48328333333333e+00 3.17337326663261e-02 4.25121496121456e-04
5.51191666666667e+00 3.13706356406051e-02 4.21353120294611e-04
5.54055000000000e+00 3.10116931673350e-02 4.17612513281087e-04
5.56918333333333e+00 3.06568577095368e-02 4.13899586455440e-04
5.59781666666667e+00 3.03060822754166e-02 4.10214248449389e-04
5.62645000000000e+00 2.99593204102193e-02 4.06556405796375e-04
5.65508333333333e+00 2.96165261901286e-02 4.02925961945605e-04
5.68371666666667e+00 2.92776542179943e-02 3.99322817899086e-04
5.71235000000000e+00 2.89426596154897e-02 3.95746872825975e-04
5.74098333333333e+00 2.86114980172189e-02 3.92198023113737e-04
5.76961666666667e+00 2.82841255665619e-02 3.88676162975434e-04
5.79825000000000e+00 2.79604989081250e-02 3.85181185035433e-04
5.82688333333333e+00 2.76405751820473e-02 3.81712979416295e-04
5.85551666666667e+00 2.73243120199622e-02 3.78271434317813e-04
5.88415000000000e+00 2.70116675377289e-02 3.74856436575558e-04
5.91278333333333e+00 2.67026003299310e-02 3.71467870782195e-04
5.94141666666667e+00 2.63970694659523e-02 3.68105619839722e-04
5.97005000000000e+00 2.60950344829783e-02 3.64769565492217e-04
5.99868333333333e+00 2.57964553806806e-02 3.61459587480327e-04
6.02731666666667e+00 2.55012926174042e-02 3.58175564068050e-04
6.05595000000000e+00 2.52095071034286e-02 3.54917372551008e-04
6.08458333333333e+00 2.49210601958317e-02 3.51684888442832e-04
6.11321666666667e+00 2.46359136947862e-02 3.48477985977788e-04
6.14185000000000e+00 2.43540298370699e-02 3.45296538595789e-04
6.17048333333333e+00 2.40753712911035e-02 3.42140418159485e-04
6.19911666666667e+00 2.37999011533531e-02 3.39009495433948e-04
6.22775000000000e+00 2.35275829420808e-02 3.35903640549608e-04
6.25638333333333e+00 2.32583805925495e-02 3.32822722248867e-04
6.28501666666667e+00 2.29922584535298e-02 3.29766608343970e-04
6.31365000000000e+00 2.27291812812812e-02 3.26735166158962e-04
6.34228333333333e+00 2.24691142349185e-02 3.23728261804699e-04
6.37091666666667e+00 2.22120228730208e-02 3.20745760615993e-04
6.39955000000000e+00 2.19578731478337e-02 3.17787527573643e-04
6.42818333333333e+00 2.17066314007925e-02 3.14853426606750e-04
6.45681666666667e+00 2.14582643592307e-02 3.11943321010158e-04
6.48545000000000e+00 2.12127391307944e-02 3.09057073847498e-04
6.51408333333333e+00 2.09700231991178e-02 3.06194547279807e-04
6.54271666666667e+00 2.07300844206275e-02 3.03355602964206e-04
6.57135000000000e+00 2.04928910191620e-02 3.00540102438903e-04
6.59998333333333e+00 2.02584115817937e-02 2.97747906477073e-04
6.62861666666667e+00 2.00266150557271e-02 2.94978875467723e-04
6.65725000000000e+00 1.97974707431159e-02 2.92232869783507e-04
6.68588333333333e+00 1.95709482970252e-02 2.89509749158894e-04
6.71451666666667e+00 1.93470177184227e-02 2.86809373054096e-04
6.74315000000000e+00 1.91256493511846e-02 2.84131601006503e-04
6.77178333333333e+00 1.89068138781944e-02 2.81476292032238e-04
6.80041666666667e+00 1.86904823184244e-02 2.78843304973941e-04
6.82905000000000e+00 1.84766260221226e-02 2.76232498836585e-04
6.85768333333333e+00 1.82652166670443e-02 2.73643732211582e-04
6.88631666666667e+00 1.80562262556204e-02 2.71076863609116e-04
6.91495000000000e+00 1.78496271103200e-02 2.68531751779161e-04
6.94358333333333e+00 1.76453918700094e-02 2.66008255157212e-04
6.97221666666667e+00 1.74434934872049e-02 2.63506232181930e-04
7.00085000000000e+00 1.72439052236048e-02 2.61025541602048e-04
7.02948333333333e+00 1.70466006465708e-02 2.58566041942900e-04
7.05811666666667e+00 1.68515536264643e-02 2.56127591810096e-04
7.08675000000000e+00 1.66587383323401e-02 2.53710050182944e-04
7.11538333333333e+00 1.64681292285470e-02 2.51313275900998e-04
7.14401666666667e+00 1.62797010721449e-02 2.48937127954426e-04
7.17265000000000e+00 1.60934289087541e-02 2.46581465764570e-04
7.20128333333333e+00 1.59092880692715e-02 2.44246148689749e-04
7.22991666666667e+00 1.57272541673656e-02 2.41931036302937e-04
7.25855000000000e+00 1.55473030954765e-02 2.39635988660042e-04
7.28718333333333e+00 1.53694110216426e-02 2.37360865824255e-04
7.31581666666667e+00 1.51935543870727e-02 2.35105528131621e-04
7.34445000000000e+00 1.50197099022899e-02 2.32869836447625e-04
7.37308333333333e+00 1.48478545440661e-02 2.30653651709349e-04
7.40171666666667e+00 1.46779655530679e-02 2.28456835179484e-04
7.43035000000000e+00 1.45100204301402e-02 2.26279248691789e-04
7.45898333333333e+00 1.43439969333439e-02 2.24120754210376e-04
7.48761666666667e+00 1.41798730756745e-02 2.21981214072693e-04
7.51625000000000e+00 1.40176271214790e-02 2.19860491224351e-04
7.54488333333333e+00 1.38572375835947e-02 2.17758448794898e-04
7.57351666666667e+00 1.36986832211370e-02 2.15674950330280e-04
7.60215000000000e+00 1.35419430360461e-02 2.13609860017520e-04
7.63078333333333e+00 1.33869962703222e-02 2.11563042276326e-04
7.65941666666667e+00 1.32338224038817e-02 2.09534361981535e-04
7.68805000000000e+00 1.30824011512278e-02 2.07523684678108e-04
7.71668333333333e+00 1.29327124587795e-02 2.05530876187986e-04
7.74531666666667e+00 1.27847365027940e-02 2.03555802822947e-04
7.77395000000000e+00 1.26384536861571e-02 2.01598331590335e-04
7.80258333333333e+00 1.24938446358022e-02 1.99658329814603e-04
7.83121666666667e+00 1.23508902006975e-02 1.97735665341033e-04
7.85985000000000e+00 1.22095714487510e-02 1.95830206732621e-04
7.88848333333333e+00 1.20698696643175e-02 1.93941822905734e-04
7.91711666666667e+00 1.19317663462479e-02 1.92070383325082e-04
7.94575000000000e+00 1.17952432049054e-02 1.90215758192175e-04
7.97438333333333e+00 1.16602821597564e-02 1.88377818094567e-04
8.00301666666667e+00 1.15268653374811e-02 1.86556434192480e-04
8.03165000000000e+00 1.13949750690962e-02 1.84751478399207e-04
8.06028333333333e+00 1.12645938876276e-02 1.82962823043399e-04
8.08891666666667e+00 1.11357045262796e-02 1.81190341047730e-04
8.11755000000000e+00 1.10082899156606e-02 1.79433906101613e-04
8.14618333333333e+00 1.08823331815350e-02 1.77693392336043e-04
8.17481666666667e+00 1.07578176430489e-02 1.75968674494639e-04
8.20345000000000e+00 1.06347268100558e-02 1.74259628099015e-04
8.23208333333333e+00 1.05130443809438e-02 1.72566129135710e-04
8.26071666666667e+00 1.03927542409174e-02 1.70888054219954e-04
8.28935000000000e+00 1.02738404594183e-02 1.69225280754022e-04
8.31798333333333e+00 1.01562872880266e-02 1.67577686625783e-04
8.34661666666667e+00 1.00400791587963e-02 1.65945150365509e-04
8.37525000000000e+00 9.92520068176783e-03 1.64327551297511e-04
8.40388333333333e+00 9.81163664294079e-03 1.62724769249883e-04
8.43251666666667e+00 9.69937200266144e-03 1.61136684704678e-04
8.46115000000000e+00 9.58839189322413e-03 1.59563178943105e-04
8.48978333333333e+00 9.47868161691234e-03 1.58004133766049e-04
8.51841666666667e+00 9.37022664443730e-03 1.56459431637883e-04
8.54705000000000e+00 9.26301261262465e-03 1.54928955825546e-04
8.57568333333333e+00 9.15702532252183e-03 1.53412590129411e-04
8.60431666666667e+00 9.05225073788600e-03 1.51910219021020e-04
8.63295000000000e+00 8.94867498295294e-03 1.50421727776295e-04
8.66158333333333e+00 8.84628434060860e-03 1.48947002216375e-04
8.69021666666667e+00 8.74506525092474e-03 1.47485928839549e-04
8.71885000000000e+00 8.64500430900719e-03 1.46038394948856e-04
8.74748333333333e+00 8.54608826322927e-03 1.44604288402507e-04
8.77611666666667e+00 8.44830401381384e-03 1.43183497740260e-04
8.80475000000000e+00 8.35163861075790e-03 1.41775912305659e-04
8.83338333333333e+00 8.25607925212593e-03 1.40381422005683e-04
8.86201666666667e+00 8.16161328267684e-03 1.38999917431826e-04
8.89065000000000e+00 8.06822819186222e-03 1.37631289977180e-04
8.91928333333333e+00 7.97591161217751e-03 1.36275431604984e-04
8.94791666666667e+00 7.88465131783251e-03 1.34932234964606e-04
8.97655000000000e+00 7.79443522282066e-03 1.33601593503735e-04
9.00518333333333e+00 7.70525137932600e-03 1.32283401245464e-04
9.03381666666667e+00 7.61708797643600e-03 1.30977552899416e-04
