Energy (eV)          EEDF (eV^-(3/2))     First Anisotropy
2.62307692307692e-02 3.62643367073377e-02 1.68872517195945e-05
7.86923076923077e-02 3.60721923875735e-02 2.79055903621620e-05
1.31153846153846e-01 3.58810661326948e-02 3.68913981418197e-05
1.83615384615385e-01 3.56909525489789e-02 4.37502538565647e-05
2.36076923076923e-01 3.55018462696735e-02 4.94973991111298e-05
2.88538461538462e-01 3.53137419585320e-02 5.45158059925464e-05
3.41000000000000e-01 3.51266343059744e-02 5.90032334877445e-05
3.93461538461538e-01 3.49405180318741e-02 6.30788499240261e-05
4.45923076923077e-01 3.47553878829568e-02 6.68215245981405e-05
4.98384615384615e-01 3.45712386347578e-02 7.02868847107365e-05
5.50846153846154e-01 3.43880650896315e-02 7.35160229396161e-05
6.03307692307692e-01 3.42058620782424e-02 7.65403858798883e-05
6.55769230769231e-01 3.40246244579472e-02 7.93847189358051e-05
7.08230769230769e-01 3.38443471139861e-02 8.20689398555776e-05
7.60692307692308e-01 3.36650249583602e-02 8.46093840282553e-05
8.13153846153846e-01 3.34866529298327e-02 8.70196619608330e-05
8.65615384615385e-01 3.33092259944346e-02 8.93112680476942e-05
9.18076923076923e-01 3.31327391444447e-02 9.14940235807664e-05
9.70538461538462e-01 3.29571873990743e-02 9.35764063339510e-05
1.02300000000000e+00 3.27825658035472e-02 9.55658004849196e-05
1.07546153846154e+00 3.26088694295295e-02 9.74686892101563e-05
1.12792307692308e+00 3.24360933746409e-02 9.92908054374774e-05
1.18038461538462e+00 3.22642327626531e-02 1.01037251101864e-04
1.23284615384615e+00 3.20932827445857e-02 1.02712593674702e-04
1.28530769230769e+00 3.19232384942646e-02 1.04320943426986e-04
1.33776923076923e+00 3.17540952125561e-02 1.05866016626617e-04
1.39023076923077e+00 3.15858481257518e-02 1.07351188731616e-04
1.44269230769231e+00 3.14184924854248e-02 1.08779537924501e-04
1.49515384615385e+00 3.12520235683173e-02 1.10153881815993e-04
1.54761538461538e+00 3.10864366761955e-02 1.11476808272689e-04
1.60007692307692e+00 3.09217271367655e-02 1.12750702300999e-04
1.65253846153846e+00 3.07578903003605e-02 1.13977768219654e-04
1.70500000000000e+00 3.05949215430297e-02 1.15160048672238e-04
1.75746153846154e+00 3.04328162653177e-02 1.16299441909986e-04
1.80992307692308e+00 3.02715698921387e-02 1.17397716143628e-04
1.86238461538462e+00 3.01111778726505e-02 1.18456522066801e-04
1.91484615384615e+00 2.99516356809643e-02 1.19477404431192e-04
1.96730769230769e+00 2.97929388134644e-02 1.20461811495390e-04
2.01976923076923e+00 2.96350827912618e-02 1.21411103327822e-04
2.07223076923077e+00 2.94780631591978e-02 1.22326559920698e-04
2.12469230769231e+00 2.93218754857145e-02 1.23209387813804e-04
2.17715384615385e+00 2.91665153627382e-02 1.24060726144773e-04
2.22961538461538e+00 2.90119784055508e-02 1.24881651923807e-04
2.28207692307692e+00 2.88582602533467e-02 1.25673185300373e-04
2.33453846153846e+00 2.87053565670480e-02 1.26436293648349e-04
2.38700000000000e+00 2.85532630312639e-02 1.27171895221010e-04
2.43946153846154e+00 2.84019753534662e-02 1.27880863128715e-04
2.49192307692308e+00 2.82514892638705e-02 1.28564028418466e-04
2.54438461538462e+00 2.81018005153168e-02 1.29222182875419e-04
2.59684615384615e+00 2.79529048837251e-02 1.29856082060763e-04
2.64930769230769e+00 2.78047981662302e-02 1.30466447487021e-04
2.70176923076923e+00 2.76574761828244e-02 1.31053968582857e-04
2.75423076923077e+00 2.75109347756476e-02 1.31619305105437e-04
2.80669230769231e+00 2.73651698088671e-02 1.32163088873389e-04
2.85915384615385e+00 2.72201771685659e-02 1.32685925477368e-04
2.91161538461538e+00 2.70759527626241e-02 1.33188395742790e-04
2.96407692307692e+00 2.69324925210908e-02 1.33671057519227e-04
3.01653846153846e+00 2.67897923945957e-02 1.34134446792711e-04
3.06900000000000e+00 2.66478483557198e-02 1.34579078695915e-04
3.12146153846154e+00 2.65066563983828e-02 1.35005448999085e-04
3.17392307692308e+00 2.63662125377297e-02 1.35414035057485e-04
3.22638461538462e+00 2.62265128100201e-02 1.35805296695831e-04
3.27884615384615e+00 2.60875532729404e-02 1.36179677437643e-04
3.33130769230769e+00 2.59493300042067e-02 1.36537605150882e-04
3.38376923076923e+00 2.58118391027500e-02 1.36879492634458e-04
3.43623076923077e+00 2.56750766881707e-02 1.37205738677890e-04
3.48869230769231e+00 2.55390389006277e-02 1.37516728648866e-04
3.54115384615385e+00 2.54037219007325e-02 1.37812835142491e-04
3.59361538461538e+00 2.52691218694392e-02 1.38094418495415e-04
3.64607692307692e+00 2.51352350083057e-02 1.38361827639977e-04
3.69853846153846e+00 2.50020575382718e-02 1.38615400448023e-04
3.75100000000000e+00 2.48695857006751e-02 1.38855464041095e-04
3.80346153846154e+00 2.47378157567681e-02 1.39082335551353e-04
3.85592307692308e+00 2.46067439876123e-02 1.39296322468412e-04
3.90838461538462e+00 2.44763666939745e-02 1.39497722970197e-04
3.96084615384615e+00 2.43466801965497e-02 1.39686826581299e-04
4.01330769230769e+00 2.42176808348660e-02 1.39863914367852e-04
4.06576923076923e+00 2.40893649681795e-02 1.40029259110605e-04
4.11823076923077e+00 2.39617289750364e-02 1.40183125905092e-04
4.17069230769231e+00 2.38347692531702e-02 1.40325772385038e-04
4.22315384615385e+00 2.37084822194015e-02 1.40457449019318e-04
4.27561538461539e+00 2.35828643095362e-02 1.40578399312915e-04
4.32807692307692e+00 2.34579119785541e-02 1.40688860316840e-04
4.38053846153846e+00 2.33336216996350e-02 1.40789062717914e-04
4.43300000000000e+00 2.32099899649389e-02 1.40879230914659e-04
4.48546153846154e+00 2.30870132852116e-02 1.40959583492523e-04
4.53792307692308e+00 2.29646881896863e-02 1.41030333357470e-04
4.59038461538462e+00 2.28430112259863e-02 1.41091687866858e-04
4.64284615384615e+00 2.27219789602881e-02 1.41143849253116e-04
4.69530769230769e+00 2.26015879764363e-02 1.41187014658118e-04
4.74776923076923e+00 2.24818348766404e-02 1.41221376157825e-04
4.80023076923077e+00 2.23627162811131e-02 1.41247121163073e-04
4.85269230769231e+00 2.22442288279736e-02 1.41264432503696e-04
4.90515384615385e+00 2.21263691731548e-02 1.41273488583038e-04
4.95761538461538e+00 2.20091339903078e-02 1.41274463455797e-04
5.01007692307692e+00 2.18925199709412e-02 1.41267527179974e-04
5.06253846153846e+00 2.17765238236239e-02 1.41252845810372e-04
5.11500000000000e+00 2.16611422746007e-02 1.41230581385235e-04
5.16746153846154e+00 2.15463720674617e-02 1.41200892263921e-04
5.21992307692308e+00 2.14322099630511e-02 1.41163933173101e-04
5.27238461538462e+00 2.13186527393757e-02 1.41119855254398e-04
5.32484615384615e+00 2.12056971917258e-02 1.41068806371018e-04
5.37730769230769e+00 2.10933401319447e-02 1.41010931079161e-04
5.42976923076923e+00 2.09815783889830e-02 1.40946370594238e-04
5.48223076923077e+00 2.08704088085926e-02 1.40875263087854e-04
5.53469230769231e+00 2.07598282532377e-02 1.40797743712174e-04
5.58715384615385e+00 2.06498336020068e-02 1.40713944688238e-04
5.63961538461538e+00 2.05404217505246e-02 1.40623995329844e-04
5.69207692307692e+00 2.04315896110553e-02 1.40528022309757e-04
5.74453846153846e+00 2.03233341118381e-02 1.40426149614600e-04
5.79700000000000e+00 2.02156521975815e-02 1.40318498495831e-04
5.84946153846154e+00 2.01085408291822e-02 1.40205187729935e-04
5.90192307692308e+00 2.00019969836393e-02 1.40086333625506e-04
5.95438461538462e+00 1.98960176539691e-02 1.39962050033054e-04
6.00684615384615e+00 1.97905998492960e-02 1.39832448584026e-04
6.05930769230769e+00 1.96857405942379e-02 1.39697638636968e-04
6.11176923076923e+00 1.95814369293555e-02 1.39557727220616e-04
6.16423076923077e+00 1.94776859108897e-02 1.39412819268880e-04
6.21669230769231e+00 1.93744846106784e-02 1.39263017617703e-04
6.26915384615385e+00 1.92718301160746e-02 1.39108423059342e-04
6.32161538461538e+00 1.91697195298636e-02 1.38949134340961e-04
6.37407692307692e+00 1.90681499703409e-02 1.38785248377988e-04
6.42653846153846e+00 1.89671185707499e-02 1.38616860194112e-04
6.47900000000000e+00 1.88666224796844e-02 1.38444062858768e-04
6.53146153846154e+00 1.87666588608463e-02 1.38266947698115e-04
6.58392307692308e+00 1.86672248929653e-02 1.38085604283825e-04
6.63638461538462e+00 1.85683177697194e-02 1.37900120424895e-04
6.68884615384615e+00 1.84699346998030e-02 1.37710582362911e-04
6.74130769230769e+00 1.83720729064042e-02 1.37517074709212e-04
6.79376923076923e+00 1.82747296275725e-02 1.37319680379916e-04
6.84623076923077e+00 1.81779021159917e-02 1.37118480789744e-04
6.89869230769231e+00 1.80815876389014e-02 1.36913555835969e-04
6.95115384615385e+00 1.79857834780210e-02 1.36704983933705e-04
7.00361538461538e+00 1.78904869294727e-02 1.36492842002406e-04
7.05607692307692e+00 1.77956953038390e-02 1.36277205643283e-04
7.10853846153846e+00 1.77014059256823e-02 1.36058149074933e-04
7.16100000000000e+00 1.76076161338761e-02 1.35835745067185e-04
7.21346153846154e+00 1.75143232813939e-02 1.35610065117891e-04
7.26592307692308e+00 1.74215247352342e-02 1.35381179433178e-04
7.31838461538462e+00 1.73292178763463e-02 1.35149156910683e-04
7.37084615384615e+00 1.72374000996808e-02 1.34914065304021e-04
7.42330769230769e+00 1.71460688137410e-02 1.34675971158222e-04
7.47576923076923e+00 1.70552214408866e-02 1.34434939743662e-04
7.52823076923077e+00 1.69648554171349e-02 1.34191035220296e-04
7.58069230769231e+00 1.68749681920880e-02 1.33944320615745e-04
7.63315384615385e+00 1.67855572288614e-02 1.33694857849333e-04
7.68561538461538e+00 1.66966200040121e-02 1.33442707712861e-04
7.73807692307692e+00 1.66081540075816e-02 1.33187930021849e-04
7.79053846153846e+00 1.65201567426805e-02 1.32930583551635e-04
7.84300000000000e+00 1.64326257257647e-02 1.32670725972121e-04
7.89546153846154e+00 1.63455584864486e-02 1.32408413999193e-04
7.94792307692308e+00 1.62589525674359e-02 1.32143703371309e-04
8.00038461538461e+00 1.61728055244504e-02 1.31876648828896e-04
8.05284615384615e+00 1.60871149262727e-02 1.31607304255699e-04
8.10530769230769e+00 1.60018783543517e-02 1.31335722615931e-04
8.15776923076923e+00 1.59170934030579e-02 1.31061955890298e-04
8.21023076923077e+00 1.58327576795081e-02 1.30786055217741e-04
8.26269230769231e+00 1.57488688034974e-02 1.30508070871216e-04
8.31515384615385e+00 1.56654244074326e-02 1.30228052274662e-04
8.36761538461539e+00 1.55824221362646e-02 1.29946047981445e-04
8.42007692307692e+00 1.54998596475209e-02 1.29662105805455e-04
8.47253846153846e+00 1.54177346109429e-02 1.29376272759904e-04
8.52500000000000e+00 1.53360447087183e-02 1.29088594995032e-04
8.57746153846154e+00 1.52547876353151e-02 1.28799117929806e-04
8.62992307692308e+00 1.51739610974172e-02 1.28507886227368e-04
8.68238461538462e+00 1.50935628138594e-02 1.28214943773009e-04
8.73484615384615e+00 1.50135905156546e-02 1.27920333797432e-04
8.78730769230769e+00 1.49340419456542e-02 1.27624098817187e-04
8.83976923076923e+00 1.48549148587609e-02 1.27326280574146e-04
8.89223076923077e+00 1.47762070217734e-02 1.27026920159436e-04
8.94469230769231e+00 1.46979162133223e-02 1.26726057988822e-04
8.99715384615385e+00 1.46200402238083e-02 1.26423733815056e-04
9.04961538461538e+00 1.45425768553396e-02 1.26119986705728e-04
9.10207692307692e+00 1.44655239217543e-02 1.25814855158233e-04
9.15453846153846e+00 1.43888792483036e-02 1.25508377042271e-04
9.20700000000000e+00 1.43126406718470e-02 1.25200589541427e-04
9.25946153846154e+00 1.42368060407053e-02 1.24891529268932e-04
9.31192307692308e+00 1.41613732145998e-02 1.24581232243289e-04
9.36438461538462e+00 1.40863400645918e-02 1.24269733866223e-04
9.41684615384615e+00 1.40117044731019e-02 1.23957069031208e-04
9.46930769230769e+00 1.39374643336116e-02 1.23643272067793e-04
9.52176923076923e+00 1.38636175508435e-02 1.23328376685171e-04
9.57423076923077e+00 1.37901620406218e-02 1.23012416081534e-04
9.62669230769231e+00 1.37170957298137e-02 1.22695422920032e-04
9.67915384615385e+00 1.36444165562705e-02 1.22377429337951e-04
9.73161538461538e+00 1.35721224687701e-02 1.22058466924981e-04
9.78407692307692e+00 1.35002114270316e-02 1.21738566824909e-04
9.83653846153846e+00 1.34286814014372e-02 1.21417759682106e-04
9.88900000000000e+00 1.33575303731971e-02 1.21096075587346e-04
9.94146153846154e+00 1.32867563342176e-02 1.20773544180347e-04
9.99392307692308e+00 1.32163572870449e-02 1.20450194478654e-04
1.00463846153846e+01 1.31463312451550e-02 1.20126055506293e-04
1.00988461538462e+01 1.30766762314411e-02 1.19801155357390e-04
1.01513076923077e+01 1.30073902807221e-02 1.19475521783313e-04
1.02037692307692e+01 1.29384714368616e-02 1.19149182135623e-04
1.02562307692308e+01 1.28699177554435e-02 1.18822163031079e-04
1.03086923076923e+01 1.28017273016701e-02 1.18494491527396e-04
1.03611538461538e+01 1.27338981503457e-02 1.18166193394351e-04
1.04136153846154e+01 1.26664283877862e-02 1.17837294266941e-04
1.04660769230769e+01 1.25993161091471e-02 1.17507819384662e-04
1.05185384615385e+01 1.25325594209649e-02 1.17177793297430e-04
1.05710000000000e+01 1.24661564391593e-02 1.16847240997351e-04
1.06234615384615e+01 1.24001052890149e-02 1.16516186254339e-04
1.06759230769231e+01 1.23344041069955e-02 1.16184652457769e-04
1.07283846153846e+01 1.22690510388108e-02 1.15852663436957e-04
1.07808461538462e+01 1.22040442393969e-02 1.15520241838149e-04
1.08333076923077e+01 1.21393818746723e-02 1.15187410205595e-04
1.08857692307692e+01 1.20750621190773e-02 1.14854190736636e-04
1.09382307692308e+01 1.20110831579106e-02 1.14520605005476e-04
1.09906923076923e+01 1.19474431854882e-02 1.14186675024676e-04
1.10431538461538e+01 1.18841404051243e-02 1.13852421682033e-04
1.10956153846154e+01 1.18211730308008e-02 1.13517865781712e-04
1.11480769230769e+01 1.17585392848245e-02 1.13183027807737e-04
1.12005384615385e+01 1.16962374000492e-02 1.12847927657355e-04
1.12530000000000e+01 1.16342656181236e-02 1.12512585663613e-04
1.13054615384615e+01 1.15726221894712e-02 1.12177021089508e-04
1.13579230769231e+01 1.15113053748778e-02 1.11841252888185e-04
1.14103846153846e+01 1.14503134437942e-02 1.11505300444682e-04
1.14628461538462e+01 1.13896446743150e-02 1.11169182106734e-04
1.15153076923077e+01 1.13292973547167e-02 1.10832916162238e-04
1.15677692307692e+01 1.12692697812959e-02 1.10496520616882e-04
1.16202307692308e+01 1.12095602604169e-02 1.10160012943477e-04
1.16726923076923e+01 1.11501671068930e-02 1.09823411042358e-04
1.17251538461538e+01 1.10910886439664e-02 1.09486731825469e-04
1.17776153846154e+01 1.10323232047720e-02 1.09149992158402e-04
1.18300769230769e+01 1.09738691302762e-02 1.08813208645623e-04
1.18825384615385e+01 1.09157247712274e-02 1.08476397388388e-04
1.19350000000000e+01 1.08578884866130e-02 1.08139574910532e-04
1.19874615384615e+01 1.08003586436383e-02 1.07802756793658e-04
1.20399230769231e+01 1.07431336191213e-02 1.07465958365209e-04
1.20923846153846e+01 1.06862117979960e-02 1.07129195370360e-04
1.21448461538462e+01 1.06295915732910e-02 1.06792482639789e-04
1.21973076923077e+01 1.05732713474818e-02 1.06455834975194e-04
1.22497692307692e+01 1.05172495305836e-02 1.06119266947171e-04
1.23022307692308e+01 1.04615245419532e-02 1.05782792667425e-04
1.23546923076923e+01 1.04060948088601e-02 1.05446426659325e-04
1.24071538461538e+01 1.03509587664659e-02 1.05110182573257e-04
1.24596153846154e+01 1.02961148591125e-02 1.04774074040587e-04
1.25120769230769e+01 1.02415615385024e-02 1.04438114478381e-04
1.25645384615385e+01 1.01872972654166e-02 1.04102316869334e-04
1.26170000000000e+01 1.01333205083506e-02 1.03766694601451e-04
1.26694615384615e+01 1.00796297434938e-02 1.03431260229113e-04
1.27219230769231e+01 1.00262234559578e-02 1.03096026096991e-04
1.27743846153846e+01 9.97310013845371e-03 1.02761004949732e-04
1.28268461538462e+01 9.92025829126965e-03 1.02426208722043e-04
1.28793076923077e+01 9.86769642346381e-03 1.02091649342308e-04
1.29317692307692e+01 9.81541305117698e-03 1.01757338548663e-04
1.29842307692308e+01 9.76340669922260e-03 1.01423287681770e-04
1.30366923076923e+01 9.71167589982195e-03 1.01089508475221e-04
1.30891538461538e+01 9.66021919258304e-03 1.00756011888267e-04
1.31416153846154e+01 9.60903512563832e-03 1.00422808881196e-04
1.31940769230769e+01 9.55812225403240e-03 1.00089910237575e-04
1.32465384615385e+01 9.50747914123999e-03 9.97573263639899e-05
1.32990000000000e+01 9.45710435795746e-03 9.94250680528183e-05
1.33514615384615e+01 9.40699648208123e-03 9.90931453559411e-05
1.34039230769231e+01 9.35715409979421e-03 9.87615681513952e-05
1.34563846153846e+01 9.30757580439193e-03 9.84303466974815e-05
1.35088461538462e+01 9.25826019626087e-03 9.80994905324270e-05
1.35613076923077e+01 9.20920588393317e-03 9.77690092047458e-05
1.36137692307692e+01 9.16041148258954e-03 9.74389121057137e-05
1.36662307692308e+01 9.11187561546641e-03 9.71092082806173e-05
1.37186923076923e+01 9.06359691273312e-03 9.67799071474601e-05
1.37711538461538e+01 9.01557401147078e-03 9.64510174349346e-05
1.38236153846154e+01 8.96780555667951e-03 9.61225478874611e-05
1.38760769230769e+01 8.92029019984654e-03 9.57945071032025e-05
1.39285384615385e+01 8.87302660029085e-03 9.54669033516411e-05
1.39810000000000e+01 8.82601342408929e-03 9.51397452674673e-05
1.40334615384615e+01 8.77924934405517e-03 9.48130408253520e-05
1.40859230769231e+01 8.73273304070106e-03 9.44867978553558e-05
1.41383846153846e+01 8.68646320119486e-03 9.41610245472111e-05
1.41908461538462e+01 8.64043851933845e-03 9.38357284483700e-05
1.42433076923077e+01 8.59465769650293e-03 9.35109171287058e-05
1.42957692307692e+01 8.54911944029679e-03 9.31865980277539e-05
1.43482307692308e+01 8.50382246581451e-03 9.28627782826322e-05
1.44006923076923e+01 8.45876549463714e-03 9.25394653824012e-05
1.44531538461538e+01 8.41394725481147e-03 9.22166662005979e-05
1.45056153846154e+01 8.36936648174398e-03 9.18943876371681e-05
1.45580769230769e+01 8.32502191692595e-03 9.15726364707331e-05
1.46105384615385e+01 8.28091230912748e-03 9.12514191922093e-05
1.46630000000000e+01 8.23703641344093e-03 9.09307426368316e-05
1.47154615384615e+01 8.19339299125992e-03 9.06106130498617e-05
1.47679230769231e+01 8.14998081113446e-03 9.02910365559686e-05
1.48203846153846e+01 8.10679864784051e-03 8.99720196187123e-05
1.48728461538462e+01 8.06384528235905e-03 8.96535681271571e-05
1.49253076923077e+01 8.02111950270729e-03 8.93356880015625e-05
1.49777692307692e+01 7.97862010275120e-03 8.90183850539371e-05
1.50302307692308e+01 7.93634588331585e-03 8.87016648310253e-05
1.50826923076923e+01 7.89429565129389e-03 8.83855332107758e-05
1.51351538461538e+01 7.85246821962515e-03 8.80699955200453e-05
1.51876153846154e+01 7.81086240809180e-03 8.77550571197747e-05
1.52400769230769e+01 7.76947704218071e-03 8.74407232700906e-05
1.52925384615385e+01 7.72831095414616e-03 8.71269989784559e-05
1.53450000000000e+01 7.68736298215582e-03 8.68138895759965e-05
1.53974615384615e+01 7.64663197027025e-03 8.65013998651276e-05
1.54499230769231e+01 7.60611676920421e-03 8.61895345475492e-05
1.55023846153846e+01 7.56581623549540e-03 8.58782986433814e-05
1.55548461538462e+01 7.52572923148421e-03 8.55676966576219e-05
1.56073076923077e+01 7.48585462605395e-03 8.52577331326866e-05
1.56597692307692e+01 7.44619129356991e-03 8.49484125210176e-05
1.57122307692308e+01 7.40673811486883e-03 8.46397390416553e-05
1.57646923076923e+01 7.36749397646188e-03 8.43317172245456e-05
1.58171538461538e+01 7.32845777051494e-03 8.40243511050884e-05
1.58696153846154e+01 7.28962839555723e-03 8.37176447581605e-05
1.59220769230769e+01 7.25100475546414e-03 8.34116021748325e-05
1.59745384615385e+01 7.21258576040497e-03 8.31062271236212e-05
1.60270000000000e+01 7.17437032607884e-03 8.28015236766178e-05
1.60794615384615e+01 7.13635737369499e-03 8.24974954310793e-05
1.61319230769231e+01 7.09854583065165e-03 8.21941459000648e-05
1.61843846153846e+01 7.06093462979214e-03 8.18914788951816e-05
1.62368461538462e+01 7.02352270938526e-03 8.15894977651901e-05
1.62893076923077e+01 6.98630901378579e-03 8.12882059005381e-05
1.63417692307692e+01 6.94929249248479e-03 8.09876066168978e-05
1.63942307692308e+01 6.91247210099300e-03 8.06877030240456e-05
1.64466923076923e+01 6.87584680012700e-03 8.03884985230398e-05
1.64991538461538e+01 6.83941555599017e-03 8.00899960702498e-05
1.65516153846154e+01 6.80317734060546e-03 7.97921986651439e-05
