Energy (eV)          EEDF (eV^-(3/2))     First Anisotropy
1.01960784313725e-04 2.15050709055967e+02 4.26051715917648e-02
3.05882352941176e-04 2.13599990386889e+02 7.03524598038110e-02
5.09803921568627e-04 2.12159058176465e+02 9.28711316454316e-02
7.13725490196078e-04 2.10727846404771e+02 1.09977476369092e-01
9.17647058823529e-04 2.09306289498341e+02 1.24243335327447e-01
1.12156862745098e-03 2.07894322326823e+02 1.36640898712111e-01
1.32549019607843e-03 2.06491880197492e+02 1.47673182520555e-01
1.52941176470588e-03 2.05098898855080e+02 1.57643888302586e-01
1.73333333333333e-03 2.03715314477732e+02 1.66754399838215e-01
1.93725490196078e-03 2.02341063674144e+02 1.75147025375443e-01
2.14117647058824e-03 2.00976083480641e+02 1.82927090035621e-01
2.34509803921569e-03 1.99620311359149e+02 1.90175347566141e-01
2.54901960784314e-03 1.98273685191681e+02 1.96955463455433e-01
2.75294117647059e-03 1.96936143280222e+02 2.03318779583630e-01
2.95686274509804e-03 1.95607624342963e+02 2.09307482374227e-01
3.16078431372549e-03 1.94288067511493e+02 2.14956787091727e-01
3.36470588235294e-03 1.92977412328014e+02 2.20296488998246e-01
3.56862745098039e-03 1.91675598742573e+02 2.25352093257926e-01
3.77254901960784e-03 1.90382567110311e+02 2.30145656245935e-01
3.97647058823529e-03 1.89098258189200e+02 2.34696423500652e-01
4.18039215686274e-03 1.87822613135886e+02 2.39021322336433e-01
4.38431372549020e-03 1.86555573504463e+02 2.43135347642803e-01
4.58823529411765e-03 1.85297081243298e+02 2.47051867415086e-01
4.79215686274510e-03 1.84047078692367e+02 2.50782868423139e-01
4.99607843137255e-03 1.82805508580620e+02 2.54339155453415e-01
5.20000000000000e-03 1.81572314023351e+02 2.57730514634223e-01
5.40392156862745e-03 1.80347438519926e+02 2.60965848110060e-01
5.60784313725490e-03 1.79130825950190e+02 2.64053286641765e-01
5.81176470588235e-03 1.77922420572911e+02 2.67000284193643e-01
6.01568627450980e-03 1.76722167022884e+02 2.69813697449565e-01
6.21960784313725e-03 1.75530010308393e+02 2.72499853784055e-01
6.42352941176471e-03 1.74345895808692e+02 2.75064609348668e-01
6.62745098039216e-03 1.73169769271507e+02 2.77513399124362e-01
6.83137254901961e-03 1.72001576810787e+02 2.79851279928895e-01
7.03529411764706e-03 1.70841264903498e+02 2.82082968122004e-01
7.23921568627451e-03 1.69688780387919e+02 2.84212872556021e-01
7.44313725490196e-03 1.68544070460957e+02 2.86245123091674e-01
7.64705882352941e-03 1.67407082675724e+02 2.88183595975270e-01
7.85098039215686e-03 1.66277764939134e+02 2.90031936190347e-01
8.05490196078431e-03 1.65156065509519e+02 2.91793577273274e-01
8.25882352941176e-03 1.64041932994258e+02 2.93471759003237e-01
8.46274509803922e-03 1.62935316347609e+02 2.95069542944889e-01
8.66666666666667e-03 1.61836164867798e+02 2.96589826649982e-01
8.87058823529412e-03 1.60744428195278e+02 2.98035356429071e-01
9.07450980392157e-03 1.59660056310222e+02 2.99408738532411e-01
9.27843137254902e-03 1.58582999530235e+02 3.00712449481161e-01
9.48235294117647e-03 1.57513208508075e+02 3.01948845354503e-01
9.68627450980392e-03 1.56450634229394e+02 3.03120170266573e-01
9.89019607843137e-03 1.55395228010646e+02 3.04228563855360e-01
1.00941176470588e-02 1.54346941496389e+02 3.05276068520737e-01
1.02980392156863e-02 1.53305726657970e+02 3.06264635275636e-01
1.05019607843137e-02 1.52271535789451e+02 3.07196130013574e-01
1.07058823529412e-02 1.51244321507580e+02 3.08072339749711e-01
1.09098039215686e-02 1.50224036750101e+02 3.08894975180271e-01
1.11137254901961e-02 1.49210634769535e+02 3.09665676493392e-01
1.13176470588235e-02 1.48204069135107e+02 3.10386019074989e-01
1.15215686274510e-02 1.47204293730513e+02 3.11057514318751e-01
1.17254901960784e-02 1.46211262748044e+02 3.11681614624122e-01
1.19294117647059e-02 1.45224930690261e+02 3.12259718145006e-01
1.21333333333333e-02 1.44245252367801e+02 3.12793168953026e-01
1.23372549019608e-02 1.43272182893830e+02 3.13283261250389e-01
1.25411764705882e-02 1.42305677685479e+02 3.13731242944805e-01
1.27450980392157e-02 1.41345692460634e+02 3.14138317114078e-01
1.29490196078431e-02 1.40392183236964e+02 3.14505643425774e-01
1.31529411764706e-02 1.39445106326709e+02 3.14834341116776e-01
1.33568627450980e-02 1.38504418337894e+02 3.15125492302172e-01
1.35607843137255e-02 1.37570076172253e+02 3.15380141224480e-01
1.37647058823529e-02 1.36642037020271e+02 3.15599297253720e-01
1.39686274509804e-02 1.35720258362218e+02 3.15783937782927e-01
1.41725490196078e-02 1.34804697966127e+02 3.15935007265646e-01
1.43764705882353e-02 1.33895313883068e+02 3.16053419859145e-01
1.45803921568627e-02 1.32992064448024e+02 3.16140061985260e-01
1.47843137254902e-02 1.32094908277919e+02 3.16195791217426e-01
1.49882352941176e-02 1.31203804267102e+02 3.16221438636211e-01
1.51921568627451e-02 1.30318711588089e+02 3.16217811114606e-01
1.53960784313725e-02 1.29439589689635e+02 3.16185690100334e-01
1.56000000000000e-02 1.28566398292412e+02 3.16125833735317e-01
1.58039215686275e-02 1.27699097389635e+02 3.16038978557525e-01
1.60078431372549e-02 1.26837647244405e+02 3.15925839629209e-01
1.62117647058824e-02 1.25982008388639e+02 3.15787110698280e-01
1.64156862745098e-02 1.25132141618985e+02 3.15623465699945e-01
1.66196078431373e-02 1.24288007997315e+02 3.15435560577882e-01
1.68235294117647e-02 1.23449568848891e+02 3.15224031920539e-01
1.70274509803922e-02 1.22616785758439e+02 3.14989498673038e-01
1.72313725490196e-02 1.21789620570549e+02 3.14732563807407e-01
1.74352941176471e-02 1.20968035387880e+02 3.14453812938829e-01
1.76392156862745e-02 1.20151992567393e+02 3.14153815900585e-01
1.78431372549020e-02 1.19341454720662e+02 3.13833128284288e-01
1.80470588235294e-02 1.18536384712121e+02 3.13492290048876e-01
1.82509803921569e-02 1.17736745655437e+02 3.13131826978778e-01
1.84549019607843e-02 1.16942500913753e+02 3.12752252110160e-01
1.86588235294118e-02 1.16153614097964e+02 3.12354064342734e-01
1.88627450980392e-02 1.15370049063233e+02 3.11937749797275e-01
1.90666666666667e-02 1.14591769909163e+02 3.11503782850999e-01
1.92705882352941e-02 1.13818740977536e+02 3.11052625920569e-01
1.94745098039216e-02 1.13050926851251e+02 3.10584729285235e-01
1.96784313725490e-02 1.12288292350989e+02 3.10100532033449e-01
1.98823529411765e-02 1.11530802535321e+02 3.09600463281278e-01
2.00862745098039e-02 1.10778422699066e+02 3.09084940804070e-01
2.02901960784314e-02 1.10031118370086e+02 3.08554372207313e-01
2.04941176470588e-02 1.09288855309329e+02 3.08009156071713e-01
2.06980392156863e-02 1.08551599509226e+02 3.07449680606941e-01
2.09019607843137e-02 1.07819317190602e+02 3.06876324753075e-01
2.11058823529412e-02 1.07091974802663e+02 3.06289459260140e-01
2.13098039215686e-02 1.06369539021433e+02 3.05689445366469e-01
2.15137254901961e-02 1.05651976746766e+02 3.05076635838712e-01
2.17176470588235e-02 1.04939255102294e+02 3.04451375991301e-01
2.19215686274510e-02 1.04231341433890e+02 3.03814002391340e-01
2.21254901960784e-02 1.03528203306789e+02 3.03164843844220e-01
2.23294117647059e-02 1.02829808505489e+02 3.02504222357895e-01
2.25333333333333e-02 1.02136125032252e+02 3.01832451875939e-01
2.27372549019608e-02 1.01447121104315e+02 3.01149839213691e-01
2.29411764705882e-02 1.00762765153760e+02 3.00456684739147e-01
2.31450980392157e-02 1.00083025825626e+02 2.99753282067054e-01
2.33490196078431e-02 9.94078719768808e+01 2.99039917786990e-01
2.35529411764706e-02 9.87372726737541e+01 2.98316872102340e-01
2.37568627450980e-02 9.80711971915676e+01 2.97584419690329e-01
2.39607843137255e-02 9.74096150133047e+01 2.96842828494931e-01
2.41647058823529e-02 9.67524958270232e+01 2.96092360564895e-01
2.43686274509804e-02 9.60998095256600e+01 2.95333272874122e-01
2.45725490196078e-02 9.54515262056290e+01 2.94565816144712e-01
2.47764705882353e-02 9.48076161643166e+01 2.93790235646696e-01
2.49803921568627e-02 9.41680498998598e+01 2.93006771981275e-01
2.51843137254902e-02 9.35327981097726e+01 2.92215659933869e-01
2.53882352941176e-02 9.29018316885209e+01 2.91417129239135e-01
2.55921568627451e-02 9.22751217272761e+01 2.90611405329137e-01
2.57960784313725e-02 9.16526395125703e+01 2.89798708216278e-01
2.60000000000000e-02 9.10343565239455e+01 2.88979253226306e-01
2.62039215686275e-02 9.04202444336871e+01 2.88153251517703e-01
2.64078431372549e-02 8.98102751051774e+01 2.87320909777903e-01
2.66117647058824e-02 8.92044205919312e+01 2.86482429947518e-01
2.68156862745098e-02 8.86026531353362e+01 2.85638009714809e-01
2.70196078431373e-02 8.80049451643654e+01 2.84787843195012e-01
2.72235294117647e-02 8.74112692942950e+01 2.83932119875121e-01
2.74274509803922e-02 8.68215983245130e+01 2.83071025281744e-01
2.76313725490196e-02 8.62359052382135e+01 2.82204741633533e-01
2.78352941176471e-02 8.56541632011425e+01 2.81333446814620e-01
2.80392156862745e-02 8.50763455594707e+01 2.80457315015837e-01
2.82431372549020e-02 8.45024258394733e+01 2.79576517361682e-01
2.84470588235294e-02 8.39323777463009e+01 2.78691220911719e-01
2.86509803921569e-02 8.33661751619152e+01 2.77801589277266e-01
2.88549019607843e-02 8.28037921447557e+01 2.76907783223869e-01
2.90588235294118e-02 8.22452029285352e+01 2.76009959700091e-01
2.92627450980392e-02 8.16903819202358e+01 2.75108272431397e-01
2.94666666666667e-02 8.11393036997636e+01 2.74202872333282e-01
2.96705882352941e-02 8.05919430185075e+01 2.73293907230841e-01
2.98745098039216e-02 8.00482747984411e+01 2.72381521601174e-01
3.00784313725490e-02 7.95082741301916e+01 2.71465856970652e-01
3.02823529411765e-02 7.89719162726850e+01 2.70547052467789e-01
3.04862745098039e-02 7.84391766519978e+01 2.69625243908609e-01
3.06901960784314e-02 7.79100308594812e+01 2.68700564343648e-01
3.08941176470588e-02 7.73844546513958e+01 2.67773144591154e-01
3.10980392156863e-02 7.68624239477884e+01 2.66843112347841e-01
3.13019607843137e-02 7.63439148306679e+01 2.65910592716052e-01
3.15058823529412e-02 7.58289035436327e+01 2.64975708718263e-01
3.17098039215686e-02 7.53173664907704e+01 2.64038580432465e-01
3.19137254901961e-02 7.48092802348844e+01 2.63099325500852e-01
3.21176470588235e-02 7.43046214971148e+01 2.62158059626175e-01
3.23215686274510e-02 7.38033671558601e+01 2.61214895731006e-01
3.25254901960784e-02 7.33054942450533e+01 2.60269944449301e-01
3.27294117647059e-02 7.28109799537768e+01 2.59323314605136e-01
3.29333333333333e-02 7.23198016252059e+01 2.58375112395344e-01
3.31372549019608e-02 7.18319367549323e+01 2.57425441864734e-01
3.33411764705882e-02 7.13473629905744e+01 2.56474405230725e-01
3.35450980392157e-02 7.08660581305384e+01 2.55522102637895e-01
3.37490196078431e-02 7.03880001232028e+01 2.54568631930603e-01
3.39529411764706e-02 6.99131670652997e+01 2.53614088967951e-01
3.41568627450980e-02 6.94415372015227e+01 2.52658568067216e-01
3.43607843137255e-02 6.89730889235193e+01 2.51702161234855e-01
3.45647058823529e-02 6.85078007683161e+01 2.50744958606962e-01
3.47686274509804e-02 6.80456514179230e+01 2.49787048878299e-01
3.49725490196078e-02 6.75866196983464e+01 2.48828518554566e-01
3.51764705882353e-02 6.71306845780565e+01 2.47869452378370e-01
3.53803921568627e-02 6.66778251675887e+01 2.46909933744176e-01
3.55843137254902e-02 6.62280207185772e+01 2.45950043971254e-01
3.57882352941176e-02 6.57812506222628e+01 2.44989862716062e-01
3.59921568627451e-02 6.53374944090926e+01 2.44029468373519e-01
3.61960784313725e-02 6.48967317477728e+01 2.43068937369958e-01
3.64000000000000e-02 6.44589424438164e+01 2.42108344562664e-01
3.66039215686274e-02 6.40241064391411e+01 2.41147763510279e-01
3.68078431372549e-02 6.35922038109753e+01 2.40187266255984e-01
3.70117647058824e-02 6.31632147711101e+01 2.39226923125538e-01
3.72156862745098e-02 6.27371196644954e+01 2.38266802991067e-01
3.74196078431373e-02 6.23138989688390e+01 2.37306973644271e-01
3.76235294117647e-02 6.18935332937037e+01 2.36347501131160e-01
3.78274509803922e-02 6.14760033791401e+01 2.35388450124122e-01
3.80313725490196e-02 6.10612900952852e+01 2.34429884283620e-01
3.82352941176471e-02 6.06493744414780e+01 2.33471865611179e-01
3.84392156862745e-02 6.02402375449275e+01 2.32514454809775e-01
3.86431372549020e-02 5.98338606603115e+01 2.31557711634408e-01
3.88470588235294e-02 5.94302251689099e+01 2.30601694262739e-01
3.90509803921569e-02 5.90293125773077e+01 2.29646459644455e-01
3.92549019607843e-02 5.86311045169933e+01 2.28692063840938e-01
3.94588235294118e-02 5.82355827435106e+01 2.27738561413043e-01
3.96627450980392e-02 5.78427291351937e+01 2.26786005760074e-01
3.98666666666667e-02 5.74525256927677e+01 2.25834449347535e-01
4.00705882352941e-02 5.70649545383798e+01 2.24883943516671e-01
4.02745098039216e-02 5.66799979149159e+01 2.23934538306295e-01
4.04784313725490e-02 5.62976381847773e+01 2.22986282675969e-01
4.06823529411765e-02 5.59178578294843e+01 2.22039224822774e-01
4.08862745098039e-02 5.55406394488671e+01 2.21093411605053e-01
4.10901960784314e-02 5.51659657598732e+01 2.20148888859210e-01
4.12941176470588e-02 5.47938195961721e+01 2.19205701707108e-01
4.14980392156863e-02 5.44241839073634e+01 2.18263893995416e-01
4.17019607843137e-02 5.40570417578134e+01 2.17323508602823e-01
4.19058823529412e-02 5.36923763262622e+01 2.16384587738432e-01
4.21098039215686e-02 5.33301709050479e+01 2.15447172396220e-01
4.23137254901961e-02 5.29704088989718e+01 2.14511302653141e-01
4.25176470588235e-02 5.26130738249084e+01 2.13577017958658e-01
4.27215686274510e-02 5.22581493110446e+01 2.12644356603885e-01
4.29254901960784e-02 5.19056190957734e+01 2.11713356011094e-01
4.31294117647059e-02 5.15554670273065e+01 2.10784053014530e-01
4.33333333333333e-02 5.12076770629285e+01 2.09856483343812e-01
4.35372549019608e-02 5.08622332679186e+01 2.08930681905222e-01
4.37411764705882e-02 5.05191198151653e+01 2.08006682969108e-01
4.39450980392157e-02 5.01783209843258e+01 2.07084520007258e-01
4.41490196078431e-02 4.98398211612146e+01 2.06164225540174e-01
4.43529411764706e-02 4.95036048367599e+01 2.05245831321519e-01
4.45568627450980e-02 4.91696566066228e+01 2.04329368601034e-01
4.47607843137255e-02 4.88379611704864e+01 2.03414867637922e-01
4.49647058823529e-02 4.85085033310376e+01 2.02502357964180e-01
4.51686274509804e-02 4.81812679935891e+01 2.01591868640062e-01
4.53725490196078e-02 4.78562401653835e+01 2.00683427780412e-01
4.55764705882353e-02 4.75334049545993e+01 1.99777062810438e-01
4.57803921568627e-02 4.72127475699767e+01 1.98872800713811e-01
4.59843137254902e-02 4.68942533201351e+01 1.97970667571596e-01
4.61882352941176e-02 4.65779076126038e+01 1.97070688810843e-01
4.63921568627451e-02 4.62636959534511e+01 1.96172889445500e-01
4.65960784313725e-02 4.59516039466150e+01 1.95277293627554e-01
4.68000000000000e-02 4.56416172929584e+01 1.94383924888709e-01
4.70039215686274e-02 4.53337217899004e+01 1.93492806300714e-01
4.72078431372549e-02 4.50279033306702e+01 1.92603960332967e-01
4.74117647058824e-02 4.47241479037513e+01 1.91717408718461e-01
4.76156862745098e-02 4.44224415919651e+01 1.90833172612038e-01
4.78196078431373e-02 4.41227705721094e+01 1.89951272816239e-01
4.80235294117647e-02 4.38251211143202e+01 1.89071729358322e-01
4.82274509803922e-02 4.35294795811779e+01 1.88194561716998e-01
4.84313725490196e-02 4.32358324273484e+01 1.87319789042035e-01
4.86352941176471e-02 4.29441661989591e+01 1.86447429742384e-01
4.88392156862745e-02 4.26544675327251e+01 1.85577501706526e-01
4.90431372549020e-02 4.23667231555954e+01 1.84710022516024e-01
4.92470588235294e-02 4.20809198841404e+01 1.83845009044424e-01
4.94509803921569e-02 4.17970446236999e+01 1.82982477671510e-01
4.96549019607843e-02 4.15150843680323e+01 1.82122444490874e-01
4.98588235294118e-02 4.12350261987149e+01 1.81264924919288e-01
5.00627450980392e-02 4.09568572843122e+01 1.80409933905167e-01
5.02666666666667e-02 4.06805648800287e+01 1.79557486066365e-01
5.04705882352941e-02 4.04061363270447e+01 1.78707595565491e-01
5.06745098039216e-02 4.01335590520126e+01 1.77860275992255e-01
5.08784313725490e-02 3.98628205662502e+01 1.77015540499873e-01
5.10823529411765e-02 3.95939084654001e+01 1.76173401999839e-01
5.12862745098039e-02 3.93268104288581e+01 1.75333872793573e-01
5.14901960784314e-02 3.90615142189855e+01 1.74496964768377e-01
5.16941176470588e-02 3.87980076807723e+01 1.73662689586938e-01
5.18980392156863e-02 3.85362787412771e+01 1.72831058328577e-01
5.21019607843137e-02 3.82763154088583e+01 1.72002081679742e-01
5.23058823529412e-02 3.80181057728409e+01 1.71175770118441e-01
5.25098039215686e-02 3.77616380029681e+01 1.70352133564763e-01
5.27137254901961e-02 3.75069003486503e+01 1.69531181566222e-01
5.29176470588235e-02 3.72538811386361e+01 1.68712923477099e-01
5.31215686274510e-02 3.70025687804750e+01 1.67897368118003e-01
5.33254901960784e-02 3.67529517597837e+01 1.67084523956290e-01
5.35294117647059e-02 3.65050186399216e+01 1.66274399280456e-01
5.37333333333333e-02 3.62587580614642e+01 1.65467001868512e-01
5.39372549019608e-02 3.60141587414864e+01 1.64662339163552e-01
5.41411764705882e-02 3.57712094732426e+01 1.63860418389265e-01
5.43450980392157e-02 3.55298991255869e+01 1.63061246443517e-01
5.45490196078431e-02 3.52902166425262e+01 1.62264829797666e-01
5.47529411764706e-02 3.50521510425249e+01 1.61471174611223e-01
5.49568627450980e-02 3.48156914181910e+01 1.60680286895864e-01
5.51607843137255e-02 3.45808269357738e+01 1.59892172202494e-01
5.53647058823529e-02 3.43475468344847e+01 1.59106835786404e-01
5.55686274509804e-02 3.41158404261879e+01 1.58324282766982e-01
5.57725490196078e-02 3.38856970949075e+01 1.57544517822806e-01
5.59764705882353e-02 3.36571062961647e+01 1.56767545352339e-01
5.61803921568627e-02 3.34300575566724e+01 1.55993369629408e-01
5.63843137254902e-02 3.32045404738519e+01 1.55221994506049e-01
5.65882352941176e-02 3.29805447151861e+01 1.54453423569009e-01
5.67921568627451e-02 3.27580600179176e+01 1.53687660291029e-01
5.69960784313725e-02 3.25370761885755e+01 1.52924707741235e-01
5.72000000000000e-02 3.23175831023435e+01 1.52164568737588e-01
5.74039215686275e-02 3.20995707027619e+01 1.51407245946864e-01
5.76078431372549e-02 3.18830290012111e+01 1.50652741791370e-01
5.78117647058824e-02 3.16679480765071e+01 1.49901058360559e-01
5.80156862745098e-02 3.14543180742876e+01 1.49152197510452e-01
5.82196078431373e-02 3.12421292067201e+01 1.48406161006010e-01
5.84235294117647e-02 3.10313717520519e+01 1.47662950247732e-01
5.86274509803922e-02 3.08220360540093e+01 1.46922566415212e-01
5.88313725490196e-02 3.06141125215113e+01 1.46185010605805e-01
5.90352941176471e-02 3.04075916282270e+01 1.45450283568167e-01
5.92392156862745e-02 3.02024639119901e+01 1.44718385841979e-01
5.94431372549020e-02 2.99987199745153e+01 1.43989317893024e-01
5.96470588235294e-02 2.97963504809660e+01 1.43263079853440e-01
5.98509803921569e-02 2.95953461593808e+01 1.42539671657815e-01
6.00549019607843e-02 2.93956978003952e+01 1.41819093174684e-01
6.02588235294118e-02 2.91973962568169e+01 1.41101343953334e-01
6.04627450980392e-02 2.90004324430665e+01 1.40386423356427e-01
6.06666666666667e-02 2.88047973349023e+01 1.39674330646764e-01
6.08705882352941e-02 2.86104819689595e+01 1.38965064905455e-01
6.10745098039216e-02 2.84174774423846e+01 1.38258624954268e-01
6.12784313725490e-02 2.82257749122919e+01 1.37555009442066e-01
6.14823529411765e-02 2.80353655954947e+01 1.36854216968634e-01
6.16862745098039e-02 2.78462407681005e+01 1.36156245845552e-01
6.18901960784314e-02 2.76583917649804e+01 1.35461094221168e-01
6.20941176470588e-02 2.74718099795035e+01 1.34768760201272e-01
6.22980392156863e-02 2.72864868631412e+01 1.34079241615980e-01
6.25019607843137e-02 2.71024139249479e+01 1.33392536141405e-01
6.27058823529412e-02 2.69195827312999e+01 1.32708641417254e-01
6.29098039215686e-02 2.67379849055069e+01 1.32027554819532e-01
6.31137254901961e-02 2.65576121273056e+01 1.31349273579092e-01
6.33176470588235e-02 2.63784561326013e+01 1.30673794896176e-01
6.35215686274510e-02 2.62005087130885e+01 1.30001115718780e-01
6.37254901960784e-02 2.60237617157546e+01 1.29331232858204e-01
6.39294117647059e-02 2.58482070426266e+01 1.28664143100598e-01
6.41333333333333e-02 2.56738366503986e+01 1.27999842990857e-01
6.43372549019608e-02 2.55006425499468e+01 1.27338328945246e-01
