Energy (eV)          EEDF (eV^-(3/2))     First Anisotropy
2.80555555555556e-02 2.24447396280472e-01 1.96937866649996e-04
8.41666666666667e-02 2.20169112237456e-01 3.23187497289712e-04
1.40277777777778e-01 2.15972378329996e-01 4.21344638001438e-04
1.96388888888889e-01 2.11855640092385e-01 4.92767382943867e-04
2.52500000000000e-01 2.07817372694043e-01 5.49784858686813e-04
3.08611111111111e-01 2.03856080355960e-01 5.97147822400409e-04
3.64722222222222e-01 1.99970295841730e-01 6.37359182726241e-04
4.20833333333333e-01 1.96158579864704e-01 6.71956594868021e-04
4.76944444444444e-01 1.92419520573480e-01 7.01976952852877e-04
5.33055555555556e-01 1.88751733028748e-01 7.28164978596420e-04
5.89166666666667e-01 1.85153858690112e-01 7.51080551940657e-04
6.45277777777778e-01 1.81624564913089e-01 7.71159439329762e-04
7.01388888888889e-01 1.78162544455313e-01 7.88750163663853e-04
7.57500000000000e-01 1.74766514992327e-01 8.04137645359804e-04
8.13611111111111e-01 1.71435218638450e-01 8.17559036841484e-04
8.69722222222222e-01 1.68167421493785e-01 8.29214716731565e-04
9.25833333333333e-01 1.64961913173717e-01 8.39276154807534e-04
9.81944444444445e-01 1.61817506365287e-01 8.47891682108428e-04
1.03805555555556e+00 1.58733036387412e-01 8.55190819539962e-04
1.09416666666667e+00 1.55707360762138e-01 8.61287587423872e-04
1.15027777777778e+00 1.52739358785758e-01 8.66283078149644e-04
1.20638888888889e+00 1.49827931116815e-01 8.70267485822864e-04
1.26250000000000e+00 1.46971999368899e-01 8.73321731380444e-04
1.31861111111111e+00 1.44170505689947e-01 8.75518771260719e-04
1.37472222222222e+00 1.41422412436010e-01 8.76924675329967e-04
1.43083333333333e+00 1.38726701719320e-01 8.77599517926265e-04
1.48694444444444e+00 1.36082375054525e-01 8.77598112417656e-04
1.54305555555556e+00 1.33488452988848e-01 8.76970634688273e-04
1.59916666666667e+00 1.30943974739200e-01 8.75763149482579e-04
1.65527777777778e+00 1.28447997836509e-01 8.74018059166776e-04
1.71138888888889e+00 1.25999597776511e-01 8.71774488812272e-04
1.76750000000000e+00 1.23597867677316e-01 8.69068619722839e-04
1.82361111111111e+00 1.21241917930642e-01 8.65933974426166e-04
1.87972222222222e+00 1.18930875911806e-01 8.62401670789405e-04
1.93583333333333e+00 1.16663885616002e-01 8.58500645142211e-04
1.99194444444444e+00 1.14440107355096e-01 8.54257842902293e-04
2.04805555555556e+00 1.12258717446610e-01 8.49698391741346e-04
2.10416666666667e+00 1.10118907908580e-01 8.44845754206503e-04
2.16027777777778e+00 1.08019886160384e-01 8.39721863756629e-04
2.21638888888889e+00 1.05960874729110e-01 8.34347246444941e-04
2.27250000000000e+00 1.03941110961586e-01 8.28741130957085e-04
2.32861111111111e+00 1.01959846733452e-01 8.22921544293515e-04
2.38472222222222e+00 1.00016348197930e-01 8.16905402287341e-04
2.44083333333333e+00 9.81098954875491e-02 8.10708591768596e-04
2.49694444444444e+00 9.62397824565355e-02 8.04346040747428e-04
2.55305555555556e+00 9.44053164192555e-02 7.97831785745916e-04
2.60916666666667e+00 9.26058178936225e-02 7.91179032359772e-04
2.66527777777778e+00 9.08406203494699e-02 7.84400210638815e-04
2.72138888888889e+00 8.91090699616409e-02 7.77507025839268e-04
2.77750000000000e+00 8.74105253678129e-02 7.70510505667370e-04
2.83361111111111e+00 8.57443574251157e-02 7.63421041160517e-04
2.88972222222222e+00 8.41099489949183e-02 7.56248427543100e-04
2.94583333333333e+00 8.25066946960500e-02 7.49001902087496e-04
3.00194444444444e+00 8.09340006867633e-02 7.41690175753729e-04
3.05805555555556e+00 7.93912844447756e-02 7.34321465160688e-04
3.11416666666667e+00 7.78779745514893e-02 7.26903521581322e-04
3.17027777777778e+00 7.63935104803708e-02 7.19443657886506e-04
3.22638888888889e+00 7.49373423893154e-02 7.11948773617752e-04
3.28250000000000e+00 7.35089309169873e-02 7.04425378844838e-04
3.33861111111111e+00 7.21077469788910e-02 6.96879614415607e-04
3.39472222222222e+00 7.07332715840874e-02 6.89317273343230e-04
3.45083333333333e+00 6.93849956300240e-02 6.81743820900975e-04
3.50694444444444e+00 6.80624197183631e-02 6.74164410807721e-04
3.56305555555556e+00 6.67650539700062e-02 6.66583902469776e-04
3.61916666666667e+00 6.54924178436342e-02 6.59006876633727e-04
3.67527777777778e+00 6.42440399577354e-02 6.51437650085736e-04
3.73138888888889e+00 6.30194579159963e-02 6.43880289468260e-04
3.78750000000000e+00 6.18182181360309e-02 6.36338624667766e-04
3.84361111111111e+00 6.06398756783466e-02 6.28816259844039e-04
3.89972222222222e+00 5.94839940907911e-02 6.21316585768650e-04
3.95583333333333e+00 5.83501452374662e-02 6.13842791529829e-04
4.01194444444444e+00 5.72379091433494e-02 6.06397873515894e-04
4.06805555555556e+00 5.61468738387360e-02 5.98984645531011e-04
4.12416666666667e+00 5.50766352066405e-02 5.91605747944286e-04
4.18027777777778e+00 5.40267968331246e-02 5.84263656342340e-04
4.23638888888889e+00 5.29969698604603e-02 5.76960689717622e-04
4.29250000000000e+00 5.19867728430971e-02 5.69699018529934e-04
4.34861111111111e+00 5.09958316041269e-02 5.62480671096966e-04
4.40472222222222e+00 5.00237791035563e-02 5.55307541193955e-04
4.46083333333333e+00 4.90702552953650e-02 5.48181395313310e-04
4.51694444444444e+00 4.81349069965185e-02 5.41103877920145e-04
4.57305555555556e+00 4.72173877561501e-02 5.34076517734970e-04
4.62916666666667e+00 4.63173577272325e-02 5.27100733375219e-04
4.68527777777778e+00 4.54344835407069e-02 5.20177838716169e-04
4.74138888888889e+00 4.45684381820003e-02 5.13309047987348e-04
4.79750000000000e+00 4.37189008698988e-02 5.06495480864991e-04
4.85361111111111e+00 4.28855569360386e-02 4.99738166323769e-04
4.90972222222222e+00 4.20680977135209e-02 4.93038047531872e-04
4.96583333333333e+00 4.12662204173241e-02 4.86395986551373e-04
5.02194444444444e+00 4.04796280339368e-02 4.79812767513777e-04
5.07805555555556e+00 3.97080292113447e-02 4.73289100676548e-04
5.13416666666667e+00 3.89511381511119e-02 4.66825626029094e-04
5.19027777777778e+00 3.82086745025274e-02 4.60422916730324e-04
5.24638888888889e+00 3.74803632587605e-02 4.54081482386555e-04
5.30250000000000e+00 3.67659346549995e-02 4.47801772374641e-04
5.35861111111111e+00 3.60651240672412e-02 4.41584178217194e-04
5.41472222222222e+00 3.53776719182089e-02 4.35429036833836e-04
5.47083333333333e+00 3.47033235772044e-02 4.29336633675707e-04
5.52694444444444e+00 3.40418292671503e-02 4.23307204676095e-04
5.58305555555556e+00 3.33929439720731e-02 4.17340938939035e-04
5.63916666666667e+00 3.27564273463482e-02 4.11437981098884e-04
5.69527777777778e+00 3.21320436256796e-02 4.05598433574243e-04
5.75138888888889e+00 3.15195615397722e-02 3.99822358721244e-04
5.80750000000000e+00 3.09187542266692e-02 3.94109781049231e-04
5.86361111111111e+00 3.03293991477322e-02 3.88460688698895e-04
5.91972222222222e+00 2.97512780082349e-02 3.82875035646960e-04
5.97583333333333e+00 2.91841766734351e-02 3.77352743838497e-04
6.03194444444444e+00 2.86278850903014e-02 3.71893704387775e-04
6.08805555555556e+00 2.80821972097098e-02 3.66497779390680e-04
6.14416666666667e+00 2.75469109101221e-02 3.61164803490360e-04
6.20027777777778e+00 2.70218279227236e-02 3.55894585374346e-04
6.25638888888889e+00 2.65067537579833e-02 3.50686909206257e-04
6.31250000000000e+00 2.60014976336151e-02 3.45541536122762e-04
6.36861111111111e+00 2.55058724031459e-02 3.40458205149441e-04
6.42472222222222e+00 2.50196944889346e-02 3.35436634715819e-04
6.48083333333333e+00 2.45427838117994e-02 3.30476524124560e-04
6.53694444444444e+00 2.40749637251219e-02 3.25577554280918e-04
6.59305555555556e+00 2.36160609494176e-02 3.20739388926407e-04
6.64916666666667e+00 2.31659055081528e-02 3.15961675683926e-04
6.70527777777778e+00 2.27243306647876e-02 3.11244047057365e-04
6.76138888888889e+00 2.22911728610158e-02 3.06586121387656e-04
6.81750000000000e+00 2.18662716561838e-02 3.01987503870670e-04
6.87361111111111e+00 2.14494696672656e-02 2.97447787113260e-04
6.92972222222222e+00 2.10406125123899e-02 2.92966552182088e-04
6.98583333333333e+00 2.06395487518067e-02 2.88543369623066e-04
7.04194444444444e+00 2.02461298324217e-02 2.84177799889323e-04
7.09805555555556e+00 1.98602100327722e-02 2.79869394183941e-04
7.15416666666667e+00 1.94816464090516e-02 2.75617695156607e-04
7.21027777777778e+00 1.91102987421650e-02 2.71422237569535e-04
7.26638888888889e+00 1.87460294857912e-02 2.67282548933978e-04
7.32250000000000e+00 1.83887037154361e-02 2.63198150202539e-04
7.37861111111111e+00 1.80381890779893e-02 2.59168556092009e-04
7.43472222222222e+00 1.76943557441260e-02 2.55193275811167e-04
7.49083333333333e+00 1.73570763587705e-02 2.51271813769605e-04
7.54694444444444e+00 1.70262259944145e-02 2.47403669811200e-04
7.60305555555556e+00 1.67016821048445e-02 2.43588339788466e-04
7.65916666666667e+00 1.63833244797505e-02 2.39825316022590e-04
7.71527777777778e+00 1.60710352002010e-02 2.36114087742511e-04
7.77138888888889e+00 1.57646985949658e-02 2.32454141503858e-04
7.82750000000000e+00 1.54642011976718e-02 2.28844961657001e-04
7.88361111111111e+00 1.51694317044069e-02 2.25286030518095e-04
7.93972222222222e+00 1.48802809336151e-02 2.21776828872784e-04
7.99583333333333e+00 1.45966417845164e-02 2.18316836467747e-04
8.05194444444444e+00 1.43184091978229e-02 2.14905532118631e-04
8.10805555555556e+00 1.40454801168252e-02 2.11542394098139e-04
8.16416666666667e+00 1.37777534492196e-02 2.08226900433950e-04
8.22027777777778e+00 1.35151300296652e-02 2.04958529192238e-04
8.27638888888889e+00 1.32575125830520e-02 2.01736758747381e-04
8.33250000000000e+00 1.30048056884714e-02 1.98561068094208e-04
8.38861111111111e+00 1.27569157435807e-02 1.95430936920474e-04
8.44472222222222e+00 1.25137509308199e-02 1.92345845952765e-04
8.50083333333333e+00 1.22752211825022e-02 1.89305277294715e-04
8.55694444444445e+00 1.20412381477581e-02 1.86308714454610e-04
8.61305555555556e+00 1.18117151598104e-02 1.83355642603338e-04
8.66916666666667e+00 1.15865672038727e-02 1.80445548760795e-04
8.72527777777778e+00 1.13657108856608e-02 1.77577921972360e-04
8.78138888888889e+00 1.11490644005033e-02 1.74752253475902e-04
8.83750000000000e+00 1.09365475030412e-02 1.71968036905252e-04
8.89361111111111e+00 1.07280814772747e-02 1.69224768299515e-04
8.94972222222222e+00 1.05235891081094e-02 1.66521946337267e-04
9.00583333333333e+00 1.03229946520429e-02 1.63859072565986e-04
9.06194444444444e+00 1.01262238093506e-02 1.61235651379327e-04
9.11805555555556e+00 9.93320369656576e-03 1.58651190183899e-04
9.17416666666667e+00 9.74386281948303e-03 1.56105199508965e-04
9.23027777777778e+00 9.55813104667782e-03 1.53597193109362e-04
9.28638888888889e+00 9.37593958352948e-03 1.51126688061932e-04
9.34250000000000e+00 9.19722094673993e-03 1.48693204893006e-04
9.39861111111111e+00 9.02190893915444e-03 1.46296267548268e-04
9.45472222222222e+00 8.84993862580134e-03 1.43935403547666e-04
9.51083333333333e+00 8.68124630927278e-03 1.41610144137552e-04
9.56694444444445e+00 8.51576950632338e-03 1.39320024237633e-04
9.62305555555556e+00 8.35344692472661e-03 1.37064582543910e-04
9.67916666666667e+00 8.19421844057215e-03 1.34843361585938e-04
9.73527777777778e+00 8.03802507599645e-03 1.32655907779479e-04
9.79138888888889e+00 7.88480897733724e-03 1.30501771474750e-04
9.84750000000000e+00 7.73451339370477e-03 1.28380507031014e-04
9.90361111111111e+00 7.58708265581482e-03 1.26291672762912e-04
9.95972222222222e+00 7.44246215581504e-03 1.24234831039190e-04
1.00158333333333e+01 7.30059832660547e-03 1.22209548408865e-04
1.00719444444444e+01 7.16143862201411e-03 1.20215395415069e-04
1.01280555555556e+01 7.02493149788294e-03 1.18251946771098e-04
1.01841666666667e+01 6.89102639227734e-03 1.16318781442273e-04
1.02402777777778e+01 6.75967370704607e-03 1.14415482511397e-04
1.02963888888889e+01 6.63082478944886e-03 1.12541637257652e-04
1.03525000000000e+01 6.50443191413562e-03 1.10696837421252e-04
1.04086111111111e+01 6.38044826429697e-03 1.08880678446898e-04
1.04647222222222e+01 6.25882791789179e-03 1.07092760006759e-04
1.05208333333333e+01 6.13952582701575e-03 1.05332686539889e-04
1.05769444444444e+01 6.02249780244137e-03 1.03600066446410e-04
1.06330555555556e+01 5.90770049725043e-03 1.01894512361539e-04
1.06891666666667e+01 5.79509139077746e-03 1.00215641153485e-04
1.07452777777778e+01 5.68462877286202e-03 9.85630739197227e-05
1.08013888888889e+01 5.57627172839844e-03 9.69364359817344e-05
1.08575000000000e+01 5.46998012218083e-03 9.53353570842467e-05
1.09136111111111e+01 5.36571458309729e-03 9.37594707563494e-05
1.09697222222222e+01 5.26343649240826e-03 9.22084147237446e-05
1.10258333333333e+01 5.16310796653809e-03 9.06818313350246e-05
1.10819444444444e+01 5.06469184402572e-03 8.91793668837021e-05
1.11380555555556e+01 4.96815167176015e-03 8.77006718173548e-05
1.11941666666667e+01 4.87345169147760e-03 8.62454007204692e-05
1.12502777777778e+01 4.78055682651815e-03 8.48132122963257e-05
1.13063888888889e+01 4.68943266883268e-03 8.34037693480059e-05
1.13625000000000e+01 4.60004546623819e-03 8.20167389279163e-05
1.14186111111111e+01 4.51236210916064e-03 8.06517917986570e-05
1.14747222222222e+01 4.42635012067081e-03 7.93086027583264e-05
1.15308333333333e+01 4.34197764212115e-03 7.79868509777543e-05
1.15869444444444e+01 4.25921342213508e-03 7.66862194302940e-05
1.16430555555556e+01 4.17802680503146e-03 7.54063950511727e-05
1.16991666666667e+01 4.09838771946931e-03 7.41470687111416e-05
1.17552777777778e+01 4.02026666731053e-03 7.29079351896467e-05
1.18113888888889e+01 3.94363471269329e-03 7.16886931475531e-05
1.18675000000000e+01 3.86846347131422e-03 7.04890452388516e-05
1.19236111111111e+01 3.79472509930667e-03 6.93086976559612e-05
1.19797222222222e+01 3.72239228477892e-03 6.81473603865951e-05
1.20358333333333e+01 3.65143823581903e-03 6.70047474807558e-05
1.20919444444444e+01 3.58183667120683e-03 6.58805765712729e-05
1.21480555555556e+01 3.51356181067937e-03 6.47745689948928e-05
1.22041666666667e+01 3.44658836538160e-03 6.36864497608335e-05
1.22602777777778e+01 3.38089152850029e-03 6.26159475191742e-05
1.23163888888889e+01 3.31644696607515e-03 6.15627945290916e-05
1.23725000000000e+01 3.25323080798561e-03 6.05267267418164e-05
1.24286111111111e+01 3.19121963861865e-03 5.95074834172836e-05
1.24847222222222e+01 3.13039048968929e-03 5.85048073270460e-05
1.25408333333333e+01 3.07072083021766e-03 5.75184449657730e-05
1.25969444444444e+01 3.01218855869625e-03 5.65481461481373e-05
1.26530555555556e+01 2.95477199490355e-03 5.55936641005083e-05
1.27091666666667e+01 2.89844987187342e-03 5.46547554272274e-05
1.27652777777778e+01 2.84320132801855e-03 5.37311800769131e-05
1.28213888888889e+01 2.78900589940297e-03 5.28227013088288e-05
1.28775000000000e+01 2.73584351216230e-03 5.19290857540004e-05
1.29336111111111e+01 2.68369447467186e-03 5.10501030921071e-05
1.29897222222222e+01 2.63253947145981e-03 5.01855262117991e-05
1.30458333333333e+01 2.58235955482823e-03 4.93351313782770e-05
1.31019444444444e+01 2.53313613824910e-03 4.84986978943915e-05
1.31580555555556e+01 2.48485098947995e-03 4.76760081697593e-05
1.32141666666667e+01 2.43748622381038e-03 4.68668476866580e-05
1.32702777777778e+01 2.39102429743815e-03 4.60710049660851e-05
1.33263888888889e+01 2.34544800097070e-03 4.52882715340044e-05
1.33825000000000e+01 2.30074045305083e-03 4.45184419659130e-05
1.34386111111111e+01 2.25688509378296e-03 4.37613136145632e-05
1.34947222222222e+01 2.21386567957606e-03 4.30166867366076e-05
1.35508333333333e+01 2.17166627613613e-03 4.22843646253843e-05
1.36069444444444e+01 2.13027125289938e-03 4.15641533260106e-05
1.36630555555556e+01 2.08966527724266e-03 4.08558616871687e-05
1.37191666666667e+01 2.04983330880413e-03 4.01593013278746e-05
1.37752777777778e+01 2.01076059391270e-03 3.94742866044962e-05
1.38313888888889e+01 1.97243266012313e-03 3.88006345780284e-05
1.38875000000000e+01 1.93483531085548e-03 3.81381650461483e-05
1.39436111111111e+01 1.89795461987657e-03 3.74867003138036e-05
1.39997222222222e+01 1.86177692693329e-03 3.68460652932263e-05
1.40558333333333e+01 1.82628883188984e-03 3.62160876091279e-05
1.41119444444444e+01 1.79147719003600e-03 3.55965973591749e-05
1.41680555555556e+01 1.75732910721831e-03 3.49874271525072e-05
1.42241666666667e+01 1.72383193506394e-03 3.43884120781676e-05
1.42802777777778e+01 1.69097326629611e-03 3.37993896738284e-05
1.43363888888889e+01 1.65874093013828e-03 3.32201998948236e-05
1.43925000000000e+01 1.62712298780613e-03 3.26506851367826e-05
1.44486111111111e+01 1.59610772787437e-03 3.20906900423538e-05
1.45047222222222e+01 1.56568366258114e-03 3.15400615801395e-05
1.45608333333333e+01 1.53583952292143e-03 3.09986491280052e-05
1.46169444444444e+01 1.50656425469338e-03 3.04663042716981e-05
1.46730555555556e+01 1.47784701440386e-03 2.99428808332219e-05
1.47291666666667e+01 1.44967716525195e-03 2.94282348413967e-05
1.47852777777778e+01 1.42204427318929e-03 2.89222245027364e-05
1.48413888888889e+01 1.39493810305527e-03 2.84247101726458e-05
1.48975000000000e+01 1.36834861478589e-03 2.79355543710014e-05
1.49536111111111e+01 1.34226595952349e-03 2.74546216193283e-05
1.50097222222222e+01 1.31668047649054e-03 2.69817785030478e-05
1.50658333333333e+01 1.29158268888201e-03 2.65168937374148e-05
1.51219444444444e+01 1.26696330053416e-03 2.60598379981942e-05
1.51780555555556e+01 1.24281319248129e-03 2.56104839423103e-05
1.52341666666667e+01 1.21912341957798e-03 2.51687061807721e-05
1.52902777777778e+01 1.19588520718602e-03 2.47343812519180e-05
1.53463888888889e+01 1.17308994792423e-03 2.43073875949836e-05
1.54025000000000e+01 1.15072919848028e-03 2.38876055604342e-05
1.54586111111111e+01 1.12879467634379e-03 2.34749172728034e-05
1.55147222222222e+01 1.10727825716300e-03 2.30692066797275e-05
1.55708333333333e+01 1.08617197130496e-03 2.26703596040918e-05
1.56269444444444e+01 1.06546800104920e-03 2.22782636016519e-05
1.56830555555556e+01 1.04515867769203e-03 2.18928079758209e-05
1.57391666666667e+01 1.02523647870604e-03 2.15138837530389e-05
1.57952777777778e+01 1.00569402495391e-03 2.11413836584529e-05
1.58513888888889e+01 9.86524077955111e-04 2.07752020919101e-05
1.59075000000000e+01 9.67719537204765e-04 2.04152351344239e-05
1.59636111111111e+01 9.49273437430073e-04 2.00613804326277e-05
1.60197222222222e+01 9.31178946356001e-04 1.97135372373503e-05
1.60758333333333e+01 9.13429361824053e-04 1.93716064448150e-05
1.61319444444444e+01 8.96018109428348e-04 1.90354904769087e-05
1.61880555555556e+01 8.78938740080474e-04 1.87050932915428e-05
1.62441666666667e+01 8.62184927620708e-04 1.83803203604397e-05
1.63002777777778e+01 8.45750466474931e-04 1.80610786472140e-05
1.63563888888889e+01 8.29629269356044e-04 1.77472765857488e-05
1.64125000000000e+01 8.13815365009242e-04 1.74388240838437e-05
1.64686111111111e+01 7.98302895907679e-04 1.71356324258777e-05
1.65247222222222e+01 7.83086116364577e-04 1.68376143031082e-05
1.65808333333333e+01 7.68159390119293e-04 1.65446838461794e-05
1.66369444444444e+01 7.53517188346282e-04 1.62567565244286e-05
1.66930555555556e+01 7.39154087607227e-04 1.59737491529279e-05
1.67491666666667e+01 7.25064767842169e-04 1.56955798725898e-05
1.68052777777778e+01 7.11244010399058e-04 1.54221681305505e-05
1.68613888888889e+01 6.97686696100732e-04 1.51534346608271e-05
1.69175000000000e+01 6.84387803348779e-04 1.48893014859376e-05
1.69736111111111e+01 6.71342406187999e-04 1.46296918349046e-05
1.70297222222222e+01 6.58545672711693e-04 1.43745301670066e-05
1.70858333333333e+01 6.45992863038814e-04 1.41237421973930e-05
1.71419444444444e+01 6.33679327637148e-04 1.38772548123911e-05
1.71980555555556e+01 6.21600505601138e-04 1.36349960740785e-05
1.72541666666667e+01 6.09751922962497e-04 1.33968952025719e-05
1.73102777777778e+01 5.98129191033135e-04 1.31628825585696e-05
1.73663888888889e+01 5.86728004779563e-04 1.29328896261464e-05
1.74225000000000e+01 5.75544141228312e-04 1.27068490129467e-05
1.74786111111111e+01 5.64573457840059e-04 1.24846943811079e-05
1.75347222222222e+01 5.53811891162935e-04 1.22663604658389e-05
1.75908333333333e+01 5.43255455137074e-04 1.20517830955676e-05
1.76469444444444e+01 5.32900239682544e-04 1.18408991207003e-05
1.77030555555556e+01 5.22742409251064e-04 1.16336464163737e-05
