Energy (eV)          EEDF (eV^-(3/2))     First Anisotropy
6.52500000000000e-01 4.96748948581178e-02 1.21611293912441e-04
1.95750000000000e+00 4.17877616815330e-02 1.85496224402475e-04
3.26250000000000e+00 3.51529083522003e-02 2.07390246430381e-04
4.56750000000000e+00 2.95715040933694e-02 2.07999907936749e-04
5.87250000000000e+00 2.48762874918549e-02 1.99014306241512e-04
7.17750000000000e+00 2.09265540712274e-02 1.85371817367834e-04
8.48250000000000e+00 1.76039397132465e-02 1.69674444233980e-04
9.78750000000000e+00 1.48088735667049e-02 1.53406493073081e-04
1.10925000000000e+01 1.24575941457940e-02 1.37434481450561e-04
1.23975000000000e+01 1.04796391975579e-02 1.22256786187532e-04
1.37025000000000e+01 8.81573411572990e-03 1.08143404467704e-04
1.50075000000000e+01 7.41601562173575e-03 9.52199683530473e-05
1.63125000000000e+01 6.23853748080913e-03 8.35206084245016e-05
1.76175000000000e+01 5.24801347308261e-03 7.30222001266971e-05
1.89225000000000e+01 4.41475994948811e-03 6.36669399015564e-05
2.02275000000000e+01 3.71380628338137e-03 5.53773522982995e-05
2.15325000000000e+01 3.12414656024098e-03 4.80662679986876e-05
2.28375000000000e+01 2.62811008036180e-03 4.16434044820435e-05
2.41425000000000e+01 2.21083181000527e-03 3.60196273782834e-05
2.54475000000000e+01 1.85980691168701e-03 3.11096200744504e-05
2.67525000000000e+01 1.56451600393362e-03 2.68334604665745e-05
2.80575000000000e+01 1.31610992043476e-03 2.31174508842070e-05
2.93625000000000e+01 1.10714452157199e-03 1.98944430298562e-05
3.06675000000000e+01 9.31357611256315e-04 1.71038276746251e-05
3.19725000000000e+01 7.83481273802853e-04 1.46913083602742e-05
3.32775000000000e+01 6.59084007024675e-04 1.26085426852258e-05
3.45825000000000e+01 5.54437920650299e-04 1.08127093913875e-05
3.58875000000000e+01 4.66407020317091e-04 9.26604137043617e-06
3.71925000000000e+01 3.92353229277536e-04 7.93535177361577e-06
3.84975000000000e+01 3.30057331512405e-04 6.79157117310283e-06
3.98025000000000e+01 2.77652467103899e-04 5.80930715063929e-06
4.11075000000000e+01 2.33568186883266e-04 4.96643304205035e-06
4.24125000000000e+01 1.96483389803707e-04 4.24370931337017e-06
4.37175000000000e+01 1.65286732683549e-04 3.62443880114769e-06
4.50225000000000e+01 1.39043325893838e-04 3.09415553641329e-06
4.63275000000000e+01 1.16966716939310e-04 2.64034588456694e-06
4.76325000000000e+01 9.83953223472700e-05 2.25220012270160e-06
4.89375000000000e+01 8.27726015841466e-05 1.92039223220049e-06
5.02425000000000e+01 6.96303788591425e-05 1.63688552777606e-06
5.15475000000000e+01 5.85748130090952e-05 1.39476171597005e-06
5.28525000000000e+01 4.92745950153619e-05 1.18807103395422e-06
5.41575000000000e+01 4.14510194603767e-05 1.01170123246698e-06
5.54625000000000e+01 3.48696323890407e-05 8.61263312795082e-07
5.67675000000000e+01 2.93332052812142e-05 7.32992091178068e-07
5.80725000000000e+01 2.46758245819731e-05 6.23659833922424e-07
5.93775000000000e+01 2.07579196669060e-05 5.30501375376520e-07
6.06825000000000e+01 1.74620802423968e-05 4.51149293785928e-07
6.19875000000000e+01 1.46895378383240e-05 3.83577873807971e-07
6.32925000000000e+01 1.23572059518800e-05 3.26054727320336e-07
6.45975000000000e+01 1.03951901426601e-05 2.77099075251814e-07
6.59025000000000e+01 8.74469346249088e-06 2.35445812285013e-07
6.72075000000000e+01 7.35625445071101e-06 2.00014583663185e-07
6.85125000000000e+01 6.18826489181374e-06 1.69883199496048e-07
6.98175000000000e+01 5.20572291617146e-06 1.44264797599191e-07
7.11225000000000e+01 4.37918407723654e-06 1.22488241811623e-07
7.24275000000000e+01 3.68387897149661e-06 1.03981309750212e-07
7.37325000000000e+01 3.09897095835232e-06 8.82562829134963e-08
7.50375000000000e+01 2.60693173554763e-06 7.48976037513326e-08
7.63425000000000e+01 2.19301605763314e-06 6.35513095402843e-08
7.76475000000000e+01 1.84481985602378e-06 5.39159923650383e-08
7.89525000000000e+01 1.55190851855993e-06 4.57350688644399e-08
8.02575000000000e+01 1.30550418899429e-06 3.87901732592152e-08
8.15625000000000e+01 1.09822271551364e-06 3.28955130816373e-08
8.28675000000000e+01 9.23852365268378e-07 2.78930494640610e-08
8.41725000000000e+01 7.77167673510371e-07 2.36483832496426e-08
8.54775000000000e+01 6.53772848840480e-07 2.00472449521405e-08
8.67825000000000e+01 5.49970041793424e-07 1.69925010551202e-08
8.80875000000000e+01 4.62648529082710e-07 1.44016016061245e-08
8.93925000000000e+01 3.89191492620961e-07 1.22044047936327e-08
9.06975000000000e+01 3.27397599704575e-07 1.03413234262404e-08
9.20025000000000e+01 2.75415034307315e-07 8.76174616740357e-09
9.33075000000000e+01 2.31686002557579e-07 7.42269319225451e-09
9.46125000000000e+01 1.94900049360468e-07 6.28767177935262e-09
9.59175000000000e+01 1.63954787174820e-07 5.32570236346732e-09
9.72225000000000e+01 1.37922860080060e-07 4.51048987152188e-09
9.85275000000000e+01 1.16024153124486e-07 3.81971884300316e-09
9.98325000000000e+01 9.76024141352646e-08 3.23445398522698e-09
1.01137500000000e+02 8.21055874013637e-08 2.73863050775949e-09
1.02442500000000e+02 6.90692698766687e-08 2.31862088364889e-09
1.03747500000000e+02 5.81027941250300e-08 1.96286665359646e-09
1.05052500000000e+02 4.88775209462001e-08 1.66156557071245e-09
1.06357500000000e+02 4.11169908404985e-08 1.40640581927771e-09
1.07662500000000e+02 3.45886391750209e-08 1.19034026637832e-09
1.08967500000000e+02 2.90968267746240e-08 1.00739475080644e-09
1.10272500000000e+02 2.44769770810726e-08 8.52505305313986e-10
1.11577500000000e+02 2.05906441849481e-08 7.21379968535833e-10
1.12882500000000e+02 1.73213639309646e-08 6.10381490831219e-10
1.14187500000000e+02 1.45711637641839e-08 5.16427790340641e-10
1.15492500000000e+02 1.22576267255210e-08 4.36907485766338e-10
1.16797500000000e+02 1.03114216114653e-08 3.69608232774739e-10
1.18102500000000e+02 8.67422528277999e-09 3.12655931761853e-10
1.19407500000000e+02 7.29697485870984e-09 2.64463164797197e-10
1.20712500000000e+02 6.13839741911555e-09 2.23685466367828e-10
1.22017500000000e+02 5.16377315320317e-09 1.89184242484514e-10
1.23322500000000e+02 4.34389488935759e-09 1.59995331252103e-10
1.24627500000000e+02 3.65419282566314e-09 1.35302349808362e-10
1.25932500000000e+02 3.07399823136667e-09 1.14414101576387e-10
1.27237500000000e+02 2.58592405416663e-09 9.67454274453887e-11
1.28542500000000e+02 2.17534387160158e-09 8.18009776826691e-11
1.29847500000000e+02 1.82995357195035e-09 6.91614605476319e-11
1.31152500000000e+02 1.53940262926264e-09 5.84719908237253e-11
1.32457500000000e+02 1.29498392270961e-09 4.94322185916821e-11
1.33762500000000e+02 1.08937280487797e-09 4.17879670573511e-11
1.35067500000000e+02 9.16407599504860e-10 3.53241494133597e-11
1.36372500000000e+02 7.70904950692553e-10 2.98587696564457e-11
1.37677500000000e+02 6.48504490058123e-10 2.52378419378017e-11
1.38982500000000e+02 5.45538166861857e-10 2.13310881884019e-11
1.40287500000000e+02 4.58920325249131e-10 1.80282951120219e-11
1.41592500000000e+02 3.86055234482062e-10 1.52362297510012e-11
1.42897500000000e+02 3.24759301061882e-10 1.28760281928532e-11
1.44202500000000e+02 2.73195631624321e-10 1.08809850151915e-11
1.45507500000000e+02 2.29818985613564e-10 9.19468211521098e-12
1.46812500000000e+02 1.93329468097342e-10 7.76940493805131e-12
1.48117500000000e+02 1.62633575006935e-10 6.56480206047963e-12
1.49422500000000e+02 1.36811423420556e-10 5.54675081873931e-12
1.50727500000000e+02 1.15089184859649e-10 4.68639737573114e-12
1.52032500000000e+02 9.68158954895301e-11 3.95934445877967e-12
1.53337500000000e+02 8.14439482812427e-11 3.34496409736716e-12
1.54642500000000e+02 6.85126825310937e-11 2.82581616264013e-12
1.55947500000000e+02 5.76345789548063e-11 2.38715645244392e-12
1.57252500000000e+02 4.84836466560809e-11 2.01652055791617e-12
1.58557500000000e+02 4.07856539546331e-11 1.70337185879940e-12
1.59862500000000e+02 3.43099103148513e-11 1.43880378274073e-12
1.61167500000000e+02 2.88623530990219e-11 1.21528797822024e-12
1.62472500000000e+02 2.42797319715533e-11 1.02646133318151e-12
1.63777500000000e+02 2.04247166746236e-11 8.66945857358188e-13
1.65082500000000e+02 1.71817815669222e-11 7.32196365735556e-13
1.66387500000000e+02 1.44537435948971e-11 6.18371679012567e-13
1.67692500000000e+02 1.21588499477386e-11 5.22225715914536e-13
1.68997500000000e+02 1.02283281200462e-11 4.41015410032896e-13
1.70302500000000e+02 8.60432496338070e-12 3.72422856029174e-13
1.71607500000000e+02 7.23817296497935e-12 3.14489489661554e-13
1.72912500000000e+02 6.08893179812831e-12 2.65560444294089e-13
1.74217500000000e+02 5.12216143792632e-12 2.24237512750487e-13
1.75522500000000e+02 4.30889007563598e-12 1.89339385554800e-13
1.76827500000000e+02 3.62474590247019e-12 1.59868041517648e-13
1.78132500000000e+02 3.04922674443840e-12 1.34980340001025e-13
1.79437500000000e+02 2.56508566094582e-12 1.13964010873087e-13
1.80742500000000e+02 2.15781409499663e-12 9.62173622492265e-14
1.82047500000000e+02 1.81520708624181e-12 8.12321310811085e-14
1.83352500000000e+02 1.52699751734064e-12 6.85789904416003e-14
1.84657500000000e+02 1.28454843286892e-12 5.78953024502463e-14
1.85962500000000e+02 1.08059421030342e-12 4.88747692980427e-14
1.87267500000000e+02 9.09022826592349e-13 4.12586885452289e-14
1.88572500000000e+02 7.64692695358712e-13 3.48285642909324e-14
1.89877500000000e+02 6.43278585783199e-13 2.93998642260778e-14
1.91182500000000e+02 5.41142005721813e-13 2.48167450618298e-14
1.92487500000000e+02 4.55222164748571e-13 2.09475962895345e-14
1.93792500000000e+02 3.82944249544924e-13 1.76812754484552e-14
1.95097500000000e+02 3.22142262867453e-13 1.49239277091969e-14
1.96402500000000e+02 2.70994113761170e-13 1.25962991774270e-14
1.97707500000000e+02 2.27967013826492e-13 1.06314673528045e-14
1.99012500000000e+02 1.91771543195837e-13 8.97292403822697e-15
2.00317500000000e+02 1.61323009686409e-13 7.57295601978167e-15
2.01622500000000e+02 1.35708943154848e-13 6.39127731164555e-15
2.02927500000000e+02 1.14161750936867e-13 5.39387392237882e-15
2.04232500000000e+02 9.60357149204263e-14 4.55202815236614e-15
2.05537500000000e+02 8.07876409094124e-14 3.84149454804018e-15
2.06842500000000e+02 6.79605803852872e-14 3.24180396196440e-15
2.08147500000000e+02 5.71701368466000e-14 2.73567582145070e-15
2.09452500000000e+02 4.80929463599248e-14 2.30852179579804e-15
2.10757500000000e+02 4.04569871117276e-14 1.94802666109585e-15
2.12062500000000e+02 3.40334275614769e-14 1.64379436593140e-15
2.13367500000000e+02 2.86297689045296e-14 1.38704916390561e-15
2.14672500000000e+02 2.40840763407141e-14 1.17038325254519e-15
2.15977500000000e+02 2.02601262734458e-14 9.87543687755035e-16
2.17282500000000e+02 1.70433240124749e-14 8.33252466214578e-16
2.18587500000000e+02 1.43372696435223e-14 7.03054617060103e-16
2.19892500000000e+02 1.20608691520860e-14 5.93189945836641e-16
2.21197500000000e+02 1.01459042286662e-14 5.00484750888445e-16
2.22502500000000e+02 8.53498792825079e-15 4.22260404388186e-16
2.23807500000000e+02 7.17984492003856e-15 3.56256173394296e-16
2.25112500000000e+02 6.03986479057254e-15 3.00564064457638e-16
2.26417500000000e+02 5.08088504621934e-15 2.53573820020891e-16
2.27722500000000e+02 4.27416734447265e-15 2.13926486008991e-16
2.29027500000000e+02 3.59553627416741e-15 1.80475215912737e-16
2.30332500000000e+02 3.02465487589577e-15 1.52252184346815e-16
2.31637500000000e+02 2.54441519169446e-15 1.28440658454347e-16
2.32942500000000e+02 2.14042558022697e-15 1.08351423648157e-16
2.34247500000000e+02 1.80057943351571e-15 9.14028852613119e-17
2.35552500000000e+02 1.51469237069011e-15 7.71042733056732e-17
2.36857500000000e+02 1.27419703631021e-15 6.50414667308992e-17
2.38162500000000e+02 1.07188635709705e-15 5.48650288919152e-17
2.39467500000000e+02 9.01697563084797e-16 4.62801095278467e-17
2.40772500000000e+02 7.58530500821969e-16 3.90379222523120e-17
2.42077500000000e+02 6.38094793900556e-16 3.29285518930894e-17
2.43382500000000e+02 5.36781270577486e-16 2.77748842986739e-17
2.44687500000000e+02 4.51553805480012e-16 2.34274835482062e-17
2.45992500000000e+02 3.79858334148131e-16 1.97602687870991e-17
2.47297500000000e+02 3.19546313796219e-16 1.66668659466319e-17
2.48602500000000e+02 2.68810336594939e-16 1.40575290532870e-17
2.49907500000000e+02 2.26129965956563e-16 1.18565422512359e-17
2.51212500000000e+02 1.90226172666007e-16 1.00000275208586e-17
2.52517500000000e+02 1.60023005416754e-16 8.43409477581532e-18
2.53822500000000e+02 1.34615347108787e-16 7.11328089733533e-18
2.55127500000000e+02 1.13241790641447e-16 5.99923260105252e-18
2.56432500000000e+02 9.52618213532372e-17 5.05959506871202e-18
2.57737500000000e+02 8.01366223205470e-17 4.26707421687080e-18
2.59042500000000e+02 6.74129272957446e-17 3.59864548828253e-18
2.60347500000000e+02 5.67094373955931e-17 3.29659475756124e-18
