Energy (eV)          EEDF (eV^-(3/2))     First Anisotropy
4.12711864406780e-03 6.71317901126780e-01 3.25375412771917e-04
1.23813559322034e-02 6.67401925310044e-01 5.37527279865353e-04
2.06355932203390e-02 6.63508792413049e-01 7.10232984281291e-04
2.88898305084746e-02 6.59638369196936e-01 8.41826760343178e-04
3.71440677966102e-02 6.55790523189125e-01 9.51899186218169e-04
4.53983050847458e-02 6.51965122700068e-01 1.04784595315761e-03
5.36525423728814e-02 6.48162036787900e-01 1.13348882432063e-03
6.19067796610169e-02 6.44381135286110e-01 1.21113240313200e-03
7.01610169491525e-02 6.40622288787365e-01 1.28230301755678e-03
7.84152542372881e-02 6.36885368639068e-01 1.34807795160214e-03
8.66694915254237e-02 6.33170246939089e-01 1.40925356614022e-03
9.49237288135593e-02 6.29476796531393e-01 1.46643970917385e-03
1.03177966101695e-01 6.25804891001651e-01 1.52011660632967e-03
1.11432203389831e-01 6.22154404665849e-01 1.57067106164319e-03
1.19686440677966e-01 6.18525212597461e-01 1.61842052891553e-03
1.27940677966102e-01 6.14917190579145e-01 1.66362969783437e-03
1.36194915254237e-01 6.11330215092985e-01 1.70652225108283e-03
1.44449152542373e-01 6.07764163396817e-01 1.74728944316636e-03
1.52703389830508e-01 6.04218913435210e-01 1.78609648380598e-03
1.60957627118644e-01 6.00694343865152e-01 1.82308736754162e-03
1.69211864406780e-01 5.97190334031388e-01 1.85838859882773e-03
1.77466101694915e-01 5.93706764024767e-01 1.89211211641093e-03
1.85720338983051e-01 5.90243514613407e-01 1.92435761549749e-03
1.93974576271186e-01 5.86800467243756e-01 1.95521438934668e-03
2.02228813559322e-01 5.83377504090261e-01 1.98476284345995e-03
2.10483050847458e-01 5.79974507995651e-01 2.01307573382991e-03
2.18737288135593e-01 5.76591362486280e-01 2.04021918051042e-03
2.26991525423729e-01 5.73227951753502e-01 2.06625351240046e-03
2.35245762711864e-01 5.69884160694122e-01 2.09123398392863e-03
2.43500000000000e-01 5.66559874860865e-01 2.11521138312722e-03
2.51754237288136e-01 5.63254980461294e-01 2.13823253027783e-03
2.60008474576271e-01 5.59969364393402e-01 2.16034072207059e-03
2.68262711864407e-01 5.56702914201138e-01 2.18157611390706e-03
2.76516949152542e-01 5.53455518072899e-01 2.20197603297600e-03
2.84771186440678e-01 5.50227064873265e-01 2.22157526696669e-03
2.93025423728814e-01 5.47017444102815e-01 2.24040631446504e-03
3.01279661016949e-01 5.43826545906673e-01 2.25849959666543e-03
3.09533898305085e-01 5.40654261060792e-01 2.27588364404363e-03
3.17788135593220e-01 5.37500480998915e-01 2.29258526777898e-03
3.26042372881356e-01 5.34365097777439e-01 2.30862971359719e-03
3.34296610169492e-01 5.31248004073284e-01 2.32404078335114e-03
3.42550847457627e-01 5.28149093208288e-01 2.33884095821561e-03
3.50805084745763e-01 5.25068259116919e-01 2.35305150750684e-03
3.59059322033898e-01 5.22005396352348e-01 2.36669257959402e-03
3.67313559322034e-01 5.18960400074753e-01 2.37978328404838e-03
3.75567796610169e-01 5.15933166072504e-01 2.39234177159779e-03
3.83822033898305e-01 5.12923590733329e-01 2.40438530810843e-03
3.92076271186441e-01 5.09931571041883e-01 2.41593032816074e-03
4.00330508474576e-01 5.06957004599102e-01 2.42699249685996e-03
4.08584745762712e-01 5.03999789595402e-01 2.43758676482589e-03
4.16838983050847e-01 5.01059824815082e-01 2.44772741239410e-03
4.25093220338983e-01 4.98137009626145e-01 2.45742809033033e-03
4.33347457627119e-01 4.95231243997354e-01 2.46670186237863e-03
4.41601694915254e-01 4.92342428473943e-01 2.47556124578664e-03
4.49855932203390e-01 4.89470464175051e-01 2.48401823647143e-03
4.58110169491525e-01 4.86615252809418e-01 2.49208434401146e-03
4.66364406779661e-01 4.83776696652619e-01 2.49977062273676e-03
4.74618644067797e-01 4.80954698550289e-01 2.50708769509363e-03
4.82872881355932e-01 4.78149161909111e-01 2.51404577353114e-03
4.91127118644068e-01 4.75359990710811e-01 2.52065468553700e-03
4.99381355932203e-01 4.72587089491293e-01 2.52692389819132e-03
5.07635593220339e-01 4.69830363338027e-01 2.53286253005673e-03
5.15889830508475e-01 4.67089717902988e-01 2.53847937295202e-03
5.24144067796610e-01 4.64365059382986e-01 2.54378291114427e-03
5.32398305084746e-01 4.61656294522013e-01 2.54878133440721e-03
5.40652542372881e-01 4.58963330603183e-01 2.55348255045480e-03
5.48906779661017e-01 4.56286075460363e-01 2.55789420089696e-03
5.57161016949153e-01 4.53624437459998e-01 2.56202367737060e-03
5.65415254237288e-01 4.50978325498482e-01 2.56587812671444e-03
5.73669491525424e-01 4.48347649012978e-01 2.56946446558804e-03
5.81923728813559e-01 4.45732317964179e-01 2.57278939319308e-03
5.90177966101695e-01 4.43132242838013e-01 2.57585939882176e-03
5.98432203389830e-01 4.40547334638340e-01 2.57868076917428e-03
6.06686440677966e-01 4.37977504896742e-01 2.58125959921093e-03
6.14940677966102e-01 4.35422665656492e-01 2.58360180347148e-03
6.23194915254237e-01 4.32882729469961e-01 2.58571311766301e-03
6.31449152542373e-01 4.30357609407735e-01 2.58759910910291e-03
6.39703389830508e-01 4.27847219043365e-01 2.58926518566038e-03
6.47957627118644e-01 4.25351472454557e-01 2.59071660017774e-03
6.56211864406780e-01 4.22870284216529e-01 2.59195845485244e-03
6.64466101694915e-01 4.20403569410302e-01 2.59299570902873e-03
6.72720338983051e-01 4.17951243608446e-01 2.59383318757963e-03
6.80974576271186e-01 4.15513222872517e-01 2.59447558050980e-03
6.89228813559322e-01 4.13089423760827e-01 2.59492745080445e-03
6.97483050847458e-01 4.10679763314809e-01 2.59519324102653e-03
7.05737288135593e-01 4.08284159059829e-01 2.59527727588168e-03
7.13991525423729e-01 4.05902528999087e-01 2.59518376483837e-03
7.22245762711864e-01 4.03534791620696e-01 2.59491680797715e-03
7.30500000000000e-01 4.01180865884903e-01 2.59448040247862e-03
7.38754237288136e-01 3.98840671221582e-01 2.59387844111103e-03
7.47008474576271e-01 3.96514127536885e-01 2.59311471837768e-03
7.55262711864407e-01 3.94201155200982e-01 2.59219293640148e-03
7.63516949152542e-01 3.91901675045593e-01 2.59111670308360e-03
7.71771186440678e-01 3.89615608370238e-01 2.58988953770520e-03
7.80025423728814e-01 3.87342876930490e-01 2.58851487551593e-03
7.88279661016949e-01 3.85083402938338e-01 2.58699606879790e-03
7.96533898305085e-01 3.82837109056770e-01 2.58533638804256e-03
8.04788135593220e-01 3.80603918405497e-01 2.58353902610161e-03
8.13042372881356e-01 3.78383754549857e-01 2.58160710296978e-03
8.21296610169492e-01 3.76176541498418e-01 2.57954366346626e-03
8.29550847457627e-01 3.73982203708367e-01 2.57735168182979e-03
8.37805084745763e-01 3.71800666074854e-01 2.57503406541166e-03
8.46059322033898e-01 3.69631853931132e-01 2.57259365514463e-03
8.54313559322034e-01 3.67475693043536e-01 2.57003322613847e-03
8.62567796610169e-01 3.65332109616430e-01 2.56735549105789e-03
8.70822033898305e-01 3.63201030282110e-01 2.56456310411515e-03
8.79076271186441e-01 3.61082382098488e-01 2.56165865850528e-03
8.87330508474576e-01 3.58976092553751e-01 2.55864469027061e-03
8.95584745762712e-01 3.56882089556646e-01 2.55552368135071e-03
9.03838983050847e-01 3.54800301436451e-01 2.55229805966565e-03
9.12093220338983e-01 3.52730656938294e-01 2.54897019933061e-03
9.20347457627119e-01 3.50673085227449e-01 2.54554242347094e-03
9.28601694915254e-01 3.48627515880109e-01 2.54201700762716e-03
9.36855932203390e-01 3.46593878881147e-01 2.53839617708510e-03
9.45110169491525e-01 3.44572104628154e-01 2.53468211019149e-03
9.53364406779661e-01 3.42562123922559e-01 2.53087694092727e-03
9.61618644067797e-01 3.40563867969441e-01 2.52698275873916e-03
9.69872881355932e-01 3.38577268373178e-01 2.52300160850123e-03
9.78127118644068e-01 3.36602257141168e-01 2.51893549290868e-03
9.86381355932203e-01 3.34638766675377e-01 2.51478637543276e-03
9.94635593220339e-01 3.32686729770171e-01 2.51055617763039e-03
1.00288983050847e+00 3.30746079615831e-01 2.50624678263246e-03
1.01114406779661e+00 3.28816749788508e-01 2.50186003732792e-03
1.01939830508475e+00 3.26898674250041e-01 2.49739774323731e-03
1.02765254237288e+00 3.24991787369576e-01 2.49286167685579e-03
1.03590677966102e+00 3.23096023862373e-01 2.48825358062289e-03
1.04416101694915e+00 3.21211318842936e-01 2.48357515067287e-03
1.05241525423729e+00 3.19337607804279e-01 2.47882804988704e-03
1.06066949152542e+00 3.17474826633017e-01 2.47401391964945e-03
1.06892372881356e+00 3.15622911554972e-01 2.46913436935320e-03
1.07717796610169e+00 3.13781799185409e-01 2.46419096026349e-03
1.08543220338983e+00 3.11951426525951e-01 2.45918523979645e-03
1.09368644067797e+00 3.10131730912388e-01 2.45411872557583e-03
1.10194067796610e+00 3.08322650062779e-01 2.44899289504449e-03
1.11019491525424e+00 3.06524122058463e-01 2.44380919751292e-03
1.11844915254237e+00 3.04736085357729e-01 2.43856906501972e-03
1.12670338983051e+00 3.02958478746237e-01 2.43327390244927e-03
1.13495762711864e+00 3.01191241382590e-01 2.42792507746004e-03
1.14321186440678e+00 2.99434312780297e-01 2.42252393204799e-03
1.15146610169492e+00 2.97687632820651e-01 2.41707179297346e-03
1.15972033898305e+00 2.95951141705615e-01 2.41156996218156e-03
1.16797457627119e+00 2.94224780001016e-01 2.40601970214957e-03
1.17622881355932e+00 2.92508488633740e-01 2.40042226660148e-03
1.18448305084746e+00 2.90802208846454e-01 2.39477888602668e-03
1.19273728813559e+00 2.89105882239041e-01 2.38909075821032e-03
1.20099152542373e+00 2.87419450752022e-01 2.38335905895936e-03
1.20924576271186e+00 2.85742856678253e-01 2.37758495178238e-03
1.21750000000000e+00 2.84076042619816e-01 2.37176957887436e-03
1.22575423728814e+00 2.82418951527353e-01 2.36591405193704e-03
1.23400847457627e+00 2.80771526684292e-01 2.36001946249671e-03
1.24226271186441e+00 2.79133711717890e-01 2.35408689121874e-03
1.25051694915254e+00 2.77505450558170e-01 2.34811739917213e-03
1.25877118644068e+00 2.75886687475296e-01 2.34211201893861e-03
1.26702542372881e+00 2.74277367064539e-01 2.33607176454255e-03
1.27527966101695e+00 2.72677434256716e-01 2.32999764042075e-03
1.28353389830508e+00 2.71086834279049e-01 2.32389063295355e-03
1.29178813559322e+00 2.69505512690713e-01 2.31775169759518e-03
1.30004237288136e+00 2.67933415380357e-01 2.31158178552766e-03
1.30829661016949e+00 2.66370488528397e-01 2.30538183093947e-03
1.31655084745763e+00 2.64816678641174e-01 2.29915274266038e-03
1.32480508474576e+00 2.63271932537070e-01 2.29289541341788e-03
1.33305932203390e+00 2.61736197356029e-01 2.28661072820222e-03
1.34131355932203e+00 2.60209420523580e-01 2.28029955630177e-03
1.34956779661017e+00 2.58691549783344e-01 2.27396274320074e-03
1.35782203389830e+00 2.57182533183783e-01 2.26760111950183e-03
1.36607627118644e+00 2.55682319087216e-01 2.26121550899373e-03
1.37433050847458e+00 2.54190856135462e-01 2.25480672093157e-03
1.38258474576271e+00 2.52708093280810e-01 2.24837553832691e-03
1.39083898305085e+00 2.51233979783759e-01 2.24192274204168e-03
1.39909322033898e+00 2.49768465179864e-01 2.23544909921396e-03
1.40734745762712e+00 2.48311499309552e-01 2.22895535563169e-03
1.41560169491525e+00 2.46863032305835e-01 2.22244224407240e-03
1.42385593220339e+00 2.45423014602570e-01 2.21591049184689e-03
1.43211016949153e+00 2.43991396902769e-01 2.20936081353348e-03
1.44036440677966e+00 2.42568130207025e-01 2.20279390359092e-03
1.44861864406780e+00 2.41153165801765e-01 2.19621044440709e-03
1.45687288135593e+00 2.39746455267077e-01 2.18961111358194e-03
1.46512711864407e+00 2.38347950446413e-01 2.18299657688752e-03
1.47338135593220e+00 2.36957603473700e-01 2.17636747760036e-03
1.48163559322034e+00 2.35575366771259e-01 2.16972445834042e-03
1.48988983050847e+00 2.34201193020539e-01 2.16306815052736e-03
1.49814406779661e+00 2.32835035188249e-01 2.15639916742211e-03
1.50639830508475e+00 2.31476846515446e-01 2.14971811166742e-03
1.51465254237288e+00 2.30126580524718e-01 2.14302558211326e-03
1.52290677966102e+00 2.28784190992168e-01 2.13632216718349e-03
1.53116101694915e+00 2.27449631972362e-01 2.12960843813482e-03
1.53941525423729e+00 2.26122857787883e-01 2.12288495634037e-03
1.54766949152542e+00 2.24803823036146e-01 2.11615227988669e-03
1.55592372881356e+00 2.23492482562578e-01 2.10941095714525e-03
1.56417796610169e+00 2.22188791484442e-01 2.10266151704405e-03
1.57243220338983e+00 2.20892705188920e-01 2.09590448890936e-03
1.58068644067797e+00 2.19604179307178e-01 2.08914039284642e-03
1.58894067796610e+00 2.18323169737356e-01 2.08236973338625e-03
1.59719491525424e+00 2.17049632634842e-01 2.07559300632163e-03
1.60544915254237e+00 2.15783524418542e-01 2.06881070490064e-03
1.61370338983051e+00 2.14524801746016e-01 2.06202331376555e-03
1.62195762711864e+00 2.13273421535462e-01 2.05523130279450e-03
1.63021186440678e+00 2.12029340956384e-01 2.04843513371106e-03
1.63846610169492e+00 2.10792517435554e-01 2.04163526607457e-03
1.64672033898305e+00 2.09562908633181e-01 2.03483215140468e-03
1.65497457627119e+00 2.08340472463924e-01 2.02802622430005e-03
1.66322881355932e+00 2.07125167095118e-01 2.02121792049958e-03
1.67148305084746e+00 2.05916950923716e-01 2.01440766809653e-03
1.67973728813559e+00 2.04715782596583e-01 2.00759588173290e-03
1.68799152542373e+00 2.03521621001801e-01 2.00078296881089e-03
1.69624576271186e+00 2.02334425274148e-01 1.99396933512569e-03
1.70450000000000e+00 2.01154154772976e-01 1.98715537932245e-03
1.71275423728814e+00 1.99980769101633e-01 1.98034148726532e-03
1.72100847457627e+00 1.98814228099105e-01 1.97352803804794e-03
1.72926271186441e+00 1.97654491845248e-01 1.96671540944517e-03
1.73751694915254e+00 1.96501520639545e-01 1.95990397253832e-03
1.74577118644068e+00 1.95355275019699e-01 1.95309408625599e-03
1.75402542372881e+00 1.94215715753612e-01 1.94628610319107e-03
1.76227966101695e+00 1.93082803844363e-01 1.93948037487897e-03
1.77053389830508e+00 1.91956500509810e-01 1.93267724658273e-03
1.77878813559322e+00 1.90836767200406e-01 1.92587704942859e-03
1.78704237288136e+00 1.89723565597598e-01 1.91908011635227e-03
1.79529661016949e+00 1.88616857594071e-01 1.91228677431690e-03
1.80355084745763e+00 1.87516605310963e-01 1.90549733915918e-03
1.81180508474576e+00 1.86422771090369e-01 1.89871212106624e-03
1.82005932203390e+00 1.85335317499924e-01 1.89193142954678e-03
1.82831355932203e+00 1.84254207313831e-01 1.88515556850873e-03
1.83656779661017e+00 1.83179403529350e-01 1.87838483126160e-03
1.84482203389831e+00 1.82110869359594e-01 1.87161950582009e-03
1.85307627118644e+00 1.81048568237898e-01 1.86485987971858e-03
1.86133050847458e+00 1.79992463799583e-01 1.85810623523612e-03
1.86958474576271e+00 1.78942519897772e-01 1.85135884219615e-03
1.87783898305085e+00 1.77898700601900e-01 1.84461797253650e-03
1.88609322033898e+00 1.76860970180044e-01 1.83788389318488e-03
1.89434745762712e+00 1.75829293114207e-01 1.83115686133709e-03
1.90260169491525e+00 1.74803634093578e-01 1.82443712945586e-03
1.91085593220339e+00 1.73783958018569e-01 1.81772494981093e-03
1.91911016949153e+00 1.72770229983811e-01 1.81102056996748e-03
1.92736440677966e+00 1.71762415292827e-01 1.80432422820633e-03
1.93561864406780e+00 1.70760479451535e-01 1.79763615836703e-03
1.94387288135593e+00 1.69764388172104e-01 1.79095659424692e-03
1.95212711864407e+00 1.68774107356601e-01 1.78428576522425e-03
1.96038135593220e+00 1.67789603111065e-01 1.77762388965934e-03
1.96863559322034e+00 1.66810841744131e-01 1.77097118822509e-03
1.97688983050847e+00 1.65837789751170e-01 1.76432787737721e-03
1.98514406779661e+00 1.64870413827909e-01 1.75769416502526e-03
1.99339830508475e+00 1.63908680864344e-01 1.75107025510127e-03
2.00165254237288e+00 1.62952557948305e-01 1.74445635171176e-03
2.00990677966102e+00 1.62002012350192e-01 1.73785265499985e-03
2.01816101694915e+00 1.61057011536045e-01 1.73125935694441e-03
2.02641525423729e+00 1.60117523161688e-01 1.72467664578862e-03
2.03466949152542e+00 1.59183515076126e-01 1.71810471006515e-03
2.04292372881356e+00 1.58254955306856e-01 1.71154373458037e-03
2.05117796610169e+00 1.57331812072418e-01 1.70499389436155e-03
2.05943220338983e+00 1.56414053781117e-01 1.69845536686774e-03
2.06768644067797e+00 1.55501649016766e-01 1.69192832599907e-03
2.07594067796610e+00 1.54594566550839e-01 1.68541293812431e-03
2.08419491525424e+00 1.53692775336972e-01 1.67890936626268e-03
2.09244915254237e+00 1.52796244514112e-01 1.67241777388566e-03
2.10070338983051e+00 1.51904943392783e-01 1.66593832111782e-03
2.10895762711864e+00 1.51018841466763e-01 1.65947116088051e-03
2.11721186440678e+00 1.50137908407783e-01 1.65301644294731e-03
2.12546610169492e+00 1.49262114068534e-01 1.64657431763115e-03
2.13372033898305e+00 1.48391428469440e-01 1.64014493209613e-03
2.14197457627119e+00 1.47525821809877e-01 1.63372842480161e-03
2.15022881355932e+00 1.46665264466985e-01 1.62732493669933e-03
2.15848305084746e+00 1.45809726982822e-01 1.62093460573227e-03
2.16673728813559e+00 1.44959180075236e-01 1.61455756318655e-03
2.17499152542373e+00 1.44113594632882e-01 1.60819393752298e-03
2.18324576271186e+00 1.43272941718012e-01 1.60184385786278e-03
2.19150000000000e+00 1.42437192554092e-01 1.59550745049708e-03
2.19975423728814e+00 1.41606318536257e-01 1.58918483534379e-03
2.20800847457627e+00 1.40780291226500e-01 1.58287612966487e-03
2.21626271186441e+00 1.39959082356339e-01 1.57658145144784e-03
2.22451694915254e+00 1.39142663814888e-01 1.57030091601660e-03
2.23277118644068e+00 1.38331007658899e-01 1.56403463259227e-03
2.24102542372881e+00 1.37524086108130e-01 1.55778270789888e-03
2.24927966101695e+00 1.36721871547890e-01 1.55154524944432e-03
2.25753389830508e+00 1.35924336517538e-01 1.54532236222883e-03
2.26578813559322e+00 1.35131453720146e-01 1.53911414379160e-03
2.27404237288136e+00 1.34343196021420e-01 1.53292069418165e-03
2.28229661016949e+00 1.33559536438520e-01 1.52674211105256e-03
2.29055084745763e+00 1.32780448149427e-01 1.52057848640533e-03
2.29880508474576e+00 1.32005904488585e-01 1.51442990999934e-03
2.30705932203390e+00 1.31235878949261e-01 1.50829647245611e-03
2.31531355932203e+00 1.30470345172765e-01 1.50217826214263e-03
2.32356779661017e+00 1.29709276957465e-01 1.49607536200868e-03
2.33182203389830e+00 1.28952648254568e-01 1.48998785289636e-03
2.34007627118644e+00 1.28200433170392e-01 1.48391581655302e-03
2.34833050847458e+00 1.27452605955958e-01 1.47785933260357e-03
2.35658474576271e+00 1.26709141015668e-01 1.47181847399424e-03
2.36483898305085e+00 1.25970012906299e-01 1.46579331615574e-03
2.37309322033898e+00 1.25235196326887e-01 1.45978393249123e-03
2.38134745762712e+00 1.24504666127146e-01 1.45379039137943e-03
2.38960169491525e+00 1.23778397303496e-01 1.44781275930757e-03
2.39785593220339e+00 1.23056365001167e-01 1.44185110372342e-03
2.40611016949153e+00 1.22338544504440e-01 1.43590549016657e-03
2.41436440677966e+00 1.21624911244746e-01 1.42997597935803e-03
2.42261864406780e+00 1.20915440796831e-01 1.42406263024086e-03
2.43087288135593e+00 1.20210108880769e-01 1.41816550274907e-03
2.43912711864407e+00 1.19508891352547e-01 1.41228465502123e-03
2.44738135593220e+00 1.18811764211857e-01 1.40642013920668e-03
2.45563559322034e+00 1.18118703601164e-01 1.40057200989241e-03
2.46388983050847e+00 1.17429685796539e-01 1.39474031995026e-03
2.47214406779661e+00 1.16744687215234e-01 1.38892511777797e-03
2.48039830508475e+00 1.16063684412061e-01 1.38312645017870e-03
2.48865254237288e+00 1.15386654081266e-01 1.37734436498368e-03
2.49690677966102e+00 1.14713573047684e-01 1.37157890841076e-03
2.50516101694915e+00 1.14044418274026e-01 1.36583012238420e-03
2.51341525423729e+00 1.13379166857386e-01 1.36009804733040e-03
2.52166949152542e+00 1.12717796031031e-01 1.35438272472481e-03
2.52992372881356e+00 1.12060283155864e-01 1.34868419452521e-03
2.53817796610169e+00 1.11406605727440e-01 1.34300249130974e-03
2.54643220338983e+00 1.10756741375093e-01 1.33733765203266e-03
2.55468644067797e+00 1.10110667853626e-01 1.33168971219883e-03
2.56294067796610e+00 1.09468363050127e-01 1.32605870332252e-03
2.57119491525424e+00 1.08829804980672e-01 1.32044465557622e-03
2.57944915254237e+00 1.08194971791990e-01 1.31484760020451e-03
2.58770338983051e+00 1.07563841753440e-01 1.30926756708965e-03
2.59595762711864e+00 1.06936393263573e-01 1.30370458228210e-03
2.60421186440678e+00 1.06312604846948e-01 1.29815867057328e-03
