Energy (eV)          EEDF (eV^-(3/2))     First Anisotropy
1.14444444444444e-03 6.85976817511226e+00 3.66313656199371e-03
3.43333333333333e-03 6.80753279283322e+00 6.04617535623428e-03
5.72222222222222e-03 6.75569516964906e+00 7.97447576238101e-03
8.01111111111111e-03 6.70425227673083e+00 9.43506959204940e-03
1.03000000000000e-02 6.65320110830344e+00 1.06496273694053e-02
1.25888888888889e-02 6.60253868166604e+00 1.17020506343410e-02
1.48777777777778e-02 6.55226203640804e+00 1.26358031383777e-02
1.71666666666667e-02 6.50236823491799e+00 1.34771576384823e-02
1.94555555555556e-02 6.45285436194839e+00 1.42435559195478e-02
2.17444444444444e-02 6.40371752444750e+00 1.49473375581354e-02
2.40333333333333e-02 6.35495485138824e+00 1.55976458457879e-02
2.63222222222222e-02 6.30656349360886e+00 1.62014990968538e-02
2.86111111111111e-02 6.25854062364191e+00 1.67644368004579e-02
3.09000000000000e-02 6.21088343554953e+00 1.72909311932281e-02
3.31888888888889e-02 6.16358914489531e+00 1.77846611568679e-02
3.54777777777778e-02 6.11665498816530e+00 1.82487010518389e-02
3.77666666666667e-02 6.07007822303393e+00 1.86856548803247e-02
4.00555555555556e-02 6.02385612805734e+00 1.90977541104867e-02
4.23444444444444e-02 5.97798600251445e+00 1.94869305008426e-02
4.46333333333333e-02 5.93246516624843e+00 1.98548713899378e-02
4.69222222222222e-02 5.88729095951198e+00 2.02030623721829e-02
4.92111111111111e-02 5.84246074281088e+00 2.05328207275080e-02
5.15000000000000e-02 5.79797189674985e+00 2.08453219467269e-02
5.37888888888889e-02 5.75382182195618e+00 2.11416210673114e-02
5.60777777777778e-02 5.71000793869397e+00 2.14226699564360e-02
5.83666666666667e-02 5.66652768695142e+00 2.16893314751042e-02
6.06555555555556e-02 5.62337852621052e+00 2.19423912307819e-02
6.29444444444444e-02 5.58055793529851e+00 2.21825673459396e-02
6.52333333333333e-02 5.53806341224033e+00 2.24105186701141e-02
6.75222222222222e-02 5.49589247411316e+00 2.26268517251905e-02
6.98111111111111e-02 5.45404265690095e+00 2.28321266168182e-02
7.21000000000000e-02 5.41251151535042e+00 2.30268620889845e-02
7.43888888888889e-02 5.37129662287965e+00 2.32115399006772e-02
7.66777777777778e-02 5.33039557127999e+00 2.33866085828635e-02
7.89666666666667e-02 5.28980597073380e+00 2.35524867034591e-02
8.12555555555556e-02 5.24952544962130e+00 2.37095657505335e-02
8.35444444444444e-02 5.20955165438190e+00 2.38582126368904e-02
8.58333333333333e-02 5.16988224937659e+00 2.39987719114770e-02
8.81222222222222e-02 5.13051491675183e+00 2.41315677141506e-02
9.04111111111111e-02 5.09144735630391e+00 2.42569055097294e-02
9.27000000000000e-02 5.05267728534457e+00 2.43750736259573e-02
9.49888888888889e-02 5.01420243860501e+00 2.44863446476690e-02
9.72777777777778e-02 4.97602056799002e+00 2.45909766400398e-02
9.95666666666667e-02 4.93812944256152e+00 2.46892142411993e-02
1.01855555555556e-01 4.90052684840286e+00 2.47812896968120e-02
1.04144444444444e-01 4.86321058835552e+00 2.48674237361006e-02
1.06433333333333e-01 4.82617848205935e+00 2.49478263775258e-02
1.08722222222222e-01 4.78942836575825e+00 2.50226976945186e-02
1.11011111111111e-01 4.75295809217238e+00 2.50922284788435e-02
1.13300000000000e-01 4.71676553037281e+00 2.51566008089747e-02
1.15588888888889e-01 4.68084856594314e+00 2.52159887467941e-02
1.17877777777778e-01 4.64520509998836e+00 2.52705587587655e-02
1.20166666666667e-01 4.60983304988919e+00 2.53204700940666e-02
1.22455555555556e-01 4.57473034888489e+00 2.53658753558442e-02
1.24744444444444e-01 4.53989494595243e+00 2.54069208519312e-02
1.27033333333333e-01 4.50532480568599e+00 2.54437469609015e-02
1.29322222222222e-01 4.47101790817958e+00 2.54764884702665e-02
1.31611111111111e-01 4.43697224890817e+00 2.55052748894621e-02
1.33900000000000e-01 4.40318583861064e+00 2.55302307006175e-02
1.36188888888889e-01 4.36965670339983e+00 2.55514757441533e-02
1.38477777777778e-01 4.33638288396163e+00 2.55691253896459e-02
1.40766666666667e-01 4.30336243613287e+00 2.55832906886687e-02
1.43055555555556e-01 4.27059343055464e+00 2.55940787105198e-02
1.45344444444444e-01 4.23807395255955e+00 2.56015927035901e-02
1.47633333333333e-01 4.20580210205932e+00 2.56059322832531e-02
1.49922222222222e-01 4.17377599343489e+00 2.56071936076794e-02
1.52211111111111e-01 4.14199375542563e+00 2.56054695425517e-02
1.54500000000000e-01 4.11045353102004e+00 2.56008497814432e-02
1.56788888888889e-01 4.07915347753055e+00 2.55934210920430e-02
1.59077777777778e-01 4.04809176593094e+00 2.55832673836223e-02
1.61366666666667e-01 4.01726658130952e+00 2.55704697657156e-02
1.63655555555556e-01 3.98667612257464e+00 2.55551067721070e-02
1.65944444444444e-01 3.95631860234945e+00 2.55372544389635e-02
1.68233333333333e-01 3.92619224686713e+00 2.55169864111802e-02
1.70522222222222e-01 3.89629529586800e+00 2.54943740428435e-02
1.72811111111111e-01 3.86662600249626e+00 2.54694864922369e-02
1.75100000000000e-01 3.83718263319796e+00 2.54423907818985e-02
1.77388888888889e-01 3.80796346777074e+00 2.54131519725568e-02
1.79677777777778e-01 3.77896679880622e+00 2.53818331835927e-02
1.81966666666667e-01 3.75019093205137e+00 2.53484956086399e-02
1.84255555555556e-01 3.72163418615443e+00 2.53131986788712e-02
1.86544444444444e-01 3.69329489256668e+00 2.52760001008319e-02
1.88833333333333e-01 3.66517139544466e+00 2.52369559212561e-02
1.91122222222222e-01 3.63726205155402e+00 2.51961205887733e-02
1.93411111111111e-01 3.60956523017319e+00 2.51535470126887e-02
1.95700000000000e-01 3.58207931299811e+00 2.51092865926749e-02
1.97988888888889e-01 3.55480269417390e+00 2.50633893506302e-02
2.00277777777778e-01 3.52773377981920e+00 2.50159039285377e-02
2.02566666666667e-01 3.50087098831806e+00 2.49668775833424e-02
2.04855555555556e-01 3.47421275009813e+00 2.49163563135185e-02
2.07144444444444e-01 3.44775750753892e+00 2.48643848760282e-02
2.09433333333333e-01 3.42150371488062e+00 2.48110068281936e-02
2.11722222222222e-01 3.39544983813415e+00 2.47562645677986e-02
2.14011111111111e-01 3.36959435499139e+00 2.47001993715182e-02
2.16300000000000e-01 3.34393575473616e+00 2.46428514084054e-02
2.18588888888889e-01 3.31847253826268e+00 2.45842598448840e-02
2.20877777777778e-01 3.29320321766536e+00 2.45244628315263e-02
2.23166666666667e-01 3.26812631647707e+00 2.44634974878335e-02
2.25455555555556e-01 3.24324036947356e+00 2.44014000046163e-02
2.27744444444444e-01 3.21854392258791e+00 2.43382056496456e-02
2.30033333333333e-01 3.19403553282536e+00 2.42739487959868e-02
2.32322222222222e-01 3.16971376817933e+00 2.42086629492676e-02
2.34611111111111e-01 3.14557720754761e+00 2.41423807739501e-02
2.36900000000000e-01 3.12162444064930e+00 2.40751340978068e-02
2.39188888888889e-01 3.09785406803339e+00 2.40069539984507e-02
2.41477777777778e-01 3.07426470072195e+00 2.39378707848384e-02
2.43766666666667e-01 3.05085496040619e+00 2.38679139773227e-02
2.46055555555556e-01 3.02762347927277e+00 2.37971123929823e-02
2.48344444444444e-01 3.00456889992386e+00 2.37254941449825e-02
2.50633333333333e-01 2.98168987529776e+00 2.36530866624894e-02
2.52922222222222e-01 2.95898506859042e+00 2.35799167099155e-02
2.55211111111111e-01 2.93645315317720e+00 2.35060104055355e-02
2.57500000000000e-01 2.91409281253534e+00 2.34313932208537e-02
2.59788888888889e-01 2.89190274024524e+00 2.33560900536739e-02
2.62077777777778e-01 2.86988163967784e+00 2.32801252073766e-02
2.64366666666667e-01 2.84802822415693e+00 2.32035223690879e-02
2.66655555555556e-01 2.82634121680399e+00 2.31263046823142e-02
2.68944444444444e-01 2.80481935046362e+00 2.30484947427970e-02
2.71233333333333e-01 2.78346136762934e+00 2.29701146129522e-02
2.73522222222222e-01 2.76226602037037e+00 2.28911858358723e-02
2.75811111111111e-01 2.74123207025862e+00 2.28117294489184e-02
2.78100000000000e-01 2.72035828829627e+00 2.27317659801783e-02
2.80388888888889e-01 2.69964345491159e+00 2.26513155112737e-02
2.82677777777778e-01 2.67908635968345e+00 2.25703976560527e-02
2.84966666666667e-01 2.65868580147633e+00 2.24890315384008e-02
2.87255555555556e-01 2.63844058830104e+00 2.24072358550397e-02
2.89544444444444e-01 2.61834953724506e+00 2.23250288694636e-02
2.91833333333333e-01 2.59841147440337e+00 2.22424284226844e-02
2.94122222222222e-01 2.57862523481002e+00 2.21594519436830e-02
2.96411111111111e-01 2.55898966236997e+00 2.20761164595799e-02
2.98700000000000e-01 2.53950360979154e+00 2.19924385904774e-02
3.00988888888889e-01 2.52016593857811e+00 2.19084346041476e-02
3.03277777777778e-01 2.50097551878413e+00 2.18241203950441e-02
3.05566666666667e-01 2.48193122912787e+00 2.17395114625817e-02
3.07855555555556e-01 2.46303195686583e+00 2.16546229660570e-02
3.10144444444444e-01 2.44427659772782e+00 2.15694697176136e-02
3.12433333333333e-01 2.42566405585225e+00 2.14840661904083e-02
3.14722222222222e-01 2.40719324372236e+00 2.13984265265797e-02
3.17011111111111e-01 2.38886308210250e+00 2.13125645450271e-02
3.19300000000000e-01 2.37067249997515e+00 2.12264937354008e-02
3.21588888888889e-01 2.35262043452960e+00 2.11402273061871e-02
3.23877777777778e-01 2.33470583094486e+00 2.10537781645291e-02
3.26166666666667e-01 2.31692764248416e+00 2.09671588954221e-02
3.28455555555556e-01 2.29928483038134e+00 2.08803818101573e-02
3.30744444444444e-01 2.28177636378017e+00 2.07934589388752e-02
3.33033333333333e-01 2.26440121967408e+00 2.07064020368957e-02
3.35322222222222e-01 2.24715838284648e+00 2.06192225909015e-02
3.37611111111111e-01 2.23004684581140e+00 2.05319318249871e-02
3.39900000000000e-01 2.21306560875461e+00 2.04445406942827e-02
3.42188888888889e-01 2.19621367952019e+00 2.03570599275503e-02
3.44477777777778e-01 2.17949007341667e+00 2.02695000080534e-02
3.46766666666667e-01 2.16289381329632e+00 2.01818711538887e-02
3.49055555555556e-01 2.14642392945216e+00 2.00941833610129e-02
3.51344444444444e-01 2.13007945956126e+00 2.00064463957269e-02
3.53633333333333e-01 2.11385944862849e+00 1.99186697996525e-02
3.55922222222222e-01 2.09776294893082e+00 1.98308628946105e-02
3.58211111111111e-01 2.08178901996187e+00 1.97430347873957e-02
3.60500000000000e-01 2.06593672837699e+00 1.96551943633171e-02
3.62788888888889e-01 2.05020514797829e+00 1.95673503241610e-02
3.65077777777778e-01 2.03459335954093e+00 1.94795111702194e-02
3.67366666666667e-01 2.01910045087984e+00 1.93916851818497e-02
3.69655555555556e-01 2.00372551675604e+00 1.93038804578969e-02
3.71944444444444e-01 1.98846765882365e+00 1.92161049083111e-02
3.74233333333333e-01 1.97332598557748e+00 1.91283662581144e-02
3.76522222222222e-01 1.95829961230094e+00 1.90406720512988e-02
3.78811111111111e-01 1.94338766101431e+00 1.89530296546469e-02
3.81100000000000e-01 1.92858926042348e+00 1.88654462513696e-02
3.83388888888889e-01 1.91390354590402e+00 1.87779288750882e-02
3.85677777777778e-01 1.89932965934493e+00 1.86904843930645e-02
3.87966666666667e-01 1.88486674920499e+00 1.86031194890066e-02
3.90255555555556e-01 1.87051397042720e+00 1.85158406975153e-02
3.92544444444444e-01 1.85627048438949e+00 1.84286543969691e-02
3.94833333333333e-01 1.84213545885563e+00 1.83415668127202e-02
3.97122222222222e-01 1.82810806792669e+00 1.82545840202414e-02
3.99411111111111e-01 1.81418749199273e+00 1.81677119482191e-02
4.01700000000000e-01 1.80037291768496e+00 1.80809563723948e-02
4.03988888888889e-01 1.78666353785915e+00 1.79943229461065e-02
4.06277777777778e-01 1.77305855145491e+00 1.79078171846945e-02
4.08566666666667e-01 1.75955716354310e+00 1.78214444495295e-02
4.10855555555556e-01 1.74615858524775e+00 1.77352099790100e-02
4.13144444444444e-01 1.73286203369998e+00 1.76491188817747e-02
4.15433333333333e-01 1.71966673199224e+00 1.75631761393058e-02
4.17722222222222e-01 1.70657190913294e+00 1.74773866084952e-02
4.20011111111111e-01 1.69357680000141e+00 1.73917550241675e-02
4.22300000000000e-01 1.68068064530316e+00 1.73062859931940e-02
4.24588888888889e-01 1.66788269155306e+00 1.72209840220277e-02
4.26877777777778e-01 1.65518219094820e+00 1.71358535022397e-02
4.29166666666667e-01 1.64257840140786e+00 1.70508986957210e-02
4.31455555555556e-01 1.63007058650206e+00 1.69661237626557e-02
4.33744444444444e-01 1.61765801540855e+00 1.68815327551011e-02
4.36033333333333e-01 1.60533996287010e+00 1.67971296191241e-02
4.38322222222222e-01 1.59311570915211e+00 1.67129181969092e-02
4.40611111111111e-01 1.58098454000062e+00 1.66289022288370e-02
4.42900000000000e-01 1.56894574660048e+00 1.65450853479011e-02
4.45188888888889e-01 1.55699862555854e+00 1.64614711045954e-02
4.47477777777778e-01 1.54514247878846e+00 1.63780629535315e-02
4.49766666666667e-01 1.53337661354449e+00 1.62948642397473e-02
4.52055555555556e-01 1.52170034235593e+00 1.62118782240126e-02
4.54344444444444e-01 1.51011298298701e+00 1.61291080767906e-02
4.56633333333333e-01 1.49861385839698e+00 1.60465568800044e-02
4.58922222222222e-01 1.48720229670061e+00 1.59642276287819e-02
4.61211111111111e-01 1.47587763112888e+00 1.58821232331765e-02
4.63500000000000e-01 1.46463919999008e+00 1.58002465129058e-02
4.65788888888889e-01 1.45348634665294e+00 1.57186002198972e-02
4.68077777777778e-01 1.44241841944231e+00 1.56371870259149e-02
4.70366666666667e-01 1.43143477166750e+00 1.55560095099110e-02
4.72655555555556e-01 1.42053476156218e+00 1.54750701809672e-02
4.74944444444444e-01 1.40971775224695e+00 1.53943714726363e-02
4.77233333333333e-01 1.39898311169201e+00 1.53139157444123e-02
4.79522222222222e-01 1.38833021268036e+00 1.52337052831814e-02
4.81811111111111e-01 1.37775843277109e+00 1.51537423046587e-02
4.84100000000000e-01 1.36726715426301e+00 1.50740289484469e-02
4.86388888888889e-01 1.35685576417810e+00 1.49945672984990e-02
4.88677777777778e-01 1.34652365416672e+00 1.49153593716943e-02
4.90966666666667e-01 1.33627022053142e+00 1.48364071061591e-02
4.93255555555556e-01 1.32609486417174e+00 1.47577123820992e-02
4.95544444444444e-01 1.31599699054923e+00 1.46792770165159e-02
4.97833333333333e-01 1.30597600965267e+00 1.46011027644358e-02
5.00122222222222e-01 1.29603133596366e+00 1.45231913201260e-02
5.02411111111111e-01 1.28616238842234e+00 1.44455443182951e-02
5.04700000000000e-01 1.27636859039349e+00 1.43681633294687e-02
5.06988888888889e-01 1.26664936965033e+00 1.42910498785964e-02
5.09277777777778e-01 1.25700415828822e+00 1.42142054345039e-02
5.11566666666667e-01 1.24743239274467e+00 1.41376313991154e-02
5.13855555555556e-01 1.23793351374860e+00 1.40613291264057e-02
5.16144444444444e-01 1.22850696628760e+00 1.39852999174715e-02
5.18433333333333e-01 1.21915219957555e+00 1.39095450215672e-02
5.20722222222222e-01 1.20986866702042e+00 1.38340656371243e-02
5.23011111111111e-01 1.20065582619235e+00 1.37588629127615e-02
5.25300000000000e-01 1.19151313879194e+00 1.36839379429684e-02
5.27588888888889e-01 1.18244007063450e+00 1.36092917850457e-02
5.29877777777778e-01 1.17343609157144e+00 1.35349254493729e-02
5.32166666666667e-01 1.16450067550701e+00 1.34608398894646e-02
5.34455555555556e-01 1.15563330035152e+00 1.33870360192348e-02
5.36744444444444e-01 1.14683344799088e+00 1.33135147084106e-02
5.39033333333333e-01 1.13810060425629e+00 1.32402767834031e-02
5.41322222222222e-01 1.12943425889420e+00 1.31673230281693e-02
5.43611111111111e-01 1.12083390553655e+00 1.30946541850644e-02
5.45900000000000e-01 1.11229904167111e+00 1.30222709508181e-02
5.48188888888889e-01 1.10382916862627e+00 1.29501739919786e-02
5.50477777777778e-01 1.09542379149931e+00 1.28783639359340e-02
5.52766666666667e-01 1.08708241917033e+00 1.28068413617405e-02
5.55055555555556e-01 1.07880456425918e+00 1.27356068158665e-02
5.57344444444444e-01 1.07058974309698e+00 1.26646608079299e-02
5.59633333333333e-01 1.06243747569788e+00 1.25940038114360e-02
5.61922222222222e-01 1.05434728573096e+00 1.25236362645058e-02
5.64211111111111e-01 1.04631870049249e+00 1.24535585705963e-02
5.66500000000000e-01 1.03835125087823e+00 1.23837710947575e-02
5.68788888888889e-01 1.03044447136873e+00 1.23142741777272e-02
5.71077777777778e-01 1.02259789996384e+00 1.22450681276465e-02
5.73366666666667e-01 1.01481107819428e+00 1.21761532116017e-02
5.75655555555556e-01 1.00708355108186e+00 1.21075296700003e-02
5.77944444444444e-01 9.99414867112946e-01 1.20391977126101e-02
5.80233333333333e-01 9.91804578212058e-01 1.19711575191841e-02
5.82522222222222e-01 9.84252239715701e-01 1.19034092400819e-02
5.84811111111111e-01 9.76757410346379e-01 1.18359529968778e-02
5.87100000000000e-01 9.69319652186810e-01 1.17687888788801e-02
5.89388888888889e-01 9.61938530665765e-01 1.17019169560100e-02
5.91677777777778e-01 9.54613614498191e-01 1.16353372711594e-02
5.93966666666667e-01 9.47344475694709e-01 1.15690498323886e-02
5.96255555555556e-01 9.40130689524969e-01 1.15030546260625e-02
5.98544444444444e-01 9.32971834492834e-01 1.14373516131786e-02
6.00833333333333e-01 9.25867492311743e-01 1.13719407298971e-02
6.03122222222222e-01 9.18817247880292e-01 1.13068218880650e-02
6.05411111111111e-01 9.11820689257962e-01 1.12419949757384e-02
6.07700000000000e-01 9.04877407641058e-01 1.11774598539458e-02
6.09988888888889e-01 8.97986997349125e-01 1.11132163684652e-02
6.12277777777778e-01 8.91149055770141e-01 1.10492643427745e-02
6.14566666666667e-01 8.84363183368285e-01 1.09856035708528e-02
6.16855555555556e-01 8.77628983650101e-01 1.09222338291979e-02
6.19144444444444e-01 8.70946063141330e-01 1.08591548734208e-02
6.21433333333333e-01 8.64314031363910e-01 1.07963664386950e-02
6.23722222222222e-01 8.57732500813176e-01 1.07338682402035e-02
6.26011111111111e-01 8.51201086935213e-01 1.06716599735827e-02
6.28300000000000e-01 8.44719408104384e-01 1.06097413119173e-02
6.30588888888889e-01 8.38287085610337e-01 1.05481119165182e-02
6.32877777777778e-01 8.31903743607797e-01 1.04867714304199e-02
6.35166666666667e-01 8.25569009122856e-01 1.04257194717385e-02
6.37455555555556e-01 8.19282512021709e-01 1.03649556446731e-02
6.39744444444444e-01 8.13043884989024e-01 1.03044795363474e-02
6.42033333333333e-01 8.06852763506474e-01 1.02442907171929e-02
6.44322222222222e-01 8.00708785831455e-01 1.01843887413312e-02
6.46611111111111e-01 7.94611592975935e-01 1.01247731469489e-02
6.48900000000000e-01 7.88560828685488e-01 1.00654434535097e-02
6.51188888888889e-01 7.82556139426882e-01 1.00063991716283e-02
6.53477777777778e-01 7.76597174342042e-01 9.94763979706774e-03
6.55766666666667e-01 7.70683585253087e-01 9.88916480461125e-03
6.58055555555556e-01 7.64815026633419e-01 9.83097365814005e-03
6.60344444444444e-01 7.58991155587539e-01 9.77306580770685e-03
6.62633333333333e-01 7.53211631831005e-01 9.71544068986340e-03
6.64922222222222e-01 7.47476117670556e-01 9.65809772798327e-03
6.67211111111111e-01 7.41784277984381e-01 9.60103633258406e-03
6.69500000000000e-01 7.36135780202533e-01 9.54425589873974e-03
6.71788888888889e-01 7.30530294295112e-01 9.48775581512939e-03
6.74077777777778e-01 7.24967492730010e-01 9.43153545849852e-03
6.76366666666667e-01 7.19447050476885e-01 9.37559418800323e-03
6.78655555555556e-01 7.13968644980415e-01 9.31993135444929e-03
6.80944444444444e-01 7.08531956141454e-01 9.26454629758056e-03
6.83233333333333e-01 7.03136666298328e-01 9.20943834635667e-03
6.85522222222222e-01 6.97782460208276e-01 9.15460681922826e-03
6.87811111111111e-01 6.92469025029030e-01 9.10005102441188e-03
6.90100000000000e-01 6.87196050300539e-01 9.04577025749014e-03
6.92388888888889e-01 6.81963227933714e-01 8.99176380971087e-03
6.94677777777778e-01 6.76770252171631e-01 8.93803096287311e-03
6.96966666666667e-01 6.71616819592592e-01 8.88457098410742e-03
6.99255555555556e-01 6.66502629085375e-01 8.83138313435155e-03
7.01544444444444e-01 6.61427381831645e-01 8.77846666583613e-03
7.03833333333333e-01 6.56390781288488e-01 8.72582082232201e-03
7.06122222222222e-01 6.51392533171091e-01 8.67344483933574e-03
7.08411111111111e-01 6.46432345435545e-01 8.62133794440237e-03
7.10700000000000e-01 6.41509928261781e-01 8.56949935481923e-03
7.12988888888889e-01 6.36624994042882e-01 8.51792828527323e-03
7.15277777777778e-01 6.31777257349426e-01 8.46662394311976e-03
7.17566666666667e-01 6.26966434931773e-01 8.41558552356186e-03
7.19855555555556e-01 6.22192245697159e-01 8.36481221742988e-03
7.22144444444444e-01 6.17454410693268e-01 8.31430320885431e-03
