################################
# DATA CONSIDERED FOR THE TESTS#
################################

# elastic momentum transfer constant rate coefficient = 1.000000e-12 (m3s-1)
#                                     gas temperature = 300.000000 (K)
#                           mass of the heavy species = 40.000000 (uam)
#               decades of decay ensured for the eedf = 15 
#                 number of cells for the energy grid = 6100 

E/N(Td)              Te_th(eV)            Te_sim(eV)           RelError(Te)         RelError(EEDF)
0.00000000000000e+00 2.58519910116516e-02 2.58511670087519e-02 3.18738660927349e-05 4.23179495127867e-05 
1.00000000000000e+00 3.01268347033801e-02 3.01258753892463e-02 3.18425132679075e-05 4.22345417694600e-05 
2.00000000000000e+00 4.29513657785653e-02 4.29500019485371e-02 3.17528908225176e-05 4.19965552137860e-05 
3.00000000000000e+00 6.43255842372075e-02 6.43235367522519e-02 3.18300250182011e-05 4.22013496737769e-05 
4.00000000000000e+00 9.42494900793065e-02 9.42464797882660e-02 3.19396002878554e-05 4.24930873278395e-05 
5.00000000000000e+00 1.32723083304862e-01 1.32718859477374e-01 3.18243622972177e-05 4.21862814717357e-05 
6.00000000000000e+00 1.79746363913875e-01 1.79740633198626e-01 3.18822318530008e-05 4.23402301557018e-05 
7.00000000000000e+00 2.35319331906345e-01 2.35311829362270e-01 3.18823957801381e-05 4.23406648138277e-05 
8.00000000000000e+00 2.99441987282271e-01 2.99432504721573e-01 3.16674384379313e-05 4.17702504929039e-05 
9.00000000000000e+00 3.72114330041654e-01 3.72102403720697e-01 3.20501523172225e-05 4.27884329273094e-05 
1.00000000000000e+01 4.53336360184494e-01 4.53321853035686e-01 3.20008498818327e-05 4.26565926243070e-05 
1.10000000000000e+01 5.43108077710791e-01 5.43090710569972e-01 3.19773200432154e-05 4.25937404395352e-05 
1.20000000000000e+01 6.41429482620545e-01 6.41408976338371e-01 3.19696595334458e-05 4.25733134654003e-05 
1.30000000000000e+01 7.48300574913756e-01 7.48276792394451e-01 3.17820406691837e-05 4.20738833220402e-05 
1.40000000000000e+01 8.63721354590423e-01 8.63693874642028e-01 3.18157566085409e-05 4.21634228496112e-05 
1.50000000000000e+01 9.87691821650547e-01 9.87660365135998e-01 3.18485117118130e-05 4.22504809866419e-05 
1.60000000000000e+01 1.12021197609413e+00 1.12017626386884e+00 3.18798817110633e-05 4.23339609868037e-05 
1.70000000000000e+01 1.26128181792117e+00 1.26124157080222e+00 3.19096956566441e-05 4.24133796541623e-05 
1.80000000000000e+01 1.41090134713166e+00 1.41085642804538e+00 3.18371559949563e-05 4.22202544494533e-05 
1.90000000000000e+01 1.56907056372561e+00 1.56902055149809e+00 3.18737911984126e-05 4.23177650899212e-05 
2.00000000000000e+01 1.73578946770302e+00 1.73573408314634e+00 3.19074160275224e-05 4.24073016725312e-05 
2.10000000000000e+01 1.91105805906389e+00 1.91099716512132e+00 3.18639940211807e-05 4.22916862394018e-05 
2.20000000000000e+01 2.09487633780821e+00 2.09480951325509e+00 3.18990443079690e-05 4.23849648948184e-05 
2.30000000000000e+01 2.28724430393599e+00 2.28717141174337e+00 3.18690017038204e-05 4.23050186636808e-05 
2.40000000000000e+01 2.48816195744723e+00 2.48808271835633e+00 3.18464361448591e-05 4.22449879494223e-05 
2.50000000000000e+01 2.69762929834192e+00 2.69754329124077e+00 3.18824759208258e-05 4.23408782105233e-05 
2.60000000000000e+01 2.91564632662007e+00 2.91555298791396e+00 3.20130412443996e-05 4.26891648950390e-05 
2.70000000000000e+01 3.14221304228167e+00 3.14211223476107e+00 3.20816950500650e-05 4.28728893449169e-05 
2.80000000000000e+01 3.37732944532674e+00 3.37722131680576e+00 3.20159826658072e-05 4.26970340986509e-05 
2.90000000000000e+01 3.62099553575526e+00 3.62088023331109e+00 3.18427468441654e-05 4.22351394660303e-05 
3.00000000000000e+01 3.87321131356724e+00 3.87308756307769e+00 3.19503583787363e-05 4.25217927592628e-05 
3.10000000000000e+01 4.13397677876267e+00 4.13384472744135e+00 3.19429276907940e-05 4.25019591146696e-05 
3.20000000000000e+01 4.40329193134156e+00 4.40315172632251e+00 3.18409547306181e-05 4.22304192200045e-05 
3.30000000000000e+01 4.68115677130391e+00 4.68100713870500e+00 3.19648766789700e-05 4.25605299597183e-05 
3.40000000000000e+01 4.96757129864971e+00 4.96741238547142e+00 3.19901152373892e-05 4.26279119991672e-05 
3.50000000000000e+01 5.26253551337897e+00 5.26236746715504e+00 3.19325586509185e-05 4.24743075427608e-05 
3.60000000000000e+01 5.56604941549169e+00 5.56587238306866e+00 3.18057584146296e-05 4.21368813256851e-05 
3.70000000000000e+01 5.87811300498787e+00 5.87792571281430e+00 3.18626357485275e-05 4.22880692887437e-05 
3.80000000000000e+01 6.19872628186750e+00 6.19852887679426e+00 3.18460703479183e-05 4.22439371183061e-05 
3.90000000000000e+01 6.52788924613059e+00 6.52768187486383e+00 3.17669707527746e-05 4.20339076588902e-05 
4.00000000000000e+01 6.86560189777713e+00 6.86538328761922e+00 3.18413681959305e-05 4.22315048348592e-05 
4.10000000000000e+01 7.21186423680714e+00 7.21163453434514e+00 3.18506359043210e-05 4.22561265018160e-05 
4.20000000000000e+01 7.56667626322060e+00 7.56643561534200e+00 3.18036440606553e-05 4.21312465491752e-05 
4.30000000000000e+01 7.93003797701751e+00 7.92978511050103e+00 3.18871759777190e-05 4.23533607375977e-05 
4.40000000000000e+01 8.30194937819788e+00 8.30168443956668e+00 3.19128218124709e-05 4.24216918113332e-05 
4.50000000000000e+01 8.68241046676172e+00 8.68213360360059e+00 3.18878221880601e-05 4.23550958479747e-05 
4.60000000000000e+01 9.07142124270900e+00 9.07113260161676e+00 3.18187287876216e-05 4.21713180140530e-05 
4.70000000000000e+01 9.46898170603975e+00 9.46868001390406e+00 3.18610960557194e-05 4.22839864247732e-05 
4.80000000000000e+01 9.87509185675395e+00 9.87477726023756e+00 3.18575787396450e-05 4.22745989942640e-05 
4.90000000000000e+01 1.02897516948516e+01 1.02894243408657e+01 3.18135943031888e-05 4.21576797703505e-05 
5.00000000000000e+01 1.07129612203327e+01 1.07126198358086e+01 3.18664949022982e-05 4.22983061427900e-05 
