Energy (eV)          EEDF (eV^-(3/2))     First Anisotropy
2.87000000000000e-01 4.55399759749002e-02 7.41262580905544e-05
8.61000000000000e-01 4.24965366601970e-02 1.18712491851101e-04
1.43500000000000e+00 3.96564905766939e-02 1.47230661183013e-04
2.00900000000000e+00 3.70062449425998e-02 1.63802929849257e-04
2.58300000000000e+00 3.45331153825429e-02 1.73856690288442e-04
3.15700000000000e+00 3.22252652187154e-02 1.79638494371546e-04
3.73100000000000e+00 3.00716488191943e-02 1.82398272989947e-04
4.30500000000000e+00 2.80619587322980e-02 1.82934920716910e-04
4.87900000000000e+00 2.61865763539566e-02 1.81801377993851e-04
5.45300000000000e+00 2.44365258919843e-02 1.79400242452936e-04
6.02700000000000e+00 2.28034314069238e-02 1.76034858685467e-04
6.60100000000000e+00 2.12794767238516e-02 1.71939341541503e-04
7.17500000000000e+00 1.98573680232816e-02 1.67297504863000e-04
7.74900000000000e+00 1.85302989321193e-02 1.62255458605185e-04
8.32300000000000e+00 1.72919179475910e-02 1.56930358432101e-04
8.89700000000000e+00 1.61362980382326e-02 1.51416696108523e-04
9.47100000000000e+00 1.50579082764467e-02 1.45790951316681e-04
1.00450000000000e+01 1.40515873668579e-02 1.40115113027234e-04
1.06190000000000e+01 1.31125189437688e-02 1.34439397636512e-04
1.11930000000000e+01 1.22362085194894e-02 1.28804381774598e-04
1.17670000000000e+01 1.14184619732103e-02 1.23242699180230e-04
1.23410000000000e+01 1.06553654774666e-02 1.17780406708876e-04
1.29150000000000e+01 9.94326676611655e-03 1.12438095040850e-04
1.34890000000000e+01 9.27875765418273e-03 1.07231799531616e-04
1.40630000000000e+01 8.65865772589343e-03 1.02173752609280e-04
1.46370000000000e+01 8.07999911285296e-03 9.72730091359294e-05
1.52110000000000e+01 7.54001228948776e-03 9.25359689129554e-05
1.57850000000000e+01 7.03611281778380e-03 8.79668151812112e-05
1.63590000000000e+01 6.56588897787391e-03 8.35678839832377e-05
1.69330000000000e+01 6.12709022527370e-03 7.93399762362620e-05
1.75070000000000e+01 5.71761641952110e-03 7.52826220487339e-05
1.80810000000000e+01 5.33550777266659e-03 7.13943050158227e-05
1.86550000000000e+01 4.97893546950637e-03 6.76726528196803e-05
1.92290000000000e+01 4.64619291466595e-03 6.41145993439906e-05
1.98030000000000e+01 4.33568756464166e-03 6.07165226203880e-05
2.03770000000000e+01 4.04593330570732e-03 5.74743622057881e-05
2.09510000000000e+01 3.77554334120584e-03 5.43837190063963e-05
2.15250000000000e+01 3.52322355418355e-03 5.14399400873560e-05
2.20990000000000e+01 3.28776631360011e-03 4.86381906147144e-05
2.26730000000000e+01 3.06804469446974e-03 4.59735147517076e-05
2.32470000000000e+01 2.86300708427077e-03 4.34408870611537e-05
2.38210000000000e+01 2.67167214980918e-03 4.10352557397283e-05
2.43950000000000e+01 2.49312414044692e-03 3.87515788199642e-05
2.49690000000000e+01 2.32650850521579e-03 3.65848543155087e-05
2.55430000000000e+01 2.17102780283982e-03 3.45301451493420e-05
2.61170000000000e+01 2.02593788509117e-03 3.25825995891478e-05
2.66910000000000e+01 1.89054433521251e-03 3.07374678154614e-05
2.72650000000000e+01 1.76419914435988e-03 2.89901151638638e-05
2.78390000000000e+01 1.64629761015908e-03 2.73360325100840e-05
2.84130000000000e+01 1.53627544253168e-03 2.57708442045714e-05
2.89870000000000e+01 1.43360606293893e-03 2.42903139093647e-05
2.95610000000000e+01 1.33779808411724e-03 2.28903486436428e-05
3.01350000000000e+01 1.24839295824323e-03 2.15670013041198e-05
3.07090000000000e+01 1.16496278227193e-03 2.03164718915603e-05
3.12830000000000e+01 1.08710824994444e-03 1.91351076443817e-05
3.18570000000000e+01 1.01445674066299e-03 1.80194022539367e-05
3.24310000000000e+01 9.46660536086598e-04 1.69659943131025e-05
3.30050000000000e+01 8.83395155911810e-04 1.59716651297708e-05
3.35790000000000e+01 8.24357804873218e-04 1.50333360193576e-05
3.41530000000000e+01 7.69265923531090e-04 1.41480651751817e-05
3.47270000000000e+01 7.17855835909932e-04 1.33130442022214e-05
3.53010000000000e+01 6.69881487515443e-04 1.25255943880926e-05
3.58750000000000e+01 6.25113267689872e-04 1.17831627748914e-05
3.64490000000000e+01 5.83336910669444e-04 1.10833180866203e-05
3.70230000000000e+01 5.44352470084173e-04 1.04237465591090e-05
3.75970000000000e+01 5.07973361991925e-04 9.80224771251663e-06
3.81710000000000e+01 4.74025471866562e-04 9.21673010052836e-06
3.87450000000000e+01 4.42346321266132e-04 8.66520706514381e-06
3.93190000000000e+01 4.12784290192661e-04 8.14579252139484e-06
3.98930000000000e+01 3.85197891421698e-04 7.65669679235268e-06
4.04670000000000e+01 3.59455093328453e-04 7.19622251131380e-06
4.10410000000000e+01 3.35432687969507e-04 6.76276060503332e-06
4.16150000000000e+01 3.13015701395663e-04 6.35478636924515e-06
4.21890000000000e+01 2.92096843373611e-04 5.97085564542659e-06
4.27630000000000e+01 2.72575993882747e-04 5.60960110578640e-06
4.33370000000000e+01 2.54359723929422e-04 5.26972865174538e-06
4.39110000000000e+01 2.37360848385215e-04 4.95001392970253e-06
4.44850000000000e+01 2.21498008709043e-04 4.64929896661180e-06
4.50590000000000e+01 2.06695283555985e-04 4.36648892680742e-06
4.56330000000000e+01 1.92881825409137e-04 4.10054899058827e-06
4.62070000000000e+01 1.79991521495380e-04 3.85050135428431e-06
4.67810000000000e+01 1.67962677362174e-04 3.61542235086383e-06
4.73550000000000e+01 1.56737721600924e-04 3.39443968958231e-06
4.79290000000000e+01 1.46262930303713e-04 3.18672981271140e-06
4.85030000000000e+01 1.36488169934600e-04 2.99151536700505e-06
4.90770000000000e+01 1.27366657384843e-04 2.80806278725073e-06
4.96510000000000e+01 1.18854736063654e-04 2.63567998900719e-06
5.02250000000000e+01 1.10911666952813e-04 2.47371416743725e-06
5.07990000000000e+01 1.03499433625124e-04 2.32154969899920e-06
5.13730000000000e+01 9.65825602934889e-05 2.17860614265506e-06
5.19470000000000e+01 9.01279420197817e-05 2.04433633718502e-06
5.25210000000000e+01 8.41046862708685e-05 1.91822459115716e-06
5.30950000000000e+01 7.84839650634504e-05 1.79978496208836e-06
5.36690000000000e+01 7.32388769900739e-05 1.68855962133998e-06
5.42430000000000e+01 6.83443184659530e-05 1.58411730131910e-06
5.48170000000000e+01 6.37768635803721e-05 1.48605182159808e-06
5.53910000000000e+01 5.95146519776283e-05 1.39398069062077e-06
5.59650000000000e+01 5.55372842308963e-05 1.30754377972958e-06
5.65390000000000e+01 5.18257242082636e-05 1.22640206632235e-06
5.71130000000000e+01 4.83622079636510e-05 1.15023644302998e-06
5.76870000000000e+01 4.51301587165567e-05 1.07874658989255e-06
5.82610000000000e+01 4.21141075137099e-05 1.01164990660352e-06
5.88350000000000e+01 3.92996191929111e-05 9.48680501985525e-07
5.94090000000000e+01 3.66732232947129e-05 8.89588237958061e-07
5.99830000000000e+01 3.42223495912772e-05 8.34137825354574e-07
6.05570000000000e+01 3.19352679238434e-05 7.82107969044784e-07
6.11310000000000e+01 2.98010320608614e-05 7.33290559915787e-07
6.17050000000000e+01 2.78094273080897e-05 6.87489911362610e-07
6.22790000000000e+01 2.59509216199129e-05 6.44522038034956e-07
6.28530000000000e+01 2.42166199778935e-05 6.04213974681307e-07
6.34270000000000e+01 2.25982218182076e-05 5.66403133024271e-07
6.40010000000000e+01 2.10879813042074e-05 5.30936694691611e-07
6.45750000000000e+01 1.96786702539710e-05 4.97671038315697e-07
6.51490000000000e+01 1.83635435454062e-05 4.66471199000088e-07
6.57230000000000e+01 1.71363068333330e-05 4.37210358435121e-07
6.62970000000000e+01 1.59910864240357e-05 4.09769364025204e-07
6.68710000000000e+01 1.49224011631007e-05 3.84036275468430e-07
6.74450000000000e+01 1.39251362019913e-05 3.59905937304335e-07
6.80190000000000e+01 1.29945185178036e-05 3.37279576018104e-07
6.85930000000000e+01 1.21260940690401e-05 3.16064420359261e-07
6.91670000000000e+01 1.13157064780622e-05 2.96173343599828e-07
6.97410000000000e+01 1.05594771381973e-05 2.77524526521185e-07
7.03150000000000e+01 9.85378665028835e-06 2.60041139980466e-07
7.08890000000000e+01 9.19525749984035e-06 2.43651045966282e-07
7.14630000000000e+01 8.58073789185357e-06 2.28286516109981e-07
7.20370000000000e+01 8.00728666597647e-06 2.13883966672504e-07
7.26110000000000e+01 7.47215921977945e-06 2.00383709078412e-07
7.31850000000000e+01 6.97279437277725e-06 1.87729715117710e-07
7.37590000000000e+01 6.50680210832943e-06 1.75869395982941e-07
7.43330000000000e+01 6.07195213475039e-06 1.64753394353575e-07
7.49070000000000e+01 5.66616321088110e-06 1.54335388782194e-07
7.54810000000000e+01 5.28749318503352e-06 1.44571909677374e-07
7.60550000000000e+01 4.93412969963293e-06 1.35422166216527e-07
7.66290000000000e+01 4.60438151706959e-06 1.26847883558539e-07
7.72030000000000e+01 4.29667042524423e-06 1.18813149760640e-07
7.77770000000000e+01 4.00952368406648e-06 1.11284271836904e-07
7.83510000000000e+01 3.74156697675416e-06 1.04229640426993e-07
7.89250000000000e+01 3.49151783219772e-06 9.76196025733899e-08
7.94990000000000e+01 3.25817948690851e-06 9.14263421334608e-08
8.00730000000000e+01 3.04043515717328e-06 8.56237673792927e-08
8.06470000000000e+01 2.83724269400107e-06 8.01874053634816e-08
8.12210000000000e+01 2.64762959528022e-06 7.50943026529241e-08
8.17950000000000e+01 2.47068835127330e-06 7.03229320552749e-08
8.23690000000000e+01 2.30557210117282e-06 6.58531049841239e-08
8.29430000000000e+01 2.15149057992966e-06 6.16658891291821e-08
8.35170000000000e+01 2.00770633595514e-06 5.77435311169138e-08
8.40910000000000e+01 1.87353120159429e-06 5.40693838651411e-08
8.46650000000000e+01 1.74832299947764e-06 5.06278383522558e-08
8.52390000000000e+01 1.63148246898767e-06 4.74042595378290e-08
8.58130000000000e+01 1.52245039812973e-06 4.43849261866809e-08
8.63870000000000e+01 1.42070494708018e-06 4.15569743628910e-08
8.69610000000000e+01 1.32575915060197e-06 3.89083443738382e-08
8.75350000000000e+01 1.23715858737392e-06 3.64277309572167e-08
8.81090000000000e+01 1.15447920507890e-06 3.41045365160955e-08
8.86830000000000e+01 1.07732529084145e-06 3.19288272185385e-08
8.92570000000000e+01 1.00532757730123e-06 2.98912917890917e-08
8.98310000000000e+01 9.38141475257628e-07 2.79832028296272e-08
9.04050000000000e+01 8.75445424426919e-07 2.61963805166349e-08
9.09790000000000e+01 8.16939354418333e-07 2.45231585311018e-08
9.15530000000000e+01 7.62343248563241e-07 2.29563520856527e-08
9.21270000000000e+01 7.11395803723705e-07 2.14892279216636e-08
9.27010000000000e+01 6.63853179666107e-07 2.01154761566396e-08
9.32750000000000e+01 6.19487832014204e-07 1.88291838692837e-08
9.38490000000000e+01 5.78087423196011e-07 1.76248103164094e-08
9.44230000000000e+01 5.39453806172164e-07 1.64971636821783e-08
9.49970000000000e+01 5.03402076081773e-07 1.54413792661151e-08
9.55710000000000e+01 4.69759685266848e-07 1.44528990219587e-08
9.61450000000000e+01 4.38365617439690e-07 1.35274523647000e-08
9.67190000000000e+01 4.09069617040724e-07 1.26610381681288e-08
9.72930000000000e+01 3.81731470098398e-07 1.18499078798983e-08
9.78670000000000e+01 3.56220333149253e-07 1.10905496855189e-08
9.84410000000000e+01 3.32414107006309e-07 1.03796736568419e-08
9.90150000000000e+01 3.10198852378547e-07 9.71419782449341e-09
9.95890000000000e+01 2.89468244544572e-07 9.09123511738762e-09
1.00163000000000e+02 2.70123064470470e-07 8.50808111590198e-09
1.00737000000000e+02 2.52070723936292e-07 7.96220256854018e-09
1.01311000000000e+02 2.35224822398356e-07 7.45122662496356e-09
1.01885000000000e+02 2.19504733466480e-07 6.97293074113999e-09
1.02459000000000e+02 2.04835219016949e-07 6.52523321505841e-09
1.03033000000000e+02 1.91146069094354e-07 6.10618431399406e-09
1.03607000000000e+02 1.78371765878798e-07 5.71395795669291e-09
1.04181000000000e+02 1.66451170110202e-07 5.34684391608574e-09
1.04755000000000e+02 1.55327228468890e-07 5.00324051024832e-09
1.05329000000000e+02 1.44946700511948e-07 4.68164775130294e-09
1.05903000000000e+02 1.35259903858442e-07 4.38066092381665e-09
1.06477000000000e+02 1.26220476403924e-07 4.09896456599901e-09
1.07051000000000e+02 1.17785154426156e-07 3.83532682864295e-09
1.07625000000000e+02 1.09913565520040e-07 3.58859418829531e-09
1.08199000000000e+02 1.02568035370724e-07 3.35768649259149e-09
1.08773000000000e+02 9.57134074400668e-08 3.14159231704920e-09
1.09347000000000e+02 8.93168747034720e-08 2.93936461389430e-09
1.09921000000000e+02 8.33478226317564e-08 2.75011663469107e-09
1.10495000000000e+02 7.77776826665508e-08 2.57301810967652e-09
1.11069000000000e+02 7.25797954879484e-08 2.40729166775586e-09
1.11643000000000e+02 6.77292834199843e-08 2.25220948210986e-09
1.12217000000000e+02 6.32029313632642e-08 2.10709012729719e-09
1.12791000000000e+02 5.89790756848732e-08 1.97129563461017e-09
1.13365000000000e+02 5.50375005337783e-08 1.84422873326446e-09
1.13939000000000e+02 5.13593410854783e-08 1.72533026577406e-09
1.14513000000000e+02 4.79269932528206e-08 1.61407676658755e-09
1.15087000000000e+02 4.47240294308483e-08 1.50997819374030e-09
1.15661000000000e+02 4.17351198724253e-08 1.41257580391561e-09
1.16235000000000e+02 3.89459593183322e-08 1.32144016190573e-09
1.16809000000000e+02 3.63431985306777e-08 1.23616927602531e-09
1.17383000000000e+02 3.39143804019363e-08 1.15638685155666e-09
1.17957000000000e+02 3.16478803338225e-08 1.08174065480060e-09
1.18531000000000e+02 2.95328506006485e-08 1.01190098077018e-09
1.19105000000000e+02 2.75591684308825e-08 9.46559217999899e-10
1.19679000000000e+02 2.57173875584185e-08 8.85426504350969e-10
1.20253000000000e+02 2.39986930116787e-08 8.28232468076135e-10
1.20827000000000e+02 2.23948589241627e-08 7.74724048766629e-10
1.21401000000000e+02 2.08982091645192e-08 7.24664393140622e-10
1.21975000000000e+02 1.95015805977141e-08 6.77831820948538e-10
1.22549000000000e+02 1.81982888014553e-08 6.34018856566767e-10
1.23123000000000e+02 1.69820960737917e-08 5.93031322129244e-10
1.23697000000000e+02 1.58471815787662e-08 5.54687488306869e-10
1.24271000000000e+02 1.47881134872367e-08 5.18817279089106e-10
1.24845000000000e+02 1.37998229795268e-08 4.85261527151221e-10
1.25419000000000e+02 1.28775799854820e-08 4.53871276605410e-10
1.25993000000000e+02 1.20169705458187e-08 4.24507130135471e-10
1.26567000000000e+02 1.12138756864161e-08 3.97038637703586e-10
1.27141000000000e+02 1.04644517044397e-08 3.71343724194765e-10
1.27715000000000e+02 9.76511177194513e-09 3.47308153530485e-10
1.28289000000000e+02 9.11250876891374e-09 3.24825026938659e-10
1.28863000000000e+02 8.50351926355773e-09 3.03794313212948e-10
1.29437000000000e+02 7.93522856322224e-09 2.84122408931106e-10
1.30011000000000e+02 7.40491676433663e-09 2.65721726730219e-10
1.30585000000000e+02 6.91004573464836e-09 2.48510309856841e-10
1.31159000000000e+02 6.44824696543494e-09 2.32411471322566e-10
1.31733000000000e+02 6.01731023555329e-09 2.17353456101132e-10
1.32307000000000e+02 5.61517303307133e-09 2.03269124902020e-10
1.32881000000000e+02 5.23991068385264e-09 1.90095658148192e-10
1.33455000000000e+02 4.88972713984827e-09 1.77774278872465e-10
1.34029000000000e+02 4.56294638300769e-09 1.66249993328391e-10
1.34603000000000e+02 4.25800440366679e-09 1.55471348187802e-10
1.35177000000000e+02 3.97344171502075e-09 1.45390203268618e-10
1.35751000000000e+02 3.70789636785508e-09 1.35961518803481e-10
1.36325000000000e+02 3.46009743210266e-09 1.27143156322545e-10
1.36899000000000e+02 3.22885891402867e-09 1.18895692282496e-10
1.37473000000000e+02 3.01307407993045e-09 1.11182243628977e-10
1.38047000000000e+02 2.81171015918477e-09 1.03968304531201e-10
1.38621000000000e+02 2.62380340129086e-09 9.72215935758575e-11
1.39195000000000e+02 2.44845446325148e-09 9.09119107527157e-11
1.39769000000000e+02 2.28482410521563e-09 8.50110036067586e-11
1.40343000000000e+02 2.13212917378165e-09 7.94924419714202e-11
1.40917000000000e+02 1.98963885373654e-09 7.43315007347339e-11
1.41491000000000e+02 1.85667117029161e-09 6.95050501250715e-11
1.42065000000000e+02 1.73258972507403e-09 6.49914530358186e-11
1.42639000000000e+02 1.61680065025227e-09 6.07704689389370e-11
1.43213000000000e+02 1.50874976621743e-09 5.68231639660171e-11
1.43787000000000e+02 1.40791992921698e-09 5.31318267622713e-11
1.44361000000000e+02 1.31382855624627e-09 4.96798897440605e-11
1.44935000000000e+02 1.22602531535168e-09 4.64518554140921e-11
1.45509000000000e+02 1.14408997029094e-09 4.34332274104790e-11
1.46083000000000e+02 1.06763036923496e-09 4.06104459865079e-11
1.46657000000000e+02 9.96280567884816e-10 3.79708276373004e-11
1.47231000000000e+02 9.29699078020933e-10 3.55025086076669e-11
1.47805000000000e+02 8.67567233101853e-10 3.31943920324150e-11
1.48379000000000e+02 8.09587663090119e-10 3.10360984762577e-11
1.48953000000000e+02 7.55482871205640e-10 2.90179196553419e-11
1.49527000000000e+02 7.04993905794712e-10 2.71307751363411e-11
1.50101000000000e+02 6.57879120958121e-10 2.53661718221052e-11
1.50675000000000e+02 6.13913020006529e-10 2.37161660450637e-11
1.51249000000000e+02 5.72885176207818e-10 2.21733281010188e-11
1.51823000000000e+02 5.34599225660944e-10 2.07307090666654e-11
1.52397000000000e+02 4.98871927476103e-10 1.93818097542040e-11
1.52971000000000e+02 4.65532286763100e-10 1.81205516657919e-11
1.53545000000000e+02 4.34420736230469e-10 1.69412498193673e-11
1.54119000000000e+02 4.05388372478360e-10 1.58385873256068e-11
1.54693000000000e+02 3.78296243330033e-10 1.48075916034762e-11
1.55267000000000e+02 3.53014682791019e-10 1.38436121290484e-11
1.55841000000000e+02 3.29422690453004e-10 1.29422996190055e-11
1.56415000000000e+02 3.07407352372190e-10 1.20995865565675e-11
1.56989000000000e+02 2.86863300650388e-10 1.13116689734997e-11
1.57563000000000e+02 2.67692209132338e-10 1.05749894073920e-11
1.58137000000000e+02 2.49802322805613e-10 9.88622095858368e-12
1.58711000000000e+02 2.33108018650742e-10 9.24225237596164e-12
1.59285000000000e+02 2.17529395839764e-10 8.64017410539934e-12
1.59859000000000e+02 2.02991893321823e-10 8.07726523885751e-12
1.60433000000000e+02 1.89425932965543e-10 7.55098130614544e-12
1.61007000000000e+02 1.76766586550226e-10 7.05894285506609e-12
1.61581000000000e+02 1.64953265012043e-10 6.59892476915583e-12
1.62155000000000e+02 1.53929428457918e-10 6.16884627549146e-12
1.62729000000000e+02 1.43642315559205e-10 5.76676159809163e-12
1.63303000000000e+02 1.34042691030008e-10 5.39085121529858e-12
1.63877000000000e+02 1.25084609981524e-10 5.03941368220075e-12
1.64451000000000e+02 1.16725198024614e-10 4.71085798166091e-12
1.65025000000000e+02 1.08924446068129e-10 4.40369636985793e-12
1.65599000000000e+02 1.01645018830869e-10 4.11653768444328e-12
1.66173000000000e+02 9.48520761507058e-11 3.84808108546540e-12
1.66747000000000e+02 8.85131062356300e-11 3.59711020113641e-12
1.67321000000000e+02 8.25977700586328e-11 3.36248765231264e-12
1.67895000000000e+02 7.70777561516929e-11 3.14314993124286e-12
1.68469000000000e+02 7.19266451038880e-11 2.93810261171201e-12
1.69043000000000e+02 6.71197831151060e-11 2.74641586918162e-12
1.69617000000000e+02 6.26341640001689e-11 2.56722029090601e-12
1.70191000000000e+02 5.84483190786284e-11 2.39970295729402e-12
1.70765000000000e+02 5.45422144232331e-11 2.24310377699231e-12
1.71339000000000e+02 5.08971549752864e-11 2.09671205929616e-12
1.71913000000000e+02 4.74956950679811e-11 1.95986330855055e-12
1.72487000000000e+02 4.43215549294649e-11 1.83193622619280e-12
1.73061000000000e+02 4.13595427660108e-11 1.71234990701404e-12
1.73635000000000e+02 3.85954820523742e-11 1.60056121708173e-12
1.74209000000000e+02 3.60161436813391e-11 1.49606234157640e-12
1.74783000000000e+02 3.36091826477154e-11 1.39837849155302e-12
1.75357000000000e+02 3.13630789637470e-11 1.30706575934704e-12
1.75931000000000e+02 2.92670825231476e-11 1.22170911300853e-12
1.76505000000000e+02 2.73111616498764e-11 1.14192052076856e-12
1.77079000000000e+02 2.54859550854015e-11 1.06733719712306e-12
1.77653000000000e+02 2.37827271846579e-11 9.97619962662378e-13
1.78227000000000e+02 2.21933261062622e-11 9.32451710283669e-13
1.78801000000000e+02 2.07101447968775e-11 8.71535970898486e-13
1.79375000000000e+02 1.93260845829957e-11 8.14595572193175e-13
1.79949000000000e+02 1.80345211958836e-11 7.61371384415909e-13
1.80523000000000e+02 1.68292730670829e-11 7.11621147553640e-13
1.81097000000000e+02 1.57045717427245e-11 6.65118374626653e-13
