Energy (eV)          EEDF (eV^-(3/2))     First Anisotropy
4.26250000000000e-03 1.14453423118917e+00 6.70171979796214e-04
1.27875000000000e-02 1.13469793721320e+00 1.10560592056893e-03
2.13125000000000e-02 1.12494617777956e+00 1.45677652818432e-03
2.98375000000000e-02 1.11527822638725e+00 1.72189663350646e-03
3.83625000000000e-02 1.10569336277797e+00 1.94163484631271e-03
4.68875000000000e-02 1.09619087288329e+00 2.13140654369676e-03
5.54125000000000e-02 1.08677004877154e+00 2.29920846009003e-03
6.39375000000000e-02 1.07743018859508e+00 2.44988095633761e-03
7.24625000000000e-02 1.06817059653808e+00 2.58664169872208e-03
8.09875000000000e-02 1.05899058276461e+00 2.71177009981015e-03
8.95125000000000e-02 1.04988946336733e+00 2.82695735169098e-03
9.80375000000000e-02 1.04086656031646e+00 2.93350328146407e-03
1.06562500000000e-01 1.03192120140934e+00 3.03243514520503e-03
1.15087500000000e-01 1.02305272022028e+00 3.12458333638742e-03
1.23612500000000e-01 1.01426045605097e+00 3.21063178738215e-03
1.32137500000000e-01 1.00554375388125e+00 3.29115274459105e-03
1.40662500000000e-01 9.96901964320281e-01 3.36663148947679e-03
1.49187500000000e-01 9.88334443558180e-01 3.43748436364603e-03
1.57712500000000e-01 9.79840553318069e-01 3.50407220152017e-03
1.66237500000000e-01 9.71419660808513e-01 3.56671053245010e-03
1.74762500000000e-01 9.63071138676378e-01 3.62567745948573e-03
1.83287500000000e-01 9.54794364960094e-01 3.68121983441844e-03
1.91812500000000e-01 9.46588723043319e-01 3.73355816170698e-03
2.00337500000000e-01 9.38453601609001e-01 3.78289053929765e-03
2.08862500000000e-01 9.30388394593838e-01 3.82939585951692e-03
2.17387500000000e-01 9.22392501143123e-01 3.87323643431452e-03
2.25912500000000e-01 9.14465325565982e-01 3.91456016752272e-03
2.34437500000000e-01 9.06606277290996e-01 3.95350236692537e-03
2.42962500000000e-01 8.98814770822200e-01 3.99018726717000e-03
2.51487500000000e-01 8.91090225695471e-01 4.02472931850006e-03
2.60012500000000e-01 8.83432066435275e-01 4.05723428428284e-03
2.68537500000000e-01 8.75839722511801e-01 4.08780018124386e-03
2.77062500000000e-01 8.68312628298454e-01 4.11651808939681e-03
2.85587500000000e-01 8.60850223029716e-01 4.14347285332113e-03
2.94112500000000e-01 8.53451950759370e-01 4.16874369228998e-03
3.02637500000000e-01 8.46117260319082e-01 4.19240473349286e-03
3.11162500000000e-01 8.38845605277338e-01 4.21452548002592e-03
3.19687500000000e-01 8.31636443898737e-01 4.23517122327256e-03
3.28212500000000e-01 8.24489239103630e-01 4.25440340764879e-03
3.36737500000000e-01 8.17403458428110e-01 4.27227995436790e-03
3.45262500000000e-01 8.10378573984342e-01 4.28885554979577e-03
3.53787500000000e-01 8.03414062421236e-01 4.30418190308811e-03
3.62312500000000e-01 7.96509404885457e-01 4.31830797708159e-03
3.70837500000000e-01 7.89664086982771e-01 4.33128019581029e-03
3.79362500000000e-01 7.82877598739724e-01 4.34314263152592e-03
3.87887500000000e-01 7.76149434565648e-01 4.35393717368534e-03
3.96412500000000e-01 7.69479093214994e-01 4.36370368202493e-03
4.04937500000000e-01 7.62866077749991e-01 4.37248012555048e-03
4.13462500000000e-01 7.56309895503624e-01 4.38030270902421e-03
4.21987500000000e-01 7.49810058042929e-01 4.38720598832586e-03
4.30512500000000e-01 7.43366081132607e-01 4.39322297588483e-03
4.39037500000000e-01 7.36977484698948e-01 4.39838523723009e-03
4.47562500000000e-01 7.30643792794065e-01 4.40272297957632e-03
4.56087500000000e-01 7.24364533560434e-01 4.40626513325228e-03
4.64612500000000e-01 7.18139239195748e-01 4.40903942668295e-03
4.73137500000000e-01 7.11967445918058e-01 4.41107245555249e-03
4.81662500000000e-01 7.05848693931226e-01 4.41238974670428e-03
4.90187500000000e-01 6.99782527390668e-01 4.41301581727215e-03
4.98712500000000e-01 6.93768494369395e-01 4.41297422948113e-03
5.07237500000000e-01 6.87806146824346e-01 4.41228764151007e-03
5.15762500000000e-01 6.81895040563005e-01 4.41097785476551e-03
5.24287500000000e-01 6.76034735210313e-01 4.40906585787972e-03
5.32812500000000e-01 6.70224794175858e-01 4.40657186771502e-03
5.41337500000000e-01 6.64464784621348e-01 4.40351536762619e-03
5.49862500000000e-01 6.58754277428369e-01 4.39991514320763e-03
5.58387500000000e-01 6.53092847166412e-01 4.39578931573189e-03
5.66912500000000e-01 6.47480072061178e-01 4.39115537346468e-03
5.75437500000000e-01 6.41915533963161e-01 4.38603020102257e-03
5.83962500000000e-01 6.36398818316491e-01 4.38043010692696e-03
5.92487500000000e-01 6.30929514128052e-01 4.37437084949243e-03
6.01012500000000e-01 6.25507213936862e-01 4.36786766117377e-03
6.09537500000000e-01 6.20131513783719e-01 4.36093527148746e-03
6.18062500000000e-01 6.14802013181106e-01 4.35358792861099e-03
6.26587500000000e-01 6.09518315083351e-01 4.34583941975511e-03
6.35112500000000e-01 6.04280025857053e-01 4.33770309039682e-03
6.43637500000000e-01 5.99086755251754e-01 4.32919186245247e-03
6.52162500000000e-01 5.93938116370864e-01 4.32031825146364e-03
6.60687500000000e-01 5.88833725642838e-01 4.31109438286364e-03
6.69212500000000e-01 5.83773202792604e-01 4.30153200738614e-03
6.77737500000000e-01 5.78756170813226e-01 4.29164251567170e-03
6.86262500000000e-01 5.73782255937823e-01 4.28143695212589e-03
6.94787500000000e-01 5.68851087611718e-01 4.27092602807624e-03
7.03312500000000e-01 5.63962298464837e-01 4.26012013427285e-03
7.11837500000000e-01 5.59115524284340e-01 4.24902935277414e-03
7.20362500000000e-01 5.54310403987481e-01 4.23766346825520e-03
7.28887500000000e-01 5.49546579594714e-01 4.22603197877419e-03
7.37412500000000e-01 5.44823696203021e-01 4.21414410602871e-03
7.45937500000000e-01 5.40141401959473e-01 4.20200880513438e-03
7.54462500000000e-01 5.35499348035015e-01 4.18963477395225e-03
7.62987500000000e-01 5.30897188598480e-01 4.17703046199143e-03
7.71512500000000e-01 5.26334580790827e-01 4.16420407891123e-03
7.80037500000000e-01 5.21811184699591e-01 4.15116360264557e-03
7.88562500000000e-01 5.17326663333568e-01 4.13791678717188e-03
7.97087500000000e-01 5.12880682597704e-01 4.12447116994205e-03
8.05612500000000e-01 5.08472911268207e-01 4.11083407899532e-03
8.14137500000000e-01 5.04103020967869e-01 4.09701263977027e-03
8.22662500000000e-01 4.99770686141607e-01 4.08301378163172e-03
8.31187500000000e-01 4.95475584032202e-01 4.06884424412732e-03
8.39712500000000e-01 4.91217394656261e-01 4.05451058298805e-03
8.48237500000000e-01 4.86995800780371e-01 4.04001917588641e-03
8.56762500000000e-01 4.82810487897474e-01 4.02537622796357e-03
8.65287500000000e-01 4.78661144203426e-01 4.01058777713866e-03
8.73812500000000e-01 4.74547460573779e-01 3.99565969920959e-03
8.82337500000000e-01 4.70469130540741e-01 3.98059771275622e-03
8.90862500000000e-01 4.66425850270352e-01 3.96540738385624e-03
8.99387500000000e-01 4.62417318539842e-01 3.95009413062148e-03
9.07912500000000e-01 4.58443236715197e-01 3.93466322756399e-03
9.16437500000000e-01 4.54503308728905e-01 3.91911980980066e-03
9.24962500000000e-01 4.50597241057901e-01 3.90346887710243e-03
9.33487500000000e-01 4.46724742701702e-01 3.88771529779596e-03
9.42012500000000e-01 4.42885525160725e-01 3.87186381252531e-03
9.50537500000000e-01 4.39079302414791e-01 3.85591903787848e-03
9.59062500000000e-01 4.35305790901826e-01 3.83988546988602e-03
9.67587500000000e-01 4.31564709496725e-01 3.82376748739738e-03
9.76112500000000e-01 4.27855779490416e-01 3.80756935533949e-03
9.84637500000000e-01 4.24178724569092e-01 3.79129522786356e-03
9.93162500000000e-01 4.20533270793628e-01 3.77494915138483e-03
1.00168750000000e+00 4.16919146579170e-01 3.75853506751911e-03
1.01021250000000e+00 4.13336082674905e-01 3.74205681592143e-03
1.01873750000000e+00 4.09783812144001e-01 3.72551813703087e-03
1.02726250000000e+00 4.06262070343720e-01 3.70892267472443e-03
1.03578750000000e+00 4.02770594905702e-01 3.69227397888449e-03
1.04431250000000e+00 3.99309125716419e-01 3.67557550788410e-03
1.05283750000000e+00 3.95877404897796e-01 3.65883063099159e-03
1.06136250000000e+00 3.92475176788001e-01 3.64204263069942e-03
1.06988750000000e+00 3.89102187922395e-01 3.62521470497910e-03
1.07841250000000e+00 3.85758187014654e-01 3.60834996946578e-03
1.08693750000000e+00 3.82442924938043e-01 3.59145145957551e-03
1.09546250000000e+00 3.79156154706859e-01 3.57452213255676e-03
1.10398750000000e+00 3.75897631458030e-01 3.55756486947938e-03
1.11251250000000e+00 3.72667112432873e-01 3.54058247716378e-03
1.12103750000000e+00 3.69464356959009e-01 3.52357769005147e-03
1.12956250000000e+00 3.66289126432433e-01 3.50655317202006e-03
1.13808750000000e+00 3.63141184299735e-01 3.48951151814476e-03
1.14661250000000e+00 3.60020296040482e-01 3.47245525640765e-03
1.15513750000000e+00 3.56926229149744e-01 3.45538684935721e-03
1.16366250000000e+00 3.53858753120770e-01 3.43830869571965e-03
1.17218750000000e+00 3.50817639427818e-01 3.42122313196407e-03
1.18071250000000e+00 3.47802661509133e-01 3.40413243382329e-03
1.18923750000000e+00 3.44813594750060e-01 3.38703881777045e-03
1.19776250000000e+00 3.41850216466319e-01 3.36994444245472e-03
1.20628750000000e+00 3.38912305887407e-01 3.35285141009677e-03
1.21481250000000e+00 3.35999644140159e-01 3.33576176784531e-03
1.22333750000000e+00 3.33112014232436e-01 3.31867750909626e-03
1.23186250000000e+00 3.30249201036960e-01 3.30160057477569e-03
1.24038750000000e+00 3.27410991275291e-01 3.28453285458731e-03
1.24891250000000e+00 3.24597173501932e-01 3.26747618822676e-03
1.25743750000000e+00 3.21807538088581e-01 3.25043236656328e-03
1.26596250000000e+00 3.19041877208512e-01 3.23340313278892e-03
1.27448750000000e+00 3.16299984821093e-01 3.21639018353818e-03
1.28301250000000e+00 3.13581656656433e-01 3.19939516997733e-03
1.29153750000000e+00 3.10886690200168e-01 3.18241969886489e-03
1.30006250000000e+00 3.08214884678372e-01 3.16546533358533e-03
1.30858750000000e+00 3.05566041042599e-01 3.14853359515544e-03
1.31711250000000e+00 3.02939961955053e-01 3.13162596320396e-03
1.32563750000000e+00 3.00336451773891e-01 3.11474387692732e-03
1.33416250000000e+00 2.97755316538640e-01 3.09788873602025e-03
1.34268750000000e+00 2.95196363955756e-01 3.08106190158231e-03
1.35121250000000e+00 2.92659403384291e-01 3.06426469700230e-03
1.35973750000000e+00 2.90144245821694e-01 3.04749840882022e-03
1.36826250000000e+00 2.87650703889730e-01 3.03076428756743e-03
1.37678750000000e+00 2.85178591820518e-01 3.01406354858591e-03
1.38531250000000e+00 2.82727725442696e-01 2.99739737282739e-03
1.39383750000000e+00 2.80297922167695e-01 2.98076690763282e-03
1.40236250000000e+00 2.77889000976140e-01 2.96417326749264e-03
1.41088750000000e+00 2.75500782404362e-01 2.94761753478838e-03
1.41941250000000e+00 2.73133088531031e-01 2.93110076051637e-03
1.42793750000000e+00 2.70785742963897e-01 2.91462396499388e-03
1.43646250000000e+00 2.68458570826651e-01 2.89818813854845e-03
1.44498750000000e+00 2.66151398745896e-01 2.88179424219049e-03
1.45351250000000e+00 2.63864054838232e-01 2.86544320827003e-03
1.46203750000000e+00 2.61596368697451e-01 2.84913594111769e-03
1.47056250000000e+00 2.59348171381839e-01 2.83287331767061e-03
1.47908750000000e+00 2.57119295401591e-01 2.81665618808369e-03
1.48761250000000e+00 2.54909574706337e-01 2.80048537632624e-03
1.49613750000000e+00 2.52718844672766e-01 2.78436168076531e-03
1.50466250000000e+00 2.50546942092363e-01 2.76828587473476e-03
1.51318750000000e+00 2.48393705159253e-01 2.75225870709150e-03
1.52171250000000e+00 2.46258973458141e-01 2.73628090275891e-03
1.53023750000000e+00 2.44142587952368e-01 2.72035316325768e-03
1.53876250000000e+00 2.42044390972058e-01 2.70447616722469e-03
1.54728750000000e+00 2.39964226202371e-01 2.68865057091991e-03
1.55581250000000e+00 2.37901938671862e-01 2.67287700872180e-03
1.56433750000000e+00 2.35857374740932e-01 2.65715609361138e-03
1.57286250000000e+00 2.33830382090383e-01 2.64148841764573e-03
1.58138750000000e+00 2.31820809710072e-01 2.62587455242043e-03
1.58991250000000e+00 2.29828507887656e-01 2.61031504952212e-03
1.59843750000000e+00 2.27853328197445e-01 2.59481044097079e-03
1.60696250000000e+00 2.25895123489339e-01 2.57936123965187e-03
1.61548750000000e+00 2.23953747877868e-01 2.56396793973911e-03
1.62401250000000e+00 2.22029056731323e-01 2.54863101710803e-03
1.63253750000000e+00 2.20120906660981e-01 2.53335092974077e-03
1.64106250000000e+00 2.18229155510422e-01 2.51812811812084e-03
1.64958750000000e+00 2.16353662344940e-01 2.50296300562028e-03
1.65811250000000e+00 2.14494287441043e-01 2.48785599887825e-03
1.66663750000000e+00 2.12650892276040e-01 2.47280748817104e-03
1.67516250000000e+00 2.10823339517728e-01 2.45781784777444e-03
1.68368750000000e+00 2.09011493014154e-01 2.44288743631759e-03
1.69221250000000e+00 2.07215217783476e-01 2.42801659713011e-03
1.70073750000000e+00 2.05434380003906e-01 2.41320565858105e-03
1.70926250000000e+00 2.03668847003739e-01 2.39845493441100e-03
1.71778750000000e+00 2.01918487251470e-01 2.38376472405703e-03
1.72631250000000e+00 2.00183170345997e-01 2.36913531297023e-03
1.73483750000000e+00 1.98462767006900e-01 2.35456697292723e-03
1.74336250000000e+00 1.96757149064818e-01 2.34005996233479e-03
1.75188750000000e+00 1.95066189451894e-01 2.32561452652767e-03
1.76041250000000e+00 1.93389762192311e-01 2.31123089806054e-03
1.76893750000000e+00 1.91727742392906e-01 2.29690929699376e-03
1.77746250000000e+00 1.90080006233867e-01 2.28264993117284e-03
1.78598750000000e+00 1.88446430959507e-01 2.26845299650224e-03
1.79451250000000e+00 1.86826894869120e-01 2.25431867721364e-03
1.80303750000000e+00 1.85221277307912e-01 2.24024714612833e-03
1.81156250000000e+00 1.83629458658015e-01 2.22623856491418e-03
1.82008750000000e+00 1.82051320329575e-01 2.21229308433718e-03
1.82861250000000e+00 1.80486744751915e-01 2.19841084450802e-03
1.83713750000000e+00 1.78935615364778e-01 2.18459197512336e-03
1.84566250000000e+00 1.77397816609644e-01 2.17083659570207e-03
1.85418750000000e+00 1.75873233921119e-01 2.15714481581696e-03
1.86271250000000e+00 1.74361753718399e-01 2.14351673532112e-03
1.87123750000000e+00 1.72863263396814e-01 2.12995244457008e-03
1.87976250000000e+00 1.71377651319430e-01 2.11645202463931e-03
1.88828750000000e+00 1.69904806808740e-01 2.10301554753709e-03
1.89681250000000e+00 1.68444620138417e-01 2.08964307641351e-03
1.90533750000000e+00 1.66996982525135e-01 2.07633466576456e-03
1.91386250000000e+00 1.65561786120468e-01 2.06309036163230e-03
1.92238750000000e+00 1.64138924002858e-01 2.04991020180105e-03
1.93091250000000e+00 1.62728290169643e-01 2.03679421598970e-03
1.93943750000000e+00 1.61329779529166e-01 2.02374242603979e-03
1.94796250000000e+00 1.59943287892941e-01 2.01075484609992e-03
1.95648750000000e+00 1.58568711967895e-01 1.99783148280655e-03
1.96501250000000e+00 1.57205949348668e-01 1.98497233546089e-03
1.97353750000000e+00 1.55854898509989e-01 1.97217739620256e-03
1.98206250000000e+00 1.54515458799110e-01 1.95944665017936e-03
1.99058750000000e+00 1.53187530428306e-01 1.94678007571373e-03
1.99911250000000e+00 1.51871014467442e-01 1.93417764446603e-03
2.00763750000000e+00 1.50565812836605e-01 1.92163932159449e-03
2.01616250000000e+00 1.49271828298793e-01 1.90916506591188e-03
2.02468750000000e+00 1.47988964452674e-01 1.89675483003886e-03
2.03321250000000e+00 1.46717125725403e-01 1.88440856055449e-03
2.04173750000000e+00 1.45456217365503e-01 1.87212619814375e-03
2.05026250000000e+00 1.44206145435803e-01 1.85990767774192e-03
2.05878750000000e+00 1.42966816806442e-01 1.84775292867619e-03
2.06731250000000e+00 1.41738139147932e-01 1.83566187480439e-03
2.07583750000000e+00 1.40520020924277e-01 1.82363443465091e-03
2.08436250000000e+00 1.39312371386156e-01 1.81167052154006e-03
2.09288750000000e+00 1.38115100564158e-01 1.79977004372652e-03
2.10141250000000e+00 1.36928119262086e-01 1.78793290452345e-03
2.10993750000000e+00 1.35751339050305e-01 1.77615900242803e-03
2.11846250000000e+00 1.34584672259159e-01 1.76444823124418e-03
2.12698750000000e+00 1.33428031972437e-01 1.75280048020304e-03
2.13551250000000e+00 1.32281332020899e-01 1.74121563408109e-03
2.14403750000000e+00 1.31144486975856e-01 1.72969357331593e-03
2.15256250000000e+00 1.30017412142805e-01 1.71823417411968e-03
2.16108750000000e+00 1.28900023555120e-01 1.70683730859017e-03
2.16961250000000e+00 1.27792237967797e-01 1.69550284481990e-03
2.17813750000000e+00 1.26693972851252e-01 1.68423064700262e-03
2.18666250000000e+00 1.25605146385171e-01 1.67302057553815e-03
2.19518750000000e+00 1.24525677452417e-01 1.66187248713516e-03
2.20371250000000e+00 1.23455485632984e-01 1.65078623491139e-03
2.21223750000000e+00 1.22394491198009e-01 1.63976166849218e-03
2.22076250000000e+00 1.21342615103829e-01 1.62879863410717e-03
2.22928750000000e+00 1.20299778986095e-01 1.61789697468502e-03
2.23781250000000e+00 1.19265905153931e-01 1.60705652994597e-03
2.24633750000000e+00 1.18240916584150e-01 1.59627713649285e-03
2.25486250000000e+00 1.17224736915512e-01 1.58555862790031e-03
2.26338750000000e+00 1.16217290443036e-01 1.57490083480182e-03
2.27191250000000e+00 1.15218502112361e-01 1.56430358497553e-03
2.28043750000000e+00 1.14228297514157e-01 1.55376670342812e-03
2.28896250000000e+00 1.13246602878573e-01 1.54329001247694e-03
2.29748750000000e+00 1.12273345069753e-01 1.53287333183059e-03
2.30601250000000e+00 1.11308451580377e-01 1.52251647866786e-03
2.31453750000000e+00 1.10351850526264e-01 1.51221926771520e-03
2.32306250000000e+00 1.09403470641019e-01 1.50198151132245e-03
2.33158750000000e+00 1.08463241270716e-01 1.49180301953705e-03
2.34011250000000e+00 1.07531092368644e-01 1.48168360017709e-03
2.34863750000000e+00 1.06606954490080e-01 1.47162305890264e-03
2.35716250000000e+00 1.05690758787121e-01 1.46162119928554e-03
2.36568750000000e+00 1.04782437003553e-01 1.45167782287799e-03
2.37421250000000e+00 1.03881921469764e-01 1.44179272927975e-03
2.38273750000000e+00 1.02989145097707e-01 1.43196571620388e-03
2.39126250000000e+00 1.02104041375898e-01 1.42219657954130e-03
2.39978750000000e+00 1.01226544364462e-01 1.41248511342387e-03
2.40831250000000e+00 1.00356588690222e-01 1.40283111028626e-03
2.41683750000000e+00 9.94941095418272e-02 1.39323436092672e-03
2.42536250000000e+00 9.86390426649246e-02 1.38369465456643e-03
2.43388750000000e+00 9.77913243573729e-02 1.37421177890777e-03
2.44241250000000e+00 9.69508914644962e-02 1.36478552019131e-03
2.45093750000000e+00 9.61176813743791e-02 1.35541566325167e-03
2.45946250000000e+00 9.52916320132020e-02 1.34610199157235e-03
2.46798750000000e+00 9.44726818406169e-02 1.33684428733920e-03
2.47651250000000e+00 9.36607698451624e-02 1.32764233149317e-03
2.48503750000000e+00 9.28558355397187e-02 1.31849590378152e-03
2.49356250000000e+00 9.20578189570008e-02 1.30940478280853e-03
2.50208750000000e+00 9.12666606450915e-02 1.30036874608463e-03
2.51061250000000e+00 9.04823016630121e-02 1.29138757007469e-03
2.51913750000000e+00 8.97046835763310e-02 1.28246103024568e-03
2.52766250000000e+00 8.89337484528109e-02 1.27358890111290e-03
2.53618750000000e+00 8.81694388580923e-02 1.26477095628534e-03
2.54471250000000e+00 8.74116978514154e-02 1.25600696851025e-03
2.55323750000000e+00 8.66604689813771e-02 1.24729670971673e-03
2.56176250000000e+00 8.59156962817262e-02 1.23863995105830e-03
2.57028750000000e+00 8.51773242671935e-02 1.23003646295479e-03
2.57881250000000e+00 8.44452979293583e-02 1.22148601513309e-03
2.58733750000000e+00 8.37195627325503e-02 1.21298837666732e-03
2.59586250000000e+00 8.30000646097866e-02 1.20454331601800e-03
2.60438750000000e+00 8.22867499587441e-02 1.19615060107036e-03
2.61291250000000e+00 8.15795656377655e-02 1.18780999917202e-03
2.62143750000000e+00 8.08784589619010e-02 1.17952127716968e-03
2.62996250000000e+00 8.01833776989827e-02 1.17128420144517e-03
2.63848750000000e+00 7.94942700657338e-02 1.16309853795068e-03
2.64701250000000e+00 7.88110847239101e-02 1.15496405224325e-03
2.65553750000000e+00 7.81337707764762e-02 1.14688050951833e-03
2.66406250000000e+00 7.74622777638131e-02 1.13884767464309e-03
2.67258750000000e+00 7.67965556599590e-02 1.13086531218866e-03
2.68111250000000e+00 7.61365548688825e-02 1.12293318646151e-03
2.68963750000000e+00 7.54822262207879e-02 1.11505106153462e-03
