Energy (eV)          EEDF (eV^-(3/2))     First Anisotropy
6.35156250000000e-04 9.85794059160696e+00 4.37141442241876e-03
1.90546875000000e-03 9.80486821622807e+00 7.22329997194798e-03
3.17578125000000e-03 9.75208156759604e+00 9.54843762664784e-03
4.44609375000000e-03 9.69957910741799e+00 1.13227141178077e-02
5.71640625000000e-03 9.64735930569937e+00 1.28089965297500e-02
6.98671875000000e-03 9.59542064068532e+00 1.41064563812385e-02
8.25703125000000e-03 9.54376159881440e+00 1.52663097372485e-02
9.52734375000000e-03 9.49238067467406e+00 1.63194225562501e-02
1.07976562500000e-02 9.44127637095661e+00 1.72862251584128e-02
1.20679687500000e-02 9.39044719841548e+00 1.81811288254003e-02
1.33382812500000e-02 9.33989167582187e+00 1.90147805710702e-02
1.46085937500000e-02 9.28960832992147e+00 1.97953290361539e-02
1.58789062500000e-02 9.23959569539161e+00 2.05291871144805e-02
1.71492187500000e-02 9.18985231479848e+00 2.12215171690053e-02
1.84195312500000e-02 9.14037673855474e+00 2.18765535181059e-02
1.96898437500000e-02 9.09116752487717e+00 2.24978245693053e-02
2.09601562500000e-02 9.04222323974473e+00 2.30883104676100e-02
2.22304687500000e-02 8.99354245685676e+00 2.36505578514587e-02
2.35007812500000e-02 8.94512375759139e+00 2.41867652280242e-02
2.47710937500000e-02 8.89696573096421e+00 2.46988477065395e-02
2.60414062500000e-02 8.84906697358716e+00 2.51884869050581e-02
2.73117187500000e-02 8.80142608962762e+00 2.56571699984454e-02
2.85820312500000e-02 8.75404169076775e+00 2.61062206750739e-02
2.98523437500000e-02 8.70691239616402e+00 2.65368239706207e-02
3.11226562500000e-02 8.66003683240696e+00 2.69500464037609e-02
3.23929687500000e-02 8.61341363348117e+00 2.73468524614821e-02
3.36632812500000e-02 8.56704144072548e+00 2.77281182155445e-02
3.49335937500000e-02 8.52091890279337e+00 2.80946426607043e-02
3.62039062500000e-02 8.47504467561359e+00 2.84471572263440e-02
3.74742187500000e-02 8.42941742235100e+00 2.87863338107145e-02
3.87445312500000e-02 8.38403581336760e+00 2.91127916104821e-02
4.00148437500000e-02 8.33889852618377e+00 2.94271029605413e-02
4.12851562500000e-02 8.29400424543978e+00 2.97297983549933e-02
4.25554687500000e-02 8.24935166285738e+00 3.00213707862546e-02
4.38257812500000e-02 8.20493947720178e+00 3.03022795129064e-02
4.50960937500000e-02 8.16076639424362e+00 3.05729533462044e-02
4.63664062500000e-02 8.11683112672133e+00 3.08337935288639e-02
4.76367187500000e-02 8.07313239430360e+00 3.10851762667184e-02
4.89070312500000e-02 8.02966892355206e+00 3.13274549634684e-02
5.01773437500000e-02 7.98643944788415e+00 3.15609622003344e-02
5.14476562500000e-02 7.94344270753627e+00 3.17860114955938e-02
5.27179687500000e-02 7.90067744952700e+00 3.20028988734462e-02
5.39882812500000e-02 7.85814242762063e+00 3.22119042670872e-02
5.52585937500000e-02 7.81583640229085e+00 3.24132927771042e-02
5.65289062500000e-02 7.77375814068459e+00 3.26073158031830e-02
5.77992187500000e-02 7.73190641658611e+00 3.27942120645141e-02
5.90695312500000e-02 7.69028001038128e+00 3.29742085221285e-02
6.03398437500000e-02 7.64887770902204e+00 3.31475212145591e-02
6.16101562500000e-02 7.60769830599102e+00 3.33143560166784e-02
6.28804687500000e-02 7.56674060126641e+00 3.34749093302610e-02
6.41507812500000e-02 7.52600340128697e+00 3.36293687137187e-02
6.54210937500000e-02 7.48548551891728e+00 3.37779134575090e-02
6.66914062500000e-02 7.44518577341309e+00 3.39207151108925e-02
6.79617187500000e-02 7.40510299038697e+00 3.40579379650398e-02
6.92320312500000e-02 7.36523600177405e+00 3.41897394968934e-02
7.05023437500000e-02 7.32558364579799e+00 3.43162707776466e-02
7.17726562500000e-02 7.28614476693713e+00 3.44376768492729e-02
7.30429687500000e-02 7.24691821589083e+00 3.45540970721610e-02
7.43132812500000e-02 7.20790284954593e+00 3.46656654465493e-02
7.55835937500000e-02 7.16909753094349e+00 3.47725109101613e-02
7.68539062500000e-02 7.13050112924563e+00 3.48747576141978e-02
7.81242187500000e-02 7.09211251970259e+00 3.49725251796166e-02
7.93945312500000e-02 7.05393058361993e+00 3.50659289354051e-02
8.06648437500000e-02 7.01595420832596e+00 3.51550801403977e-02
8.19351562500000e-02 6.97818228713929e+00 3.52400861900255e-02
8.32054687500000e-02 6.94061371933661e+00 3.53210508092632e-02
8.44757812500000e-02 6.90324741012057e+00 3.53980742328845e-02
8.57460937500000e-02 6.86608227058792e+00 3.54712533740542e-02
8.70164062500000e-02 6.82911721769775e+00 3.55406819822035e-02
8.82867187500000e-02 6.79235117423993e+00 3.56064507909843e-02
8.95570312500000e-02 6.75578306880374e+00 3.56686476570961e-02
9.08273437500000e-02 6.71941183574663e+00 3.57273576906815e-02
9.20976562500000e-02 6.68323641516316e+00 3.57826633778964e-02
9.33679687500000e-02 6.64725575285413e+00 3.58346446962496e-02
9.46382812500000e-02 6.61146880029586e+00 3.58833792232327e-02
9.59085937500000e-02 6.57587451460960e+00 3.59289422387195e-02
9.71789062500000e-02 6.54047185853119e+00 3.59714068215772e-02
9.84492187500000e-02 6.50525980038080e+00 3.60108439408923e-02
9.97195312500000e-02 6.47023731403288e+00 3.60473225772579e-02
1.00989843750000e-01 6.43540337873069e+00 3.60809096637308e-02
1.02260156250000e-01 6.40075697967961e+00 3.61116703730731e-02
1.03530468750000e-01 6.36629710693169e+00 3.61396680544897e-02
1.04800781250000e-01 6.33202275658196e+00 3.61649643300015e-02
1.06071093750000e-01 6.29793292953520e+00 3.61876191695093e-02
1.07341406250000e-01 6.26402663265957e+00 3.62076909439934e-02
1.08611718750000e-01 6.23030287759566e+00 3.62252364938319e-02
1.09882031250000e-01 6.19676068186948e+00 3.62403111762128e-02
1.11152343750000e-01 6.16339906774170e+00 3.62529689275063e-02
1.12422656250000e-01 6.13021706328215e+00 3.62632623055977e-02
1.13692968750000e-01 6.09721370125715e+00 3.62712425469882e-02
1.14963281250000e-01 6.06438802016750e+00 3.62769596046514e-02
1.16233593750000e-01 6.03173906317202e+00 3.62804622004722e-02
1.17503906250000e-01 5.99926587909077e+00 3.62817978591448e-02
1.18774218750000e-01 5.96696752136316e+00 3.62810129564337e-02
1.20044531250000e-01 5.93484304901801e+00 3.62781527495836e-02
1.21314843750000e-01 5.90289152566462e+00 3.62732614218619e-02
1.22585156250000e-01 5.87111202043123e+00 3.62663821098606e-02
1.23855468750000e-01 5.83950360698754e+00 3.62575569446979e-02
1.25125781250000e-01 5.80806536445305e+00 3.62468270765729e-02
1.26396093750000e-01 5.77679637644957e+00 3.62342327129593e-02
1.27666406250000e-01 5.74569573198077e+00 3.62198131407034e-02
1.28936718750000e-01 5.71476252451347e+00 3.62036067615122e-02
1.30207031250000e-01 5.68399585282966e+00 3.61856511118614e-02
1.31477343750000e-01 5.65339482013518e+00 3.61659828960419e-02
1.32747656250000e-01 5.62295853488554e+00 3.61446380040999e-02
1.34017968750000e-01 5.59268610992085e+00 3.61216515426786e-02
1.35288281250000e-01 5.56257666326642e+00 3.60970578511886e-02
1.36558593750000e-01 5.53262931729299e+00 3.60708905306463e-02
1.37828906250000e-01 5.50284319949313e+00 3.60431824582708e-02
1.39099218750000e-01 5.47321744166565e+00 3.60139658144813e-02
1.40369531250000e-01 5.44375118066888e+00 3.59832720960837e-02
1.41639843750000e-01 5.41444355762831e+00 3.59511321416042e-02
1.42910156250000e-01 5.38529371866764e+00 3.59175761431853e-02
1.44180468750000e-01 5.35630081413867e+00 3.58826336704029e-02
1.45450781250000e-01 5.32746399933116e+00 3.58463336810014e-02
1.46721093750000e-01 5.29878243372402e+00 3.58087045433273e-02
1.47991406250000e-01 5.27025528167474e+00 3.57697740460109e-02
1.49261718750000e-01 5.24188171169121e+00 3.57295694191223e-02
1.50532031250000e-01 5.21366089710142e+00 3.56881173429183e-02
1.51802343750000e-01 5.18559201534514e+00 3.56454439678086e-02
1.53072656250000e-01 5.15767424862466e+00 3.56015749222457e-02
1.54342968750000e-01 5.12990678321557e+00 3.55565353316215e-02
1.55613281250000e-01 5.10228881009933e+00 3.55103498253746e-02
1.56883593750000e-01 5.07481952429233e+00 3.54630425548911e-02
1.58153906250000e-01 5.04749812546102e+00 3.54146371998968e-02
1.59424218750000e-01 5.02032381726864e+00 3.53651569854394e-02
1.60694531250000e-01 4.99329580797346e+00 3.53146246453608e-02
1.61964843750000e-01 4.96641330994053e+00 3.52630626078300e-02
1.63235156250000e-01 4.93967553963116e+00 3.52104927887599e-02
1.64505468750000e-01 4.91308171787312e+00 3.51569366057122e-02
1.65775781250000e-01 4.88663106983286e+00 3.51024151974838e-02
1.67046093750000e-01 4.86032282456040e+00 3.50469492667562e-02
1.68316406250000e-01 4.83415621554049e+00 3.49905591272980e-02
1.69586718750000e-01 4.80813048010410e+00 3.49332647178787e-02
1.70857031250000e-01 4.78224485996508e+00 3.48750856059803e-02
1.72127343750000e-01 4.75649860064634e+00 3.48160410010703e-02
1.73397656250000e-01 4.73089095200252e+00 3.47561497579007e-02
1.74667968750000e-01 4.70542116766046e+00 3.46954303891968e-02
1.75938281250000e-01 4.68008850552822e+00 3.46339010685814e-02
1.77208593750000e-01 4.65489222724946e+00 3.45715796427061e-02
1.78478906250000e-01 4.62983159869928e+00 3.45084836338372e-02
1.79749218750000e-01 4.60490588945198e+00 3.44446302514685e-02
1.81019531250000e-01 4.58011437326423e+00 3.43800363945949e-02
1.82289843750000e-01 4.55545632755573e+00 3.43147186628394e-02
1.83560156250000e-01 4.53093103388016e+00 3.42486933584424e-02
1.84830468750000e-01 4.50653777741830e+00 3.41819764969320e-02
1.86100781250000e-01 4.48227584743718e+00 3.41145838088497e-02
1.87371093750000e-01 4.45814453679525e+00 3.40465307499995e-02
1.88641406250000e-01 4.43414314239011e+00 3.39778325029247e-02
1.89911718750000e-01 4.41027096467541e+00 3.39085039867540e-02
1.91182031250000e-01 4.38652730809742e+00 3.38385598584677e-02
1.92452343750000e-01 4.36291148062336e+00 3.37680145223614e-02
1.93722656250000e-01 4.33942279416717e+00 3.36968821311020e-02
1.94992968750000e-01 4.31606056412890e+00 3.36251765948417e-02
1.96263281250000e-01 4.29282410981004e+00 3.35529115820879e-02
1.97533593750000e-01 4.26971275396358e+00 3.34801005284754e-02
1.98803906250000e-01 4.24672582319929e+00 3.34067566374695e-02
2.00074218750000e-01 4.22386264754409e+00 3.33328928888242e-02
2.01344531250000e-01 4.20112256083759e+00 3.32585220391216e-02
2.02614843750000e-01 4.17850490030250e+00 3.31836566299239e-02
2.03885156250000e-01 4.15600900693067e+00 3.31083089881820e-02
2.05155468750000e-01 4.13363422506328e+00 3.30324912340969e-02
2.06425781250000e-01 4.11137990276766e+00 3.29562152813913e-02
2.07696093750000e-01 4.08924539142696e+00 3.28794928449062e-02
2.08966406250000e-01 4.06723004610809e+00 3.28023354407458e-02
2.10236718750000e-01 4.04533322516049e+00 3.27247543936254e-02
2.11507031250000e-01 4.02355429057551e+00 3.26467608071912e-02
2.12777343750000e-01 4.00189260768471e+00 3.25683656901501e-02
2.14047656250000e-01 3.98034754514776e+00 3.24895798074466e-02
2.15317968750000e-01 3.95891847511413e+00 3.24104136860568e-02
2.16588281250000e-01 3.93760477320188e+00 3.23308777659342e-02
2.17858593750000e-01 3.91640581821353e+00 3.22509822857929e-02
2.19128906250000e-01 3.89532099247096e+00 3.21707373131231e-02
2.20399218750000e-01 3.87434968144842e+00 3.20901527506300e-02
2.21669531250000e-01 3.85349127409973e+00 3.20092383359093e-02
2.22939843750000e-01 3.83274516249915e+00 3.19280036476775e-02
2.24210156250000e-01 3.81211074216122e+00 3.18464581053717e-02
2.25480468750000e-01 3.79158741168934e+00 3.17646109752060e-02
2.26750781250000e-01 3.77117457308835e+00 3.16824713696915e-02
2.28021093750000e-01 3.75087163142066e+00 3.16000482535089e-02
2.29291406250000e-01 3.73067799511172e+00 3.15173504429782e-02
2.30561718750000e-01 3.71059307561354e+00 3.14343866117517e-02
2.31832031250000e-01 3.69061628770330e+00 3.13511652902279e-02
2.33102343750000e-01 3.67074704915397e+00 3.12676948710757e-02
2.34372656250000e-01 3.65098478102627e+00 3.11839836085976e-02
2.35642968750000e-01 3.63132890734621e+00 3.11000396241049e-02
2.36913281250000e-01 3.61177885539060e+00 3.10158709052203e-02
2.38183593750000e-01 3.59233405537134e+00 3.09314853111037e-02
2.39453906250000e-01 3.57299394071461e+00 3.08468905717252e-02
2.40724218750000e-01 3.55375794775171e+00 3.07620942929322e-02
2.41994531250000e-01 3.53462551599219e+00 3.06771039556794e-02
2.43264843750000e-01 3.51559608782104e+00 3.05919269209659e-02
2.44535156250000e-01 3.49666910876586e+00 3.05065704290281e-02
2.45805468750000e-01 3.47784402720031e+00 3.04210416041461e-02
2.47075781250000e-01 3.45912029460542e+00 3.03353474537978e-02
2.48346093750000e-01 3.44049736527917e+00 3.02494948733339e-02
2.49616406250000e-01 3.42197469659217e+00 3.01634906451084e-02
2.50886718750000e-01 3.40355174870306e+00 3.00773414430330e-02
2.52157031250000e-01 3.38522798480877e+00 2.99910538316794e-02
2.53427343750000e-01 3.36700287086568e+00 2.99046342707052e-02
2.54697656250000e-01 3.34887587583449e+00 2.98180891139440e-02
2.55967968750000e-01 3.33084647140704e+00 2.97314246137200e-02
2.57238281250000e-01 3.31291413224591e+00 2.96446469198984e-02
2.58508593750000e-01 3.29507833571679e+00 2.95577620841031e-02
2.59778906250000e-01 3.27733856212296e+00 2.94707760369134e-02
2.61049218750000e-01 3.25969429450315e+00 2.93836946794569e-02
2.62319531250000e-01 3.24214501862015e+00 2.92965237731066e-02
2.63589843750000e-01 3.22469022306562e+00 2.92092689426518e-02
2.64860156250000e-01 3.20732939924321e+00 2.91219357864205e-02
2.66130468750000e-01 3.19006204117706e+00 2.90345297913193e-02
2.67400781250000e-01 3.17288764573179e+00 2.89470563332310e-02
2.68671093750000e-01 3.15580571242206e+00 2.88595207643152e-02
2.69941406250000e-01 3.13881574340140e+00 2.87719283076718e-02
2.71211718750000e-01 3.12191724356035e+00 2.86842840602523e-02
2.72482031250000e-01 3.10510972051026e+00 2.85965930978709e-02
2.73752343750000e-01 3.08839268440263e+00 2.85088603940371e-02
2.75022656250000e-01 3.07176564813576e+00 2.84210908401424e-02
2.76292968750000e-01 3.05522812712189e+00 2.83332892490043e-02
2.77563281250000e-01 3.03877963948955e+00 2.82454603538241e-02
2.78833593750000e-01 3.02241970585518e+00 2.81576088116494e-02
2.80103906250000e-01 3.00614784952139e+00 2.80697392023159e-02
2.81374218750000e-01 2.98996359625292e+00 2.79818560318273e-02
2.82644531250000e-01 2.97386647447090e+00 2.78939637313022e-02
2.83914843750000e-01 2.95785601503312e+00 2.78060666602791e-02
2.85185156250000e-01 2.94193175142425e+00 2.77181691056512e-02
2.86455468750000e-01 2.92609321954038e+00 2.76302752848939e-02
2.87725781250000e-01 2.91033995787543e+00 2.75423893450063e-02
2.88996093750000e-01 2.89467150730966e+00 2.74545153656661e-02
2.90266406250000e-01 2.87908741129241e+00 2.73666573581581e-02
2.91536718750000e-01 2.86358721563462e+00 2.72788192684692e-02
2.92807031250000e-01 2.84817046868785e+00 2.71910049762139e-02
2.94077343750000e-01 2.83283672114074e+00 2.71032182976539e-02
2.95347656250000e-01 2.81758552619445e+00 2.70154629846352e-02
2.96617968750000e-01 2.80241643936294e+00 2.69277427275375e-02
2.97888281250000e-01 2.78732901864488e+00 2.68400611542055e-02
2.99158593750000e-01 2.77232282432772e+00 2.67524218328402e-02
3.00428906250000e-01 2.75739741915617e+00 2.66648282709305e-02
3.01699218750000e-01 2.74255236813988e+00 2.65772839180847e-02
3.02969531250000e-01 2.72778723871863e+00 2.64897921649628e-02
3.04239843750000e-01 2.71310160057357e+00 2.64023563460437e-02
3.05510156250000e-01 2.69849502578913e+00 2.63149797385646e-02
3.06780468750000e-01 2.68396708866779e+00 2.62276655652264e-02
3.08050781250000e-01 2.66951736588877e+00 2.61404169931362e-02
3.09321093750000e-01 2.65514543632623e+00 2.60532371364612e-02
3.10591406250000e-01 2.64085088120487e+00 2.59661290553687e-02
3.11861718750000e-01 2.62663328392142e+00 2.58790957586307e-02
3.13132031250000e-01 2.61249223019723e+00 2.57921402025601e-02
3.14402343750000e-01 2.59842730790305e+00 2.57052652935642e-02
3.15672656250000e-01 2.58443810720861e+00 2.56184738870940e-02
3.16942968750000e-01 2.57052422041062e+00 2.55317687901338e-02
3.18213281250000e-01 2.55668524207944e+00 2.54451527601606e-02
3.19483593750000e-01 2.54292076889017e+00 2.53586285075856e-02
3.20753906250000e-01 2.52923039976657e+00 2.52721986947127e-02
3.22024218750000e-01 2.51561373571513e+00 2.51858659381331e-02
3.23294531250000e-01 2.50207037996622e+00 2.50996328076905e-02
3.24564843750000e-01 2.48859993781124e+00 2.50135018288263e-02
3.25835156250000e-01 2.47520201674094e+00 2.49274754815544e-02
3.27105468750000e-01 2.46187622628555e+00 2.48415562027593e-02
3.28375781250000e-01 2.44862217815050e+00 2.47557463706500e-02
3.29646093750000e-01 2.43543948609492e+00 2.46700483651743e-02
3.30916406250000e-01 2.42232776592230e+00 2.45844644943470e-02
3.32186718750000e-01 2.40928663554023e+00 2.44989969958799e-02
3.33457031250000e-01 2.39631571494820e+00 2.44136481100530e-02
3.34727343750000e-01 2.38341462612176e+00 2.43284200228059e-02
3.35997656250000e-01 2.37058299314074e+00 2.42433148795244e-02
3.37267968750000e-01 2.35782044204037e+00 2.41583347871675e-02
3.38538281250000e-01 2.34512660093701e+00 2.40734818132699e-02
3.39808593750000e-01 2.33250109988195e+00 2.39887579880255e-02
3.41078906250000e-01 2.31994357098476e+00 2.39041653032961e-02
3.42349218750000e-01 2.30745364826965e+00 2.38197057146588e-02
3.43619531250000e-01 2.29503096779651e+00 2.37353811271246e-02
3.44889843750000e-01 2.28267516755168e+00 2.36511934504217e-02
3.46160156250000e-01 2.27038588743906e+00 2.35671445314529e-02
3.47430468750000e-01 2.25816276933321e+00 2.34832361557385e-02
3.48700781250000e-01 2.24600545706789e+00 2.33994701141353e-02
3.49971093750000e-01 2.23391359633190e+00 2.33158481506419e-02
3.51241406250000e-01 2.22188683478346e+00 2.32323719749947e-02
3.52511718750000e-01 2.20992482191633e+00 2.31490432645591e-02
3.53782031250000e-01 2.19802720917212e+00 2.30658636633761e-02
3.55052343750000e-01 2.18619364980872e+00 2.29828347840269e-02
3.56322656250000e-01 2.17442379901048e+00 2.28999582066841e-02
3.57592968750000e-01 2.16271731375898e+00 2.28172354809433e-02
3.58863281250000e-01 2.15107385294117e+00 2.27346681248822e-02
3.60133593750000e-01 2.13949307722230e+00 2.26522576268500e-02
3.61403906250000e-01 2.12797464915214e+00 2.25700054445453e-02
3.62674218750000e-01 2.11651823304009e+00 2.24879130067751e-02
3.63944531250000e-01 2.10512349505940e+00 2.24059817125297e-02
3.65214843750000e-01 2.09379010312446e+00 2.23242129327152e-02
3.66485156250000e-01 2.08251772699312e+00 2.22426080092396e-02
3.67755468750000e-01 2.07130603814605e+00 2.21611682567079e-02
3.69025781250000e-01 2.06015470988718e+00 2.20798949615203e-02
3.70296093750000e-01 2.04906341722518e+00 2.19987893835363e-02
3.71566406250000e-01 2.03803183697199e+00 2.19178527551796e-02
3.72836718750000e-01 2.02705964762638e+00 2.18370862830790e-02
3.74107031250000e-01 2.01614652947064e+00 2.17564911471737e-02
3.75377343750000e-01 2.00529216445613e+00 2.16760685023236e-02
3.76647656250000e-01 1.99449623629826e+00 2.15958194774296e-02
3.77917968750000e-01 1.98375843036391e+00 2.15157451770123e-02
3.79188281250000e-01 1.97307843376472e+00 2.14358466803421e-02
3.80458593750000e-01 1.96245593524641e+00 2.13561250429897e-02
3.81728906250000e-01 1.95189062528039e+00 2.12765812852299e-02
3.82999218750000e-01 1.94138219597934e+00 2.11972164365594e-02
3.84269531250000e-01 1.93093034108944e+00 2.11180314811294e-02
3.85539843750000e-01 1.92053475603014e+00 2.10390273588118e-02
3.86810156250000e-01 1.91019513788457e+00 2.09602050189782e-02
3.88080468750000e-01 1.89991118531879e+00 2.08815653782930e-02
3.89350781250000e-01 1.88968259866863e+00 2.08031093308110e-02
3.90621093750000e-01 1.87950907983617e+00 2.07248377494242e-02
3.91891406250000e-01 1.86939033237502e+00 2.06467514850317e-02
3.93161718750000e-01 1.85932606138851e+00 2.05688513679596e-02
3.94432031250000e-01 1.84931597361347e+00 2.04911382071388e-02
3.95702343750000e-01 1.83935977732013e+00 2.04136127915043e-02
3.96972656250000e-01 1.82945718239437e+00 2.03362758793160e-02
3.98242968750000e-01 1.81960790026127e+00 2.02591282390475e-02
3.99513281250000e-01 1.80981164387783e+00 2.01821705992122e-02
4.00783593750000e-01 1.80006812776849e+00 2.01054036493125e-02
