Energy (eV)          EEDF (eV^-(3/2))     First Anisotropy
1.37037037037037e-04 1.26354580793083e+02 4.07197656239965e-02
4.11111111111111e-04 1.25550872312251e+02 6.72521476139466e-02
6.85185185185185e-04 1.24752276011641e+02 8.88128897639840e-02
9.59259259259259e-04 1.23958759373613e+02 1.05212516133250e-01
1.23333333333333e-03 1.23170290086301e+02 1.18906378342865e-01
1.50740740740741e-03 1.22386836047560e+02 1.30822111061762e-01
1.78148148148148e-03 1.21608365355981e+02 1.41439421443482e-01
2.05555555555556e-03 1.20834846312108e+02 1.51047787520983e-01
2.32962962962963e-03 1.20066247421406e+02 1.59839063050913e-01
2.60370370370370e-03 1.19302537386691e+02 1.67948752633351e-01
2.87777777777778e-03 1.18543685112525e+02 1.75477094825837e-01
3.15185185185185e-03 1.17789659699812e+02 1.82500904637862e-01
3.42592592592593e-03 1.17040430445218e+02 1.89080711866019e-01
3.70000000000000e-03 1.16295966842528e+02 1.95265304859773e-01
3.97407407407407e-03 1.15556238577865e+02 2.01094751967974e-01
4.24814814814815e-03 1.14821215531766e+02 2.06602483852327e-01
4.52222222222222e-03 1.14090867774841e+02 2.11816771959372e-01
4.79629629629630e-03 1.13365165569492e+02 2.16761805362716e-01
5.07037037037037e-03 1.12644079366526e+02 2.21458492135718e-01
5.34444444444445e-03 1.11927579804191e+02 2.25925067510252e-01
5.61851851851852e-03 1.11215637708619e+02 2.30177562783501e-01
5.89259259259259e-03 1.10508224090434e+02 2.34230172447682e-01
6.16666666666667e-03 1.09805310145681e+02 2.38095545434540e-01
6.44074074074074e-03 1.09106867253079e+02 2.41785018744652e-01
6.71481481481481e-03 1.08412866973006e+02 2.45308807175318e-01
6.98888888888889e-03 1.07723281047585e+02 2.48676158562031e-01
7.26296296296296e-03 1.07038081397859e+02 2.51895482134392e-01
7.53703703703704e-03 1.06357240124267e+02 2.54974455479793e-01
7.81111111111111e-03 1.05680729504295e+02 2.57920114216321e-01
8.08518518518519e-03 1.05008521991446e+02 2.60738927950930e-01
8.35925925925926e-03 1.04340590215115e+02 2.63436864729408e-01
8.63333333333333e-03 1.03676906978138e+02 2.66019446237313e-01
8.90740740740741e-03 1.03017445256983e+02 2.68491795306208e-01
9.18148148148148e-03 1.02362178199675e+02 2.70858676900127e-01
9.45555555555556e-03 1.01711079124772e+02 2.73124533879281e-01
9.72962962962963e-03 1.01064121521105e+02 2.75293518073702e-01
1.00037037037037e-02 1.00421279045590e+02 2.77369517629238e-01
1.02777777777778e-02 9.97825255242152e+01 2.79356180837356e-01
1.05518518518519e-02 9.91478349464776e+01 2.81256937466309e-01
1.08259259259259e-02 9.85171814690845e+01 2.83075017731751e-01
1.11000000000000e-02 9.78905394131210e+01 2.84813468867731e-01
1.13740740740741e-02 9.72678832652303e+01 2.86475169757323e-01
1.16481481481481e-02 9.66491876698692e+01 2.88062844507630e-01
1.19222222222222e-02 9.60344274350199e+01 2.89579074717710e-01
1.21962962962963e-02 9.54235775289061e+01 2.91026309971655e-01
1.24703703703704e-02 9.48166130809428e+01 2.92406877336652e-01
1.27444444444444e-02 9.42135093747702e+01 2.93722990375667e-01
1.30185185185185e-02 9.36142418532346e+01 2.94976757387944e-01
1.32925925925926e-02 9.30187861153897e+01 2.96170188391353e-01
1.35666666666667e-02 9.24271179172602e+01 2.97305201506012e-01
1.38407407407407e-02 9.18392131655260e+01 2.98383629181686e-01
1.41148148148148e-02 9.12550479218997e+01 2.99407223948787e-01
1.43888888888889e-02 9.06745984003678e+01 3.00377663217131e-01
1.46629629629630e-02 9.00978409678005e+01 3.01296553701070e-01
1.49370370370370e-02 8.95247521381892e+01 3.02165435870899e-01
1.52111111111111e-02 8.89553085765178e+01 3.02985788200782e-01
1.54851851851852e-02 8.83894870976723e+01 3.03759030156852e-01
1.57592592592593e-02 8.78272646610591e+01 3.04486525830198e-01
1.60333333333333e-02 8.72686183741269e+01 3.05169587240755e-01
1.63074074074074e-02 8.67135254899310e+01 3.05809476987100e-01
1.65814814814815e-02 8.61619634075545e+01 3.06407410720532e-01
1.68555555555556e-02 8.56139096671499e+01 3.06964559791510e-01
1.71296296296296e-02 8.50693419530835e+01 3.07482053746887e-01
1.74037037037037e-02 8.45282380916614e+01 3.07960982269681e-01
1.76777777777778e-02 8.39905760514555e+01 3.08402397001199e-01
1.79518518518519e-02 8.34563339387153e+01 3.08807313574688e-01
1.82259259259259e-02 8.29254900001859e+01 3.09176713545914e-01
1.85000000000000e-02 8.23980226209780e+01 3.09511545836212e-01
1.87740740740741e-02 8.18739103248116e+01 3.09812728095492e-01
1.90481481481482e-02 8.13531317697555e+01 3.10081148297782e-01
1.93222222222222e-02 8.08356657507618e+01 3.10317666264197e-01
1.95962962962963e-02 8.03214911976627e+01 3.10523114750874e-01
1.98703703703704e-02 7.98105871753459e+01 3.10698300481608e-01
2.01444444444444e-02 7.93029328797834e+01 3.10844005423454e-01
2.04185185185185e-02 7.87985076403191e+01 3.10960988009919e-01
2.06925925925926e-02 7.82972909177793e+01 3.11049983970150e-01
2.09666666666667e-02 7.77992623045886e+01 3.11111707119582e-01
2.12407407407407e-02 7.73044015210592e+01 3.11146850397055e-01
2.15148148148148e-02 7.68126884174597e+01 3.11156086863304e-01
2.17888888888889e-02 7.63241029722285e+01 3.11140070338497e-01
2.20629629629630e-02 7.58386252920395e+01 3.11099436012701e-01
2.23370370370370e-02 7.53562356083243e+01 3.11034801302050e-01
2.26111111111111e-02 7.48769142791483e+01 3.10946766746138e-01
2.28851851851852e-02 7.44006417883492e+01 3.10835916222171e-01
2.31592592592593e-02 7.39273987422278e+01 3.10702817764384e-01
2.34333333333333e-02 7.34571658712852e+01 3.10548024287259e-01
2.37074074074074e-02 7.29899240285878e+01 3.10372073995368e-01
2.39814814814815e-02 7.25256541897670e+01 3.10175490778309e-01
2.42555555555556e-02 7.20643374499060e+01 3.09958784841900e-01
2.45296296296296e-02 7.16059550251197e+01 3.09722453320734e-01
2.48037037037037e-02 7.11504882510009e+01 3.09466980597750e-01
2.50777777777778e-02 7.06979185825854e+01 3.09192838613407e-01
2.53518518518519e-02 7.02482275914163e+01 3.08900487405135e-01
2.56259259259259e-02 6.98013969669847e+01 3.08590375632070e-01
2.59000000000000e-02 6.93574085152496e+01 3.08262940824646e-01
2.61740740740741e-02 6.89162441585727e+01 3.07918609626776e-01
2.64481481481482e-02 6.84778859329465e+01 3.07557798261946e-01
2.67222222222222e-02 6.80423159893086e+01 3.07180912987246e-01
2.69962962962963e-02 6.76095165921302e+01 3.06788350288118e-01
2.72703703703704e-02 6.71794701193253e+01 3.06380497067902e-01
2.75444444444444e-02 6.67521590596277e+01 3.05957731054457e-01
2.78185185185185e-02 6.63275660137928e+01 3.05520421196669e-01
2.80925925925926e-02 6.59056736932490e+01 3.05068927815852e-01
2.83666666666667e-02 6.54864649199842e+01 3.04603602753588e-01
2.86407407407407e-02 6.50699226240618e+01 3.04124789729529e-01
2.89148148148148e-02 6.46560298447190e+01 3.03632824690697e-01
2.91888888888889e-02 6.42447697290772e+01 3.03128035928366e-01
2.94629629629630e-02 6.38361255320099e+01 3.02610744192532e-01
2.97370370370370e-02 6.34300806137854e+01 3.02081263009457e-01
3.00111111111111e-02 6.30266184410722e+01 3.01539899043213e-01
3.02851851851852e-02 6.26257225862332e+01 3.00986951979413e-01
3.05592592592593e-02 6.22273767250608e+01 3.00422714868570e-01
3.08333333333333e-02 6.18315646377153e+01 2.99847474410156e-01
3.11074074074074e-02 6.14382702075259e+01 2.99261511025471e-01
3.13814814814815e-02 6.10474774208338e+01 2.98665098929377e-01
3.16555555555556e-02 6.06591703648395e+01 2.98058506391549e-01
3.19296296296296e-02 6.02733332284628e+01 2.97441995991564e-01
3.22037037037037e-02 5.98899503011928e+01 2.96815824672812e-01
3.24777777777778e-02 5.95090059729183e+01 2.96180243795689e-01
3.27518518518519e-02 5.91304847318782e+01 2.95535499373663e-01
3.30259259259259e-02 5.87543711654505e+01 2.94881832303693e-01
3.33000000000000e-02 5.83806499590486e+01 2.94219478404773e-01
3.35740740740741e-02 5.80093058959402e+01 2.93548668455987e-01
3.38481481481481e-02 5.76403238552945e+01 2.92869628411043e-01
3.41222222222222e-02 5.72736888129063e+01 2.92182579607606e-01
3.43962962962963e-02 5.69093858401353e+01 2.91487738793229e-01
3.46703703703704e-02 5.65474001037160e+01 2.90785318151139e-01
3.49444444444444e-02 5.61877168638947e+01 2.90075525496161e-01
3.52185185185185e-02 5.58303214750942e+01 2.89358564465749e-01
3.54925925925926e-02 5.54751993848945e+01 2.88634634535768e-01
3.57666666666667e-02 5.51223361338339e+01 2.87903931036161e-01
3.60407407407407e-02 5.47717173536313e+01 2.87166645330726e-01
3.63148148148148e-02 5.44233287677957e+01 2.86422964992263e-01
3.65888888888889e-02 5.40771561906459e+01 2.85673073809949e-01
3.68629629629630e-02 5.37331855271050e+01 2.84917151796783e-01
3.71370370370370e-02 5.33914027710016e+01 2.84155375355278e-01
3.74111111111111e-02 5.30517940056295e+01 2.83387917477690e-01
3.76851851851852e-02 5.27143454031611e+01 2.82614947590912e-01
3.79592592592593e-02 5.23790432230063e+01 2.81836631751487e-01
3.82333333333333e-02 5.20458738123358e+01 2.81053132797036e-01
3.85074074074074e-02 5.17148236051617e+01 2.80264610343022e-01
3.87814814814815e-02 5.13858791221245e+01 2.79471220779514e-01
3.90555555555556e-02 5.10590269689240e+01 2.78673117415637e-01
3.93296296296296e-02 5.07342538367986e+01 2.77870450619855e-01
3.96037037037037e-02 5.04115465016400e+01 2.77063367811845e-01
3.98777777777778e-02 5.00908918237762e+01 2.76252013454498e-01
4.01518518518519e-02 4.97722767464685e+01 2.75436529188298e-01
4.04259259259259e-02 4.94556882963525e+01 2.74617053961669e-01
4.07000000000000e-02 4.91411135825838e+01 2.73793724018931e-01
4.09740740740741e-02 4.88285397966176e+01 2.72966672888371e-01
4.12481481481482e-02 4.85179542107697e+01 2.72136031507621e-01
4.15222222222222e-02 4.82093441786201e+01 2.71301928345106e-01
4.17962962962963e-02 4.79026971341894e+01 2.70464489384827e-01
4.20703703703704e-02 4.75980005917164e+01 2.69623838111239e-01
4.23444444444444e-02 4.72952421442777e+01 2.68780095626512e-01
4.26185185185185e-02 4.69944094641585e+01 2.67933380764056e-01
4.28925925925926e-02 4.66954903020577e+01 2.67083810070713e-01
4.31666666666667e-02 4.63984724868633e+01 2.66231497788945e-01
4.34407407407407e-02 4.61033439243288e+01 2.65376555966920e-01
4.37148148148148e-02 4.58100925974129e+01 2.64519094564814e-01
4.39888888888889e-02 4.55187065655118e+01 2.63659221434878e-01
4.42629629629630e-02 4.52291739642338e+01 2.62797042301555e-01
4.45370370370370e-02 4.49414830041291e+01 2.61932660864985e-01
4.48111111111111e-02 4.46556219710003e+01 2.61066178930888e-01
4.50851851851852e-02 4.43715792254124e+01 2.60197696268861e-01
4.53592592592593e-02 4.40893432014617e+01 2.59327310741163e-01
4.56333333333333e-02 4.38089024070653e+01 2.58455118397746e-01
4.59074074074074e-02 4.35302454232380e+01 2.57581213453904e-01
4.61814814814815e-02 4.32533609038671e+01 2.56705688267977e-01
4.64555555555556e-02 4.29782375745297e+01 2.55828633434397e-01
4.67296296296296e-02 4.27048642327573e+01 2.54950137873186e-01
4.70037037037037e-02 4.24332297473374e+01 2.54070288806595e-01
4.72777777777778e-02 4.21633230580877e+01 2.53189171735638e-01
4.75518518518519e-02 4.18951331747200e+01 2.52306870528013e-01
4.78259259259259e-02 4.16286491770818e+01 2.51423467502596e-01
4.81000000000000e-02 4.13638602144806e+01 2.50539043405205e-01
4.83740740740741e-02 4.11007555054594e+01 2.49653677384308e-01
4.86481481481481e-02 4.08393243367038e+01 2.48767447074258e-01
4.89222222222222e-02 4.05795560632624e+01 2.47880428675131e-01
4.91962962962963e-02 4.03214401078935e+01 2.46992696927899e-01
4.94703703703704e-02 4.00649659608415e+01 2.46104325089510e-01
4.97444444444444e-02 3.98101231787853e+01 2.45215385011781e-01
5.00185185185185e-02 3.95569013850391e+01 2.44325947216966e-01
5.02925925925926e-02 3.93052902689209e+01 2.43436080872539e-01
5.05666666666667e-02 3.90552795855294e+01 2.42545853765785e-01
5.08407407407407e-02 3.88068591547324e+01 2.41655332378701e-01
5.11148148148148e-02 3.85600188613492e+01 2.40764581959681e-01
5.13888888888889e-02 3.83147486545398e+01 2.39873666497997e-01
5.16629629629630e-02 3.80710385475828e+01 2.38982648698067e-01
5.19370370370370e-02 3.78288786169019e+01 2.38091590050705e-01
5.22111111111111e-02 3.75882590022315e+01 2.37200550924630e-01
5.24851851851852e-02 3.73491699062062e+01 2.36309590446972e-01
5.27592592592593e-02 3.71116015934147e+01 2.35418766595104e-01
5.30333333333333e-02 3.68755443905534e+01 2.34528136261911e-01
5.33074074074074e-02 3.66409886858473e+01 2.33637755230311e-01
5.35814814814815e-02 3.64079249288333e+01 2.32747678147536e-01
5.38555555555556e-02 3.61763436294479e+01 2.31857958590266e-01
5.41296296296296e-02 3.59462353581665e+01 2.30968649126700e-01
5.44037037037037e-02 3.57175907454427e+01 2.30079801291165e-01
5.46777777777778e-02 3.54904004814934e+01 2.29191465558382e-01
5.49518518518519e-02 3.52646553154198e+01 2.28303691405554e-01
5.52259259259259e-02 3.50403460553327e+01 2.27416527371492e-01
5.55000000000000e-02 3.48174635678101e+01 2.26530021031325e-01
5.57740740740741e-02 3.45959987776834e+01 2.25644218970864e-01
5.60481481481482e-02 3.43759426671911e+01 2.24759166845858e-01
5.63222222222222e-02 3.41572862760909e+01 2.23874909438363e-01
5.65962962962963e-02 3.39400207011340e+01 2.22991490631586e-01
5.68703703703704e-02 3.37241370958546e+01 2.22108953384459e-01
5.71444444444444e-02 3.35096266697526e+01 2.21227339788250e-01
5.74185185185185e-02 3.32964806883948e+01 2.20346691120265e-01
5.76925925925926e-02 3.30846904729054e+01 2.19467047819032e-01
5.79666666666667e-02 3.28742473997572e+01 2.18588449459044e-01
5.82407407407407e-02 3.26651428999847e+01 2.17710934804858e-01
5.85148148148148e-02 3.24573684592729e+01 2.16834541862437e-01
5.87888888888889e-02 3.22509156174644e+01 2.15959307854540e-01
5.90629629629630e-02 3.20457759683529e+01 2.15085269195765e-01
5.93370370370370e-02 3.18419411589238e+01 2.14212461544366e-01
5.96111111111111e-02 3.16394028894335e+01 2.13340919869783e-01
5.98851851851852e-02 3.14381529130643e+01 2.12470678354329e-01
6.01592592592593e-02 3.12381830351864e+01 2.11601770461563e-01
6.04333333333333e-02 3.10394851134281e+01 2.10734228983537e-01
6.07074074074074e-02 3.08420510572095e+01 2.09868086016966e-01
6.09814814814815e-02 3.06458728275409e+01 2.09003372938978e-01
6.12555555555556e-02 3.04509424363090e+01 2.08140120454981e-01
6.15296296296296e-02 3.02572519463403e+01 2.07278358643855e-01
6.18037037037037e-02 3.00647934709473e+01 2.06418116934476e-01
6.20777777777778e-02 2.98735591737304e+01 2.05559424081883e-01
6.23518518518519e-02 2.96835412678889e+01 2.04702308213130e-01
6.26259259259259e-02 2.94947320162758e+01 2.03846796870529e-01
6.29000000000000e-02 2.93071237309577e+01 2.02992916988607e-01
6.31740740740741e-02 2.91207087730199e+01 2.02140694870628e-01
6.34481481481482e-02 2.89354795519009e+01 2.01290156232594e-01
6.37222222222222e-02 2.87514285254389e+01 2.00441326244646e-01
6.39962962962963e-02 2.85685481994462e+01 1.99594229508417e-01
6.42703703703704e-02 2.83868311275160e+01 1.98748890034028e-01
6.45444444444444e-02 2.82062699103802e+01 1.97905331282247e-01
6.48185185185185e-02 2.80268571959488e+01 1.97063576204190e-01
6.50925925925926e-02 2.78485856788969e+01 1.96223647219105e-01
6.53666666666667e-02 2.76714481004743e+01 1.95385566191784e-01
6.56407407407407e-02 2.74954372478856e+01 1.94549354473040e-01
6.59148148148148e-02 2.73205459543224e+01 1.93715032937775e-01
6.61888888888889e-02 2.71467670985627e+01 1.92882621963211e-01
6.64629629629630e-02 2.69740936047845e+01 1.92052141406718e-01
6.67370370370370e-02 2.68025184419649e+01 1.91223610644702e-01
6.70111111111111e-02 2.66320346239081e+01 1.90397048623863e-01
6.72851851851852e-02 2.64626352089559e+01 1.89572473781013e-01
6.75592592592593e-02 2.62943132994029e+01 1.88749904095323e-01
6.78333333333333e-02 2.61270620415193e+01 1.87929357123672e-01
6.81074074074074e-02 2.59608746251698e+01 1.87110849979720e-01
6.83814814814815e-02 2.57957442836330e+01 1.86294399312596e-01
6.86555555555556e-02 2.56316642930358e+01 1.85480021343120e-01
6.89296296296296e-02 2.54686279723706e+01 1.84667731897703e-01
6.92037037037037e-02 2.53066286831262e+01 1.83857546387905e-01
6.94777777777778e-02 2.51456598291091e+01 1.83049479789584e-01
6.97518518518519e-02 2.49857148558976e+01 1.82243546677675e-01
7.00259259259259e-02 2.48267872508539e+01 1.81439761258787e-01
7.03000000000000e-02 2.46688705427651e+01 1.80638137351230e-01
7.05740740740741e-02 2.45119583016688e+01 1.79838688364562e-01
7.08481481481482e-02 2.43560441383240e+01 1.79041427333109e-01
7.11222222222222e-02 2.42011217042194e+01 1.78246366947255e-01
7.13962962962963e-02 2.40471846912246e+01 1.77453519533908e-01
7.16703703703704e-02 2.38942268314189e+01 1.76662897036547e-01
7.19444444444444e-02 2.37422418965793e+01 1.75874511047430e-01
7.22185185185185e-02 2.35912236981847e+01 1.75088372837671e-01
7.24925925925926e-02 2.34411660870774e+01 1.74304493338196e-01
7.27666666666667e-02 2.32920629532947e+01 1.73522883120226e-01
7.30407407407408e-02 2.31439082255739e+01 1.72743552426266e-01
7.33148148148148e-02 2.29966958713520e+01 1.71966511199060e-01
7.35888888888889e-02 2.28504198964378e+01 1.71191769062967e-01
7.38629629629630e-02 2.27050743448458e+01 1.70419335304888e-01
7.41370370370370e-02 2.25606532983179e+01 1.69649218904127e-01
7.44111111111111e-02 2.24171508763190e+01 1.68881428572022e-01
7.46851851851852e-02 2.22745612357949e+01 1.68115972686682e-01
7.49592592592593e-02 2.21328785707048e+01 1.67352859333598e-01
7.52333333333333e-02 2.19920971120153e+01 1.66592096332623e-01
7.55074074074074e-02 2.18522111273883e+01 1.65833691220171e-01
7.57814814814815e-02 2.17132149210204e+01 1.65077651231004e-01
7.60555555555556e-02 2.15751028331915e+01 1.64323983326159e-01
7.63296296296296e-02 2.14378692402548e+01 1.63572694218897e-01
7.66037037037037e-02 2.13015085543340e+01 1.62823790357344e-01
7.68777777777778e-02 2.11660152231663e+01 1.62077277906735e-01
7.71518518518519e-02 2.10313837296641e+01 1.61333162776271e-01
7.74259259259259e-02 2.08976085919037e+01 1.60591450644156e-01
7.77000000000000e-02 2.07646843628301e+01 1.59852146940658e-01
7.79740740740741e-02 2.06326056301031e+01 1.59115256830733e-01
7.82481481481482e-02 2.05013670156739e+01 1.58380785239980e-01
7.85222222222222e-02 2.03709631757696e+01 1.57648736878723e-01
7.87962962962963e-02 2.02413888006079e+01 1.56919116225488e-01
7.90703703703704e-02 2.01126386142454e+01 1.56191927510088e-01
7.93444444444445e-02 1.99847073741673e+01 1.55467174738597e-01
7.96185185185185e-02 1.98575898712707e+01 1.54744861716561e-01
7.98925925925926e-02 1.97312809295861e+01 1.54024992032924e-01
8.01666666666667e-02 1.96057754061295e+01 1.53307569043501e-01
8.04407407407407e-02 1.94810681905050e+01 1.52592595895090e-01
8.07148148148148e-02 1.93571542048852e+01 1.51880075547808e-01
8.09888888888889e-02 1.92340284037416e+01 1.51170010759421e-01
8.12629629629630e-02 1.91116857736988e+01 1.50462404069256e-01
8.15370370370370e-02 1.89901213331500e+01 1.49757257821445e-01
8.18111111111111e-02 1.88693301322353e+01 1.49054574195917e-01
8.20851851851852e-02 1.87493072526377e+01 1.48354355155318e-01
8.23592592592593e-02 1.86300478072078e+01 1.47656602476931e-01
8.26333333333333e-02 1.85115469399406e+01 1.46961317773571e-01
8.29074074074074e-02 1.83937998257187e+01 1.46268502478656e-01
8.31814814814815e-02 1.82768016701722e+01 1.45578157830877e-01
8.34555555555556e-02 1.81605477093145e+01 1.44890284895962e-01
8.37296296296296e-02 1.80450332095178e+01 1.44204884586848e-01
8.40037037037037e-02 1.79302534672636e+01 1.43521957649146e-01
8.42777777777778e-02 1.78162038090054e+01 1.42841504646158e-01
8.45518518518519e-02 1.77028795908155e+01 1.42163525979931e-01
8.48259259259259e-02 1.75902761983594e+01 1.41488021910705e-01
8.51000000000000e-02 1.74783890466532e+01 1.40814992542708e-01
8.53740740740741e-02 1.73672135799285e+01 1.40144437809617e-01
8.56481481481482e-02 1.72567452712913e+01 1.39476357494856e-01
8.59222222222222e-02 1.71469796226937e+01 1.38810751250327e-01
8.61962962962963e-02 1.70379121646992e+01 1.38147618582631e-01
8.64703703703704e-02 1.69295384563497e+01 1.37486958838870e-01
