Energy (eV)          EEDF (eV^-(3/2))     First Anisotropy
1.42857142857143e-02 4.89313389951588e-01 3.96403124465306e-04
4.28571428571429e-02 4.81324943090927e-01 6.51420943482087e-04
7.14285714285714e-02 4.73466914267029e-01 8.51636145199330e-04
1.00000000000000e-01 4.65737174276701e-01 9.98775810626679e-04
1.28571428571429e-01 4.58133628716200e-01 1.11745047703955e-03
1.57142857142857e-01 4.50654217317813e-01 1.21710153777229e-03
1.85714285714286e-01 4.43296913537335e-01 1.30268272462894e-03
2.14285714285714e-01 4.36059723826024e-01 1.37722556591394e-03
2.42857142857143e-01 4.28940687223685e-01 1.44276685770144e-03
2.71428571428571e-01 4.21937874815164e-01 1.50076447030804e-03
3.00000000000000e-01 4.15049389115406e-01 1.55231093573953e-03
3.28571428571429e-01 4.08273363669798e-01 1.59825410090231e-03
3.57142857142857e-01 4.01607962449984e-01 1.63927025743013e-03
3.85714285714286e-01 3.95051379442161e-01 1.67591095130025e-03
4.14285714285714e-01 3.88601838081907e-01 1.70863428580654e-03
4.42857142857143e-01 3.82257590826025e-01 1.73782661008001e-03
4.71428571428571e-01 3.76016918675822e-01 1.76381801608743e-03
5.00000000000000e-01 3.69878130667950e-01 1.78689368137917e-03
5.28571428571429e-01 3.63839563471650e-01 1.80730236447768e-03
5.57142857142857e-01 3.57899580887491e-01 1.82526288759468e-03
5.85714285714286e-01 3.52056573450384e-01 1.84096916598830e-03
6.14285714285714e-01 3.46308957950793e-01 1.85459417037632e-03
6.42857142857143e-01 3.40655177036464e-01 1.86629308503055e-03
6.71428571428571e-01 3.35093698788924e-01 1.87620586538678e-03
7.00000000000000e-01 3.29623016282110e-01 1.88445931945504e-03
7.28571428571429e-01 3.24241647208049e-01 1.89116882642663e-03
7.57142857142857e-01 3.18948133443482e-01 1.89643976610157e-03
7.85714285714286e-01 3.13741040684468e-01 1.90036871697557e-03
8.14285714285714e-01 3.08618958029904e-01 1.90304446961442e-03
8.42857142857143e-01 3.03580497619478e-01 1.90454888565783e-03
8.71428571428571e-01 2.98624294256726e-01 1.90495763892719e-03
9.00000000000000e-01 2.93749005021373e-01 1.90434084863229e-03
9.28571428571428e-01 2.88953308928557e-01 1.90276363010939e-03
9.57142857142857e-01 2.84235906549076e-01 1.90028657426039e-03
9.85714285714286e-01 2.79595519677952e-01 1.89696616659191e-03
1.01428571428571e+00 2.75030890968518e-01 1.89285515679324e-03
1.04285714285714e+00 2.70540783601697e-01 1.88800288154791e-03
1.07142857142857e+00 2.66123980955316e-01 1.88245555424991e-03
1.10000000000000e+00 2.61779286269520e-01 1.87625651788985e-03
1.12857142857143e+00 2.57505522360100e-01 1.86944648556995e-03
1.15714285714286e+00 2.53301531184783e-01 1.86206373735991e-03
1.18571428571429e+00 2.49166173646263e-01 1.85414429615067e-03
1.21428571428571e+00 2.45098329243908e-01 1.84572210643403e-03
1.24285714285714e+00 2.41096895769998e-01 1.83682918006413e-03
1.27142857142857e+00 2.37160789011417e-01 1.82749573229586e-03
1.30000000000000e+00 2.33288942455700e-01 1.81775030216689e-03
1.32857142857143e+00 2.29480307030445e-01 1.80761987502192e-03
1.35714285714286e+00 2.25733850732490e-01 1.79712997863158e-03
1.38571428571429e+00 2.22048558436323e-01 1.78630477039754e-03
1.41428571428571e+00 2.18423431589176e-01 1.77516713405408e-03
1.44285714285714e+00 2.14857487940357e-01 1.76373875539888e-03
1.47142857142857e+00 2.11349761275331e-01 1.75204019527928e-03
1.50000000000000e+00 2.07899301153798e-01 1.74009095422318e-03
1.52857142857143e+00 2.04505172674117e-01 1.72790954287399e-03
1.55714285714286e+00 2.01166456153104e-01 1.71551353401121e-03
1.58571428571429e+00 1.97882246944801e-01 1.70291961021266e-03
1.61428571428571e+00 1.94651655172330e-01 1.69014362205382e-03
1.64285714285714e+00 1.91473805486708e-01 1.67720063124611e-03
1.67142857142857e+00 1.88347836829817e-01 1.66410495354080e-03
1.70000000000000e+00 1.85272902201013e-01 1.65087019648017e-03
1.72857142857143e+00 1.82248168444906e-01 1.63750930364144e-03
1.75714285714286e+00 1.79272815972995e-01 1.62403458490859e-03
1.78571428571429e+00 1.76346038595029e-01 1.61045774437162e-03
1.81428571428571e+00 1.73467043282469e-01 1.59678991818347e-03
1.84285714285714e+00 1.70635049953566e-01 1.58304170082684e-03
1.87142857142857e+00 1.67849291262099e-01 1.56922317208645e-03
1.90000000000000e+00 1.65109012389403e-01 1.55534392050094e-03
1.92857142857143e+00 1.62413470853629e-01 1.54141307303137e-03
1.95714285714286e+00 1.59761936266603e-01 1.52743931361662e-03
1.98571428571429e+00 1.57153690178517e-01 1.51343090032362e-03
2.01428571428571e+00 1.54588025868844e-01 1.49939569142954e-03
2.04285714285714e+00 1.52064248154813e-01 1.48534116222277e-03
2.07142857142857e+00 1.49581673203122e-01 1.47127442283539e-03
2.10000000000000e+00 1.47139628344608e-01 1.45720223349530e-03
2.12857142857143e+00 1.44737451903105e-01 1.44313102541686e-03
2.15714285714286e+00 1.42374492982319e-01 1.42906691260515e-03
2.18571428571429e+00 1.40050111323797e-01 1.41501570277024e-03
2.21428571428571e+00 1.37763677121832e-01 1.40098291608870e-03
2.24285714285714e+00 1.35514570852785e-01 1.38697379635115e-03
2.27142857142857e+00 1.33302183107281e-01 1.37299332321277e-03
2.30000000000000e+00 1.31125914425051e-01 1.35904622245861e-03
2.32857142857143e+00 1.28985175141562e-01 1.34513698126777e-03
2.35714285714286e+00 1.26879385200703e-01 1.33126985591923e-03
2.38571428571429e+00 1.24807974025547e-01 1.31744887890293e-03
2.41428571428571e+00 1.22770380354306e-01 1.30367787286389e-03
2.44285714285714e+00 1.20766052088232e-01 1.28996045820302e-03
2.47142857142857e+00 1.18794446142066e-01 1.27630006174371e-03
2.50000000000000e+00 1.16855028296861e-01 1.26269992382050e-03
2.52857142857143e+00 1.14947273062661e-01 1.24916310975214e-03
2.55714285714286e+00 1.13070663513531e-01 1.23569251495593e-03
2.58571428571429e+00 1.11224691170394e-01 1.22229086964675e-03
2.61428571428571e+00 1.09408855855511e-01 1.20896074946403e-03
2.64285714285714e+00 1.07622665556944e-01 1.19570458075834e-03
2.67142857142857e+00 1.05865636295269e-01 1.18252464686279e-03
2.70000000000000e+00 1.04137291992429e-01 1.16942309308144e-03
2.72857142857143e+00 1.02437164348856e-01 1.15640193550362e-03
2.75714285714286e+00 1.00764792697958e-01 1.14346306442608e-03
2.78571428571429e+00 9.91197239001852e-02 1.13060824747516e-03
2.81428571428571e+00 9.75015122138644e-02 1.11783913786482e-03
2.84285714285714e+00 9.59097191744108e-02 1.10515727812473e-03
2.87142857142857e+00 9.43439134755485e-02 1.09256410471827e-03
2.90000000000000e+00 9.28036708524324e-02 1.08006095160015e-03
2.92857142857143e+00 9.12885739717763e-02 1.06764905710466e-03
2.95714285714286e+00 8.97982123033123e-02 1.05532956623537e-03
2.98571428571429e+00 8.83321820242279e-02 1.04310353273161e-03
3.01428571428571e+00 8.68900859044509e-02 1.03097192558407e-03
3.04285714285714e+00 8.54715331990090e-02 1.01893563168685e-03
3.07142857142857e+00 8.40761395421738e-02 1.00699545928328e-03
3.10000000000000e+00 8.27035268433046e-02 9.95152140525070e-04
3.12857142857143e+00 8.13533231886431e-02 9.83406336928563e-04
3.15714285714286e+00 8.00251627276503e-02 9.71758640891714e-04
3.18571428571429e+00 7.87186855869411e-02 9.60209577041065e-04
3.21428571428571e+00 7.74335377683608e-02 9.48759607435077e-04
3.24285714285714e+00 7.61693710530596e-02 9.37409133457985e-04
3.27142857142857e+00 7.49258429071557e-02 9.26158498416534e-04
3.30000000000000e+00 7.37026163889157e-02 9.15007989388718e-04
3.32857142857143e+00 7.24993600610091e-02 9.03957841592489e-04
3.35714285714286e+00 7.13157478899108e-02 8.93008239367971e-04
3.38571428571429e+00 7.01514591684964e-02 8.82159317027884e-04
3.41428571428571e+00 6.90061784254504e-02 8.71411163053175e-04
3.44285714285714e+00 6.78795953397811e-02 8.60763821443963e-04
3.47142857142857e+00 6.67714046567499e-02 8.50217293690412e-04
3.50000000000000e+00 6.56813061051536e-02 8.39771540108275e-04
3.52857142857143e+00 6.46090043189488e-02 8.29426483366995e-04
3.55714285714286e+00 6.35542087481512e-02 8.19182009098445e-04
3.58571428571429e+00 6.25166335892985e-02 8.09037966401744e-04
3.61428571428571e+00 6.14959977049056e-02 7.98994171252823e-04
3.64285714285714e+00 6.04920245472850e-02 7.89050407461909e-04
3.67142857142857e+00 5.95044420836236e-02 7.79206428176175e-04
3.70000000000000e+00 5.85329827222685e-02 7.69461956840201e-04
3.72857142857143e+00 5.75773832427381e-02 7.59816690065026e-04
3.75714285714286e+00 5.66373847167544e-02 7.50270297974670e-04
3.78571428571429e+00 5.57127324458313e-02 7.40822424469773e-04
3.81428571428571e+00 5.48031758896458e-02 7.31472690015723e-04
3.84285714285714e+00 5.39084685981491e-02 7.22220692312404e-04
3.87142857142857e+00 5.30283681447971e-02 7.13066007442548e-04
3.90000000000000e+00 5.21626360608596e-02 7.04008190555472e-04
3.92857142857143e+00 5.13110377729328e-02 6.95046778213469e-04
3.95714285714286e+00 5.04733425329162e-02 6.86181288554043e-04
3.98571428571429e+00 4.96493233620382e-02 6.77411221385365e-04
4.01428571428571e+00 4.88387569871431e-02 6.68736060478060e-04
4.04285714285714e+00 4.80414237801913e-02 6.60155274023096e-04
4.07142857142857e+00 4.72571076987556e-02 6.51668315509589e-04
4.10000000000000e+00 4.64855962274802e-02 6.43274624203053e-04
4.12857142857143e+00 4.57266803223018e-02 6.34973627073157e-04
4.15714285714286e+00 4.49801543483279e-02 6.26764738827146e-04
4.18571428571429e+00 4.42458160296694e-02 6.18647361888831e-04
4.21428571428571e+00 4.35234663927584e-02 6.10620888290367e-04
4.24285714285714e+00 4.28129097124326e-02 6.02684699973630e-04
4.27142857142857e+00 4.21139534589074e-02 5.94838169459807e-04
4.30000000000000e+00 4.14264082456062e-02 5.87080660174584e-04
4.32857142857143e+00 4.07500877793778e-02 5.79411528037864e-04
4.35714285714286e+00 4.00848088053623e-02 5.71830121407978e-04
4.38571428571429e+00 3.94303910620533e-02 5.64335780981417e-04
4.41428571428571e+00 3.87866572308627e-02 5.56927841359699e-04
4.44285714285714e+00 3.81534328880730e-02 5.49605631234996e-04
4.47142857142857e+00 3.75305464575804e-02 5.42368473898734e-04
4.50000000000000e+00 3.69178291644028e-02 5.35215687452522e-04
4.52857142857143e+00 3.63151149902547e-02 5.28146586123022e-04
4.55714285714286e+00 3.57222406245982e-02 5.21160480145660e-04
4.58571428571429e+00 3.51390454244084e-02 5.14256675611688e-04
4.61428571428571e+00 3.45653713692909e-02 5.07434475769624e-04
4.64285714285714e+00 3.40010630186636e-02 5.00693181125550e-04
4.67142857142857e+00 3.34459674696417e-02 4.94032089826539e-04
4.70000000000000e+00 3.28999343156069e-02 4.87450497786378e-04
4.72857142857143e+00 3.23628156065673e-02 4.80947699775849e-04
4.75714285714286e+00 3.18344658056856e-02 4.74522989266692e-04
4.78571428571429e+00 3.13147417532718e-02 4.68175658245206e-04
4.81428571428571e+00 3.08035026268362e-02 4.61904998295710e-04
4.84285714285714e+00 3.03006099029315e-02 4.55710300638200e-04
4.87142857142857e+00 2.98059273196218e-02 4.49590856414324e-04
4.90000000000000e+00 2.93193208395600e-02 4.43545956749854e-04
4.92857142857143e+00 2.88406586146219e-02 4.37574893660409e-04
4.95714285714286e+00 2.83698109472885e-02 4.31676959870774e-04
4.98571428571429e+00 2.79066502584329e-02 4.25851448609017e-04
5.01428571428571e+00 2.74510510517630e-02 4.20097654510108e-04
5.04285714285714e+00 2.70028898798163e-02 4.14414873607997e-04
5.07142857142857e+00 2.65620453105136e-02 4.08802403545622e-04
5.10000000000000e+00 2.61283978942548e-02 4.03259543590744e-04
5.12857142857143e+00 2.57018301323689e-02 3.97785595389474e-04
5.15714285714286e+00 2.52822264428002e-02 3.92379862771952e-04
5.18571428571429e+00 2.48694731312983e-02 3.87041651536901e-04
5.21428571428571e+00 2.44634583597656e-02 3.81770270206325e-04
5.24285714285714e+00 2.40640721159533e-02 3.76565029985053e-04
5.27142857142857e+00 2.36712061836542e-02 3.71425244911426e-04
5.30000000000000e+00 2.32847541133807e-02 3.66350231839160e-04
5.32857142857143e+00 2.29046111942200e-02 3.61339311065014e-04
5.35714285714286e+00 2.25306744233392e-02 3.56391806128593e-04
5.38571428571429e+00 2.21628424802254e-02 3.51507043594576e-04
5.41428571428571e+00 2.18010156985073e-02 3.46684353683789e-04
5.44285714285714e+00 2.14450960389487e-02 3.41923070209871e-04
5.47142857142857e+00 2.10949870628859e-02 3.37222530683850e-04
5.50000000000000e+00 2.07505939060962e-02 3.32582076271658e-04
5.52857142857143e+00 2.04118232536945e-02 3.28001052317340e-04
5.55714285714286e+00 2.00785833130250e-02 3.23478808142734e-04
5.58571428571429e+00 1.97507837906361e-02 3.19014696832338e-04
5.61428571428571e+00 1.94283358671917e-02 3.14608075761458e-04
5.64285714285714e+00 1.91111521734039e-02 3.10258306517469e-04
5.67142857142857e+00 1.87991467663618e-02 3.05964754968529e-04
5.70000000000000e+00 1.84922351062435e-02 3.01726791204153e-04
5.72857142857143e+00 1.81903340339261e-02 2.97543789971563e-04
5.75714285714286e+00 1.78933617468850e-02 2.93415130479187e-04
5.78571428571429e+00 1.76012377786165e-02 2.89340196187711e-04
5.81428571428571e+00 1.73138829762993e-02 2.85318375252304e-04
5.84285714285714e+00 1.70312194793470e-02 2.81349060434086e-04
5.87142857142857e+00 1.67531706983122e-02 2.77431649141155e-04
5.90000000000000e+00 1.64796612941335e-02 2.73565543357821e-04
5.92857142857143e+00 1.62106171581670e-02 2.69750150008559e-04
5.95714285714286e+00 1.59459653907553e-02 2.65984880768100e-04
5.98571428571429e+00 1.56856342828422e-02 2.62269151861019e-04
6.01428571428571e+00 1.54295532960810e-02 2.58602384432115e-04
6.04285714285714e+00 1.51776530437218e-02 2.54984004452322e-04
6.07142857142857e+00 1.49298652718111e-02 2.51413442738476e-04
6.10000000000000e+00 1.46861228406977e-02 2.47890134875484e-04
6.12857142857143e+00 1.44463597072241e-02 2.44413521519850e-04
6.15714285714286e+00 1.42105109056680e-02 2.40983048218185e-04
6.18571428571429e+00 1.39785125313170e-02 2.37598165216849e-04
6.21428571428571e+00 1.37503017227565e-02 2.34258327772158e-04
6.24285714285714e+00 1.35258166448358e-02 2.30962996053898e-04
6.27142857142857e+00 1.33049964719150e-02 2.27711635148927e-04
6.30000000000000e+00 1.30877813713828e-02 2.24503714979478e-04
6.32857142857143e+00 1.28741124877758e-02 2.21338710556268e-04
6.35714285714286e+00 1.26639319258266e-02 2.18216101806520e-04
6.38571428571429e+00 1.24571827357935e-02 2.15135373394506e-04
6.41428571428571e+00 1.22538088976864e-02 2.12096014981355e-04
6.44285714285714e+00 1.20537553060878e-02 2.09097521128480e-04
6.47142857142857e+00 1.18569677552219e-02 2.06139391289046e-04
6.50000000000000e+00 1.16633929242672e-02 2.03221129724885e-04
6.52857142857143e+00 1.14729783631944e-02 2.00342245717366e-04
6.55714285714286e+00 1.12856724776874e-02 1.97502253405592e-04
6.58571428571429e+00 1.11014245160415e-02 1.94700671618295e-04
6.61428571428571e+00 1.09201845551155e-02 1.91937024091315e-04
6.64285714285714e+00 1.07419034868047e-02 1.89210839372655e-04
6.67142857142857e+00 1.05665330047350e-02 1.86521650805026e-04
6.70000000000000e+00 1.03940255911740e-02 1.83868996443133e-04
6.72857142857143e+00 1.02243345044027e-02 1.81252419229221e-04
6.75714285714286e+00 1.00574137653002e-02 1.78671466841714e-04
6.78571428571429e+00 9.89321814564519e-03 1.76125691538505e-04
6.81428571428571e+00 9.73170315560421e-03 1.73614650338910e-04
6.84285714285714e+00 9.57282503167713e-03 1.71137904931584e-04
6.87142857142857e+00 9.41654072483938e-03 1.68695021650632e-04
6.90000000000000e+00 9.26280788887738e-03 1.66285571394597e-04
6.92857142857143e+00 9.11158486912835e-03 1.63909129772425e-04
6.95714285714286e+00 8.96283069054465e-03 1.61565276962540e-04
6.98571428571429e+00 8.81650504724823e-03 1.59253597567371e-04
7.01428571428571e+00 8.67256829138793e-03 1.56973680765450e-04
7.04285714285714e+00 8.53098142239639e-03 1.54725120223030e-04
7.07142857142857e+00 8.39170607642303e-03 1.52507514065758e-04
7.10000000000000e+00 8.25470451593887e-03 1.50320464800298e-04
7.12857142857143e+00 8.11993961969655e-03 1.48163579435525e-04
7.15714285714286e+00 7.98737487210986e-03 1.46036469351810e-04
7.18571428571429e+00 7.85697435392865e-03 1.43938750166472e-04
7.21428571428571e+00 7.72870273231426e-03 1.41870041860789e-04
7.24285714285714e+00 7.60252525126574e-03 1.39829968695883e-04
7.27142857142857e+00 7.47840772220280e-03 1.37818159181476e-04
7.30000000000000e+00 7.35631651470205e-03 1.35834246000811e-04
7.32857142857143e+00 7.23621854754512e-03 1.33877866111103e-04
7.35714285714286e+00 7.11808127926782e-03 1.31948660622704e-04
7.38571428571429e+00 7.00187269983599e-03 1.30046274675023e-04
7.41428571428571e+00 6.88756132180579e-03 1.28170357542449e-04
7.44285714285714e+00 6.77511617179187e-03 1.26320562554839e-04
7.47142857142857e+00 6.66450678207516e-03 1.24496547064582e-04
7.50000000000000e+00 6.55570318234735e-03 1.22697972375224e-04
7.52857142857143e+00 6.44867589172948e-03 1.20924503824546e-04
7.55714285714286e+00 6.34339591036123e-03 1.19175810673203e-04
7.58571428571429e+00 6.23983471197095e-03 1.17451565990577e-04
7.61428571428571e+00 6.13796423600203e-03 1.15751446742971e-04
7.64285714285714e+00 6.03775688000959e-03 1.14075133718878e-04
7.67142857142857e+00 5.93918549218163e-03 1.12422311495281e-04
7.70000000000000e+00 5.84222336398198e-03 1.10792668370252e-04
7.72857142857143e+00 5.74684422303428e-03 1.09185896431477e-04
7.75714285714286e+00 5.65302222563648e-03 1.07601691453852e-04
7.78571428571429e+00 5.56073195012958e-03 1.06039752794749e-04
7.81428571428571e+00 5.46994838988423e-03 1.04499783467302e-04
7.84285714285714e+00 5.38064694652492e-03 1.02981490070486e-04
7.87142857142857e+00 5.29280342326510e-03 1.01484582755380e-04
7.90000000000000e+00 5.20639401835080e-03 1.00008775161850e-04
7.92857142857143e+00 5.12139531871638e-03 9.85537844748962e-05
7.95714285714286e+00 5.03778429332193e-03 9.71193313307091e-05
7.98571428571429e+00 4.95553828723538e-03 9.57051397207415e-05
8.01428571428571e+00 4.87463501538519e-03 9.43109370524672e-05
8.04285714285714e+00 4.79505255652198e-03 9.29364540842394e-05
8.07142857142857e+00 4.71676934727904e-03 9.15814248920462e-05
8.10000000000000e+00 4.63976417632947e-03 9.02455868102923e-05
8.12857142857143e+00 4.56401617873008e-03 8.89286804779798e-05
8.15714285714286e+00 4.48950482999096e-03 8.76304497526812e-05
8.18571428571429e+00 4.41620994079452e-03 8.63506416228127e-05
8.21428571428571e+00 4.34411165143048e-03 8.50890062579020e-05
8.24285714285714e+00 4.27319042641475e-03 8.38452969480996e-05
8.27142857142857e+00 4.20342704919626e-03 8.26192700718139e-05
8.30000000000000e+00 4.13480261695005e-03 8.14106850405523e-05
8.32857142857143e+00 4.06729853553479e-03 8.02193043366018e-05
8.35714285714286e+00 4.00089651421370e-03 7.90448934343865e-05
8.38571428571429e+00 3.93557856094234e-03 7.78872207203798e-05
8.41428571428571e+00 3.87132697741126e-03 7.67460575345512e-05
8.44285714285714e+00 3.80812435425057e-03 7.56211781143646e-05
8.47142857142857e+00 3.74595356631280e-03 7.45123595635886e-05
8.50000000000000e+00 3.68479776803268e-03 7.34193818010899e-05
8.52857142857143e+00 3.62464038893185e-03 7.23420275914308e-05
8.55714285714286e+00 3.56546512891928e-03 7.12800824730714e-05
8.58571428571429e+00 3.50725595408685e-03 7.02333346853565e-05
8.61428571428571e+00 3.44999709229325e-03 6.92015752025743e-05
8.64285714285714e+00 3.39367302889041e-03 6.81845976822455e-05
8.67142857142857e+00 3.33826850251978e-03 6.71821984353073e-05
8.70000000000000e+00 3.28376850097716e-03 6.61941763787042e-05
8.72857142857143e+00 3.23015825720513e-03 6.52203330600918e-05
8.75714285714286e+00 3.17742324510932e-03 6.42604725923776e-05
8.78571428571428e+00 3.12554917580719e-03 6.33144015872399e-05
8.81428571428571e+00 3.07452199369403e-03 6.23819291829985e-05
8.84285714285714e+00 3.02432787263449e-03 6.14628669969697e-05
8.87142857142857e+00 2.97495321221638e-03 6.05570290971594e-05
8.90000000000000e+00 2.92638463406550e-03 5.96642319584867e-05
8.92857142857143e+00 2.87860897827308e-03 5.87842944825747e-05
8.95714285714286e+00 2.83161329967102e-03 5.79170379381553e-05
8.98571428571429e+00 2.78538486448519e-03 5.70622859005929e-05
9.01428571428571e+00 2.73991114683088e-03 5.62198642745785e-05
