Energy (eV)          EEDF (eV^-(3/2))     First Anisotropy
1.45000000000000e-01 5.31657773924903e-02 6.53946724715998e-05
4.35000000000000e-01 5.11664616902284e-02 1.06312183655476e-04
7.25000000000000e-01 4.92423308808306e-02 1.35980726142849e-04
1.01500000000000e+00 4.73905576128646e-02 1.56024656513021e-04
1.30500000000000e+00 4.56084208583335e-02 1.70787253098732e-04
1.59500000000000e+00 4.38933019143502e-02 1.81993521420158e-04
1.88500000000000e+00 4.22426805551691e-02 1.90576663793586e-04
2.17500000000000e+00 4.06541313289231e-02 1.97123358852463e-04
2.46500000000000e+00 3.91253199936216e-02 2.02037097601346e-04
2.75500000000000e+00 3.76540000871747e-02 2.05612470831214e-04
3.04500000000000e+00 3.62380096264029e-02 2.08073886137343e-04
3.33500000000000e+00 3.48752679301808e-02 2.09597760407086e-04
3.62500000000000e+00 3.35637725620481e-02 2.10326172418579e-04
3.91500000000000e+00 3.23015963877945e-02 2.10375735376115e-04
4.20500000000000e+00 3.10868847436949e-02 2.09843621917639e-04
4.49500000000000e+00 2.99178527112343e-02 2.08811805595456e-04
4.78500000000000e+00 2.87927824943169e-02 2.07350138111201e-04
5.07500000000000e+00 2.77100208951072e-02 2.05518639696471e-04
5.36500000000000e+00 2.66679768847918e-02 2.03369241701064e-04
5.65500000000000e+00 2.56651192656936e-02 2.00947137923151e-04
5.94500000000000e+00 2.46999744213037e-02 1.98291850159972e-04
6.23500000000000e+00 2.37711241509234e-02 1.95438080861595e-04
6.52500000000000e+00 2.28772035857350e-02 1.92416404376938e-04
6.81500000000000e+00 2.20168991832403e-02 1.89253833893513e-04
7.10500000000000e+00 2.11889467971175e-02 1.85974291282819e-04
7.39500000000000e+00 2.03921298196634e-02 1.82599000131687e-04
7.68500000000000e+00 1.96252773940881e-02 1.79146817294801e-04
7.97500000000000e+00 1.88872626940378e-02 1.75634514718747e-04
8.26500000000000e+00 1.81770012678167e-02 1.72077020650890e-04
8.55500000000000e+00 1.74934494448742e-02 1.68487627380248e-04
8.84500000000000e+00 1.68356028022177e-02 1.64878171173561e-04
9.13500000000000e+00 1.62024946884956e-02 1.61259188936680e-04
9.42500000000000e+00 1.55931948035830e-02 1.57640055257237e-04
9.71500000000000e+00 1.50068078315824e-02 1.54029102803398e-04
1.00050000000000e+01 1.44424721252308e-02 1.50433728517782e-04
1.02950000000000e+01 1.38993584397806e-02 1.46860487620863e-04
1.05850000000000e+01 1.33766687144921e-02 1.43315177098465e-04
1.08750000000000e+01 1.28736348999499e-02 1.39802910074387e-04
1.11650000000000e+01 1.23895178294770e-02 1.36328182247189e-04
1.14550000000000e+01 1.19236061329910e-02 1.32894931388894e-04
1.17450000000000e+01 1.14752151917038e-02 1.29506590754385e-04
1.20350000000000e+01 1.10436861321314e-02 1.26166137127067e-04
1.23250000000000e+01 1.06283848579334e-02 1.22876134123955e-04
1.26150000000000e+01 1.02287011181607e-02 1.19638771297723e-04
1.29050000000000e+01 9.84404761054212e-03 1.16455899501334e-04
1.31950000000000e+01 9.47385911849241e-03 1.13329062920134e-04
1.34850000000000e+01 9.11759168057284e-03 1.10259528124766e-04
1.37750000000000e+01 8.77472179118489e-03 1.07248310454435e-04
1.40650000000000e+01 8.44474563132197e-03 1.04296198002484e-04
1.43550000000000e+01 8.12717832824892e-03 1.01403773444025e-04
1.46450000000000e+01 7.82155324302162e-03 9.85714339176147e-05
1.49350000000000e+01 7.52742128479948e-03 9.57994091488698e-05
1.52250000000000e+01 7.24435025094359e-03 9.30877779831030e-05
1.55150000000000e+01 6.97192419193055e-03 9.04364834758667e-05
1.58050000000000e+01 6.70974280014901e-03 8.78453466743971e-05
1.60950000000000e+01 6.45742082168066e-03 8.53140792090495e-05
1.63850000000000e+01 6.21458749020141e-03 8.28422948015815e-05
1.66750000000000e+01 5.98088598217081e-03 8.04295197863438e-05
1.69650000000000e+01 5.75597289250939e-03 7.80752027309232e-05
1.72550000000000e+01 5.53951772999319e-03 7.57787232343404e-05
1.75450000000000e+01 5.33120243162418e-03 7.35393999734052e-05
1.78350000000000e+01 5.13072089526293e-03 7.13564980611579e-05
1.81250000000000e+01 4.93777852983681e-03 6.92292357753753e-05
1.84150000000000e+01 4.75209182246268e-03 6.71567907098065e-05
1.87050000000000e+01 4.57338792184812e-03 6.51383053960206e-05
1.89950000000000e+01 4.40140423735901e-03 6.31728924394806e-05
1.92850000000000e+01 4.23588805316418e-03 6.12596392096132e-05
1.95750000000000e+01 4.07659615689044e-03 5.93976121201737e-05
1.98650000000000e+01 3.92329448224201e-03 5.75858605330780e-05
2.01550000000000e+01 3.77575776505946e-03 5.58234203160528e-05
2.04450000000000e+01 3.63376921231258e-03 5.41093170818922e-05
2.07350000000000e+01 3.49712018354091e-03 5.24425691347928e-05
2.10250000000000e+01 3.36560988427385e-03 5.08221901471395e-05
2.13150000000000e+01 3.23904507097970e-03 4.92471915881860e-05
2.16050000000000e+01 3.11723976711030e-03 4.77165849243498e-05
2.18950000000000e+01 3.00001498982375e-03 4.62293836092443e-05
2.21850000000000e+01 2.88719848698400e-03 4.47846048801230e-05
2.24750000000000e+01 2.77862448405048e-03 4.33812713760916e-05
2.27650000000000e+01 2.67413344048609e-03 4.20184125922279e-05
2.30550000000000e+01 2.57357181532562e-03 4.06950661826520e-05
2.33450000000000e+01 2.47679184155987e-03 3.94102791245678e-05
2.36350000000000e+01 2.38365130900433e-03 3.81631087543609e-05
2.39250000000000e+01 2.29401335533295e-03 3.69526236859995e-05
2.42150000000000e+01 2.20774626497033e-03 3.57779046211863e-05
2.45050000000000e+01 2.12472327554650e-03 3.46380450599907e-05
2.47950000000000e+01 2.04482239163010e-03 3.35321519200360e-05
2.50850000000000e+01 1.96792620546615e-03 3.24593460716908e-05
2.53750000000000e+01 1.89392172445507e-03 3.14187627961606e-05
2.56650000000000e+01 1.82270020511932e-03 3.04095521728522e-05
2.59550000000000e+01 1.75415699331393e-03 2.94308794019052e-05
2.62450000000000e+01 1.68819137044576e-03 2.84819250673441e-05
2.65350000000000e+01 1.62470640547593e-03 2.75618853458901e-05
2.68250000000000e+01 1.56360881248760e-03 2.66699721661018e-05
2.71150000000000e+01 1.50480881361005e-03 2.58054133221605e-05
2.74050000000000e+01 1.44822000709749e-03 2.49674525462912e-05
2.76950000000000e+01 1.39375924036882e-03 2.41553495435160e-05
2.79850000000000e+01 1.34134648782180e-03 2.33683799921557e-05
2.82750000000000e+01 1.29090473324199e-03 2.26058355132417e-05
2.85650000000000e+01 1.24235985663382e-03 2.18670236117622e-05
2.88550000000000e+01 1.19564052530736e-03 2.11512675924450e-05
2.91450000000000e+01 1.15067808906080e-03 2.04579064525781e-05
2.94350000000000e+01 1.10740647930468e-03 1.97862947541770e-05
2.97250000000000e+01 1.06576211197951e-03 1.91358024776333e-05
3.00150000000000e+01 1.02568379412427e-03 1.85058148588185e-05
3.03050000000000e+01 9.87112633958397e-04 1.78957322114620e-05
3.05950000000000e+01 9.49991954345170e-04 1.73049697364855e-05
3.08850000000000e+01 9.14267209509337e-04 1.67329573198418e-05
3.11750000000000e+01 8.79885904886600e-04 1.61791393202902e-05
3.14650000000000e+01 8.46797519987186e-04 1.56429743484248e-05
3.17550000000000e+01 8.14953434160153e-04 1.51239350381698e-05
3.20450000000000e+01 7.84306855149360e-04 1.46215078118564e-05
3.23350000000000e+01 7.54812750336105e-04 1.41351926399104e-05
3.26250000000000e+01 7.26427780567410e-04 1.36645027960924e-05
3.29150000000000e+01 6.99110236472714e-04 1.32089646091569e-05
3.32050000000000e+01 6.72819977175389e-04 1.27681172117250e-05
3.34950000000000e+01 6.47518371309043e-04 1.23415122870964e-05
3.37850000000000e+01 6.23168240251907e-04 1.19287138146673e-05
3.40750000000000e+01 5.99733803495925e-04 1.15292978145616e-05
3.43650000000000e+01 5.77180626070245e-04 1.11428520920294e-05
3.46550000000000e+01 5.55475567941875e-04 1.07689759821181e-05
3.49450000000000e+01 5.34586735319139e-04 1.04072800950745e-05
3.52350000000000e+01 5.14483433786379e-04 1.00573860628954e-05
3.55250000000000e+01 4.95136123201048e-04 9.71892628740062e-06
3.58150000000000e+01 4.76516374286907e-04 9.39154369017220e-06
3.61050000000000e+01 4.58596826859550e-04 9.07489146466262e-06
3.63950000000000e+01 4.41351149622870e-04 8.76863283074893e-06
3.66850000000000e+01 4.24754001477392e-04 8.47244079197727e-06
3.69750000000000e+01 4.08780994283622e-04 8.18599789571666e-06
3.72650000000000e+01 3.93408657025686e-04 7.90899599641586e-06
3.75550000000000e+01 3.78614401322607e-04 7.64113602213378e-06
3.78450000000000e+01 3.64376488236548e-04 7.38212774449319e-06
3.81350000000000e+01 3.50673996329235e-04 7.13168955218701e-06
3.84250000000000e+01 3.37486790919628e-04 6.88954822814857e-06
3.87150000000000e+01 3.24795494497673e-04 6.65543873048150e-06
3.90050000000000e+01 3.12581458250644e-04 6.42910397722805e-06
3.92950000000000e+01 3.00826734660259e-04 6.21029463504143e-06
3.95850000000000e+01 2.89514051130279e-04 5.99876891181407e-06
3.98750000000000e+01 2.78626784605852e-04 5.79429235330235e-06
4.01650000000000e+01 2.68148937147308e-04 5.59663764377714e-06
4.04550000000000e+01 2.58065112422508e-04 5.40558441071897e-06
4.07450000000000e+01 2.48360493083200e-04 5.22091903356842e-06
4.10350000000000e+01 2.39020818992155e-04 5.04243445653305e-06
4.13250000000000e+01 2.30032366269066e-04 4.86993000544469e-06
4.16150000000000e+01 2.21381927124442e-04 4.70321120865426e-06
4.19050000000000e+01 2.13056790451851e-04 4.54208962194472e-06
4.21950000000000e+01 2.05044723149996e-04 4.38638265743701e-06
4.24850000000000e+01 1.97333952147186e-04 4.23591341645876e-06
4.27750000000000e+01 1.89913147101775e-04 4.09051052634075e-06
4.30650000000000e+01 1.82771403753162e-04 3.95000798110186e-06
4.33550000000000e+01 1.75898227898879e-04 3.81424498597957e-06
4.36450000000000e+01 1.69283519974227e-04 3.68306580575997e-06
4.39350000000000e+01 1.62917560211800e-04 3.55631961685778e-06
4.42250000000000e+01 1.56790994359087e-04 3.43386036309455e-06
4.45150000000000e+01 1.50894819933172e-04 3.31554661512077e-06
4.48050000000000e+01 1.45220372992327e-04 3.20124143342589e-06
4.50950000000000e+01 1.39759315405064e-04 3.09081223487831e-06
4.53850000000000e+01 1.34503622597941e-04 2.98413066273579e-06
4.56750000000000e+01 1.29445571764112e-04 2.88107246006596e-06
4.59650000000000e+01 1.24577730515299e-04 2.78151734651508e-06
4.62550000000000e+01 1.19892945960514e-04 2.68534889836284e-06
4.65450000000000e+01 1.15384334195473e-04 2.59245443180011e-06
4.68350000000000e+01 1.11045270187265e-04 2.50272488936604e-06
4.71250000000000e+01 1.06869378039420e-04 2.41605472948079e-06
4.74150000000000e+01 1.02850521623047e-04 2.33234181901020e-06
4.77050000000000e+01 9.89827955603058e-05 2.25148732879794e-06
4.79950000000000e+01 9.52605165469359e-05 2.17339563210163e-06
4.82850000000000e+01 9.16782150011142e-05 2.09797420586914e-06
4.85750000000000e+01 8.82306270263539e-05 2.02513353479173e-06
4.88650000000000e+01 8.49126866766436e-05 1.95478701807103e-06
4.91550000000000e+01 8.17195185124573e-05 1.88685087883721e-06
4.94450000000000e+01 7.86464304366989e-05 1.82124407615665e-06
4.97350000000000e+01 7.56889068000521e-05 1.75788821956745e-06
5.00250000000000e+01 7.28426017656071e-05 1.69670748608228e-06
5.03150000000000e+01 7.01033329230112e-05 1.63762853959848e-06
5.06050000000000e+01 6.74670751427627e-05 1.58058045265630e-06
5.08950000000000e+01 6.49299546616145e-05 1.52549463048684e-06
5.11850000000000e+01 6.24882433903993e-05 1.47230473729202e-06
5.14750000000000e+01 6.01383534359101e-05 1.42094662470014e-06
5.17650000000000e+01 5.78768318287867e-05 1.37135826234104e-06
5.20550000000000e+01 5.57003554496630e-05 1.32347967048610e-06
5.23450000000000e+01 5.36057261461170e-05 1.27725285469925e-06
5.26350000000000e+01 5.15898660332494e-05 1.23262174244591e-06
5.29250000000000e+01 4.96498129709864e-05 1.18953212160802e-06
5.32150000000000e+01 4.77827162114587e-05 1.14793158085413e-06
5.35050000000000e+01 4.59858322100631e-05 1.10776945181456e-06
5.37950000000000e+01 4.42565205940502e-05 1.06899675301278e-06
5.40850000000000e+01 4.25922402827143e-05 1.03156613550482e-06
5.43750000000000e+01 4.09905457534851e-05 9.95431830179930e-07
5.46650000000000e+01 3.94490834484341e-05 9.60549596676419e-07
5.49550000000000e+01 3.79655883159157e-05 9.26876673867742e-07
5.52450000000000e+01 3.65378804822601e-05 8.94371731874842e-07
5.55350000000000e+01 3.51638620486296e-05 8.62994825561783e-07
5.58250000000000e+01 3.38415140083290e-05 8.32707349472650e-07
5.61150000000000e+01 3.25688932800417e-05 8.03471994168707e-07
5.64050000000000e+01 3.13441298526325e-05 7.75252703925705e-07
5.66950000000000e+01 3.01654240373203e-05 7.48014635752308e-07
5.69850000000000e+01 2.90310438231838e-05 7.21724119691429e-07
5.72750000000000e+01 2.79393223321150e-05 6.96348620367219e-07
5.75650000000000e+01 2.68886553694786e-05 6.71856699741452e-07
5.78550000000000e+01 2.58774990668808e-05 6.48217981043857e-07
5.81450000000000e+01 2.49043676135823e-05 6.25403113841899e-07
5.84350000000000e+01 2.39678310732216e-05 6.03383740216387e-07
5.87250000000000e+01 2.30665132826416e-05 5.82132462010136e-07
5.90150000000000e+01 2.21990898297317e-05 5.61622809117731e-07
5.93050000000000e+01 2.13642861073133e-05 5.41829208785363e-07
5.95950000000000e+01 2.05608754402097e-05 5.22726955890462e-07
5.98850000000000e+01 1.97876772827483e-05 5.04292184171598e-07
6.01750000000000e+01 1.90435554840461e-05 4.86501838380081e-07
6.04650000000000e+01 1.83274166185296e-05 4.69333647325335e-07
6.07550000000000e+01 1.76382083792364e-05 4.52766097786852e-07
6.10450000000000e+01 1.69749180315368e-05 4.36778409266375e-07
6.13350000000000e+01 1.63365709250038e-05 4.21350509554669e-07
6.16250000000000e+01 1.57222290612451e-05 4.06463011087879e-07
6.19150000000000e+01 1.51309897155912e-05 3.92097188069203e-07
6.22050000000000e+01 1.45619841106167e-05 3.78234954332323e-07
6.24950000000000e+01 1.40143761395431e-05 3.64858841923690e-07
6.27850000000000e+01 1.34873611376490e-05 3.51951980381365e-07
6.30750000000000e+01 1.29801646998820e-05 3.39498076688774e-07
6.33650000000000e+01 1.24920415429338e-05 3.27481395882401e-07
6.36550000000000e+01 1.20222744101084e-05 3.15886742292968e-07
6.39450000000000e+01 1.15701730173724e-05 3.04699441400315e-07
6.42350000000000e+01 1.11350730390394e-05 2.93905322282703e-07
6.45250000000000e+01 1.07163351315987e-05 2.83490700641865e-07
6.48150000000000e+01 1.03133439942521e-05 2.73442362385678e-07
6.51050000000000e+01 9.92550746478088e-06 2.63747547750842e-07
6.53950000000000e+01 9.55225564941171e-06 2.54393935948481e-07
6.56850000000000e+01 9.19304008540507e-06 2.45369630316084e-07
6.59750000000000e+01 8.84733293513446e-06 2.36663143959706e-07
6.62650000000000e+01 8.51462621047256e-06 2.28263385870819e-07
6.65550000000000e+01 8.19443102634461e-06 2.20159647502674e-07
6.68450000000000e+01 7.88627688235212e-06 2.12341589791503e-07
6.71350000000000e+01 7.58971097141138e-06 2.04799230608287e-07
6.74250000000000e+01 7.30429751439080e-06 1.97522932627317e-07
6.77150000000000e+01 7.02961711976948e-06 1.90503391598145e-07
6.80050000000000e+01 6.76526616737592e-06 1.83731625007925e-07
6.82950000000000e+01 6.51085621530155e-06 1.77198961121582e-07
6.85850000000000e+01 6.26601342911736e-06 1.70897028387590e-07
6.88750000000000e+01 6.03037803255507e-06 1.64817745197549e-07
6.91650000000000e+01 5.80360377884559e-06 1.58953309988075e-07
6.94550000000000e+01 5.58535744193799e-06 1.53296191673911e-07
6.97450000000000e+01 5.37531832685129e-06 1.47839120401499e-07
7.00350000000000e+01 5.17317779843965e-06 1.42575078612567e-07
7.03250000000000e+01 4.97863882787854e-06 1.37497292407643e-07
7.06150000000000e+01 4.79141555620533e-06 1.32599223199680e-07
7.09050000000000e+01 4.61123287427319e-06 1.27874559648334e-07
7.11950000000000e+01 4.43782601850085e-06 1.23317209865694e-07
7.14850000000000e+01 4.27094018182443e-06 1.18921293884564e-07
7.17750000000000e+01 4.11033013927943e-06 1.14681136380688e-07
7.20650000000000e+01 3.95575988766293e-06 1.10591259640562e-07
7.23550000000000e+01 3.80700229874630e-06 1.06646376766752e-07
7.26450000000000e+01 3.66383878552909e-06 1.02841385112900e-07
7.29350000000000e+01 3.52605898104340e-06 9.91713599408189e-08
7.32250000000000e+01 3.39346042923703e-06 9.56315482923693e-08
7.35150000000000e+01 3.26584828748100e-06 9.22173630689871e-08
7.38050000000000e+01 3.14303504026437e-06 8.89243773120012e-08
7.40950000000000e+01 3.02484022365571e-06 8.57483186770776e-08
7.43850000000000e+01 2.91109016012623e-06 8.26850640963523e-08
7.46750000000000e+01 2.80161770334495e-06 7.97306346220127e-08
7.49650000000000e+01 2.69626199257102e-06 7.68811904452885e-08
7.52550000000000e+01 2.59486821628209e-06 7.41330260850207e-08
7.55450000000000e+01 2.49728738469159e-06 7.14825657401473e-08
7.58350000000000e+01 2.40337611082049e-06 6.89263588006356e-08
7.61250000000000e+01 2.31299639980200e-06 6.64610755115739e-08
7.64150000000000e+01 2.22601544610952e-06 6.40835027852962e-08
7.67050000000000e+01 2.14230543840982e-06 6.17905401565874e-08
7.69950000000000e+01 2.06174337175488e-06 5.95791958761743e-08
7.72850000000000e+01 1.98421086683626e-06 5.74465831378601e-08
7.75750000000000e+01 1.90959399603647e-06 5.53899164348245e-08
7.78650000000000e+01 1.83778311602174e-06 5.34065080407434e-08
7.81550000000000e+01 1.76867270663018e-06 5.14937646115317e-08
7.84450000000000e+01 1.70216121581864e-06 4.96491839036473e-08
7.87350000000000e+01 1.63815091044033e-06 4.78703516050315e-08
7.90250000000000e+01 1.57654773263404e-06 4.61549382748867e-08
7.93150000000000e+01 1.51726116161388e-06 4.45006963886162e-08
7.96050000000000e+01 1.46020408065646e-06 4.29054574843747e-08
7.98950000000000e+01 1.40529264909002e-06 4.13671294077969e-08
8.01850000000000e+01 1.35244617909752e-06 3.98836936515764e-08
8.04750000000000e+01 1.30158701715255e-06 3.84532027866875e-08
8.07650000000000e+01 1.25264042991387e-06 3.70737779821432e-08
8.10550000000000e+01 1.20553449441090e-06 3.57436066102844e-08
8.13450000000000e+01 1.16019999235892e-06 3.44609399346992e-08
8.16350000000000e+01 1.11657030844846e-06 3.32240908779644e-08
8.19250000000000e+01 1.07458133245962e-06 3.20314318664951e-08
8.22150000000000e+01 1.03417136505739e-06 3.08813927498785e-08
8.25050000000000e+01 9.95281027129567e-07 2.97724587921588e-08
8.27950000000000e+01 9.57853172534042e-07 2.87031687326180e-08
8.30850000000000e+01 9.21832804127281e-07 2.76721129136858e-08
8.33750000000000e+01 8.87166992950545e-07 2.66779314736867e-08
8.36650000000000e+01 8.53804800455160e-07 2.57193126022110e-08
8.39550000000000e+01 8.21697203652517e-07 2.47949908559693e-08
8.42450000000000e+01 7.90797023078842e-07 2.39037455330641e-08
8.45350000000000e+01 7.61058853468868e-07 2.30443991036784e-08
8.48250000000000e+01 7.32438997036539e-07 2.22158156952503e-08
8.51150000000000e+01 7.04895399264725e-07 2.14168996302669e-08
8.54050000000000e+01 6.78387587109576e-07 2.06465940148742e-08
8.56950000000000e+01 6.52876609528728e-07 1.99038793765592e-08
8.59850000000000e+01 6.28324980245958e-07 1.91877723492207e-08
8.62750000000000e+01 6.04696622668194e-07 1.84973244040000e-08
8.65650000000000e+01 5.81956816873942e-07 1.78316206242996e-08
8.68550000000000e+01 5.60072148595225e-07 1.71897785234729e-08
8.71450000000000e+01 5.39010460118070e-07 1.65709469037108e-08
8.74350000000000e+01 5.18740803029410e-07 1.59743047547136e-08
8.77250000000000e+01 4.99233392740936e-07 1.53990601907729e-08
8.80150000000000e+01 4.80459564723108e-07 1.48444494249428e-08
8.83050000000000e+01 4.62391732384991e-07 1.43097357790187e-08
8.85950000000000e+01 4.45003346538041e-07 1.37942087280906e-08
8.88850000000000e+01 4.28268856384257e-07 1.32971829784756e-08
8.91750000000000e+01 4.12163671971398e-07 1.28179975778775e-08
8.94650000000000e+01 3.96664128060074e-07 1.23560150566591e-08
8.97550000000000e+01 3.81747449349629e-07 1.19106205991518e-08
9.00450000000000e+01 3.67391717011721e-07 1.14812212439629e-08
9.03350000000000e+01 3.53575836482407e-07 1.10672451122775e-08
9.06250000000000e+01 3.40279506465426e-07 1.06681406631849e-08
9.09150000000000e+01 3.27483189101117e-07 1.02833759750933e-08
9.12050000000000e+01 3.15168081257150e-07 9.91243805232753e-09
9.14950000000000e+01 3.03316086898870e-07 9.55483215603825e-09
