Energy (eV)          EEDF (eV^-(3/2))     First Anisotropy
5.18085106382979e-03 6.70810003648774e-01 3.64007074318229e-04
1.55425531914894e-02 6.65901578531185e-01 6.00900154693288e-04
2.59042553191489e-02 6.61029069127747e-01 7.92782272750262e-04
3.62659574468085e-02 6.56192212675867e-01 9.38268435391543e-04
4.66276595744681e-02 6.51390748288203e-01 1.05936744249017e-03
5.69893617021277e-02 6.46624416992807e-01 1.16440589019177e-03
6.73510638297872e-02 6.41892961707291e-01 1.25769542907455e-03
7.77127659574468e-02 6.37196127246620e-01 1.34184128608142e-03
8.80744680851064e-02 6.32533660283707e-01 1.41857230758020e-03
9.84361702127660e-02 6.27905309345622e-01 1.48911111576622e-03
1.08797872340426e-01 6.23310824807750e-01 1.55436328276476e-03
1.19159574468085e-01 6.18749958858856e-01 1.61502364838057e-03
1.29521276595745e-01 6.14222465470033e-01 1.67164042228929e-03
1.39882978723404e-01 6.09728100487476e-01 1.72465602453009e-03
1.50244680851064e-01 6.05266621504319e-01 1.77443425665789e-03
1.60606382978723e-01 6.00837787887634e-01 1.82127902199681e-03
1.70968085106383e-01 5.96441360765286e-01 1.86544763513233e-03
1.81329787234043e-01 5.92077103013068e-01 1.90716051726307e-03
1.91691489361702e-01 5.87744779242153e-01 1.94660841651006e-03
2.02053191489362e-01 5.83444155786147e-01 1.98395789027920e-03
2.12414893617021e-01 5.79175000668373e-01 2.01935552736419e-03
2.22776595744681e-01 5.74937083651072e-01 2.05293126503368e-03
2.33138297872340e-01 5.70730176159695e-01 2.08480102231920e-03
2.43500000000000e-01 5.66554051292254e-01 2.11506880366680e-03
2.53861702127660e-01 5.62408483807012e-01 2.14382841466744e-03
2.64223404255319e-01 5.58293250110407e-01 2.17116486619073e-03
2.74585106382979e-01 5.54208128245042e-01 2.19715553541347e-03
2.84946808510638e-01 5.50152897877636e-01 2.22187113543271e-03
2.95308510638298e-01 5.46127340273610e-01 2.24537652243518e-03
3.05670212765957e-01 5.42131238326618e-01 2.26773138671237e-03
3.16031914893617e-01 5.38164376504701e-01 2.28899084121561e-03
3.26393617021277e-01 5.34226540853001e-01 2.30920591647166e-03
3.36755319148936e-01 5.30317518982168e-01 2.32842399340385e-03
3.47117021276596e-01 5.26437100056982e-01 2.34668917612568e-03
3.57478723404255e-01 5.22585074784975e-01 2.36404261603910e-03
3.67840425531915e-01 5.18761235405112e-01 2.38052279635768e-03
3.78202127659574e-01 5.14965375666668e-01 2.39616577567009e-03
3.88563829787234e-01 5.11197290848320e-01 2.41100540957005e-03
3.98925531914894e-01 5.07456777716399e-01 2.42507354686570e-03
4.09287234042553e-01 5.03743634524337e-01 2.43840019611774e-03
4.19648936170213e-01 5.00057661001751e-01 2.45101367962744e-03
4.30010638297872e-01 4.96398658343706e-01 2.46294076948638e-03
4.40372340425532e-01 4.92766429199968e-01 2.47420680940956e-03
4.50734042553191e-01 4.89160777664350e-01 2.48483582542031e-03
4.61095744680851e-01 4.85581509256497e-01 2.49485062042142e-03
4.71457446808511e-01 4.82028430934658e-01 2.50427286577328e-03
4.81819148936170e-01 4.78501351061683e-01 2.51312318442001e-03
4.92180851063830e-01 4.75000079402667e-01 2.52142121987516e-03
5.02542553191489e-01 4.71524427114660e-01 2.52918570394804e-03
5.12904255319149e-01 4.68074206736540e-01 2.53643451722931e-03
5.23265957446808e-01 4.64649232178872e-01 2.54318474547734e-03
5.33627659574468e-01 4.61249318707578e-01 2.54945272666662e-03
5.43989361702128e-01 4.57874282953083e-01 2.55525409965040e-03
5.54351063829787e-01 4.54523942881070e-01 2.56060384904162e-03
5.64712765957447e-01 4.51198117789202e-01 2.56551634078521e-03
5.75074468085106e-01 4.47896628297365e-01 2.57000535941914e-03
5.85436170212766e-01 4.44619296337991e-01 2.57408414135307e-03
5.95797872340425e-01 4.41365945146480e-01 2.57776540564207e-03
6.06159574468085e-01 4.38136399251648e-01 2.58106138348930e-03
6.16521276595745e-01 4.34930484461140e-01 2.58398384161779e-03
6.26882978723404e-01 4.31748027867583e-01 2.58654410885188e-03
6.37244680851064e-01 4.28588857823530e-01 2.58875310098192e-03
6.47606382978723e-01 4.25452803937506e-01 2.59062133888641e-03
6.57968085106383e-01 4.22339697064815e-01 2.59215896937768e-03
6.68329787234043e-01 4.19249369298419e-01 2.59337578367732e-03
6.78691489361702e-01 4.16181653959893e-01 2.59428123468703e-03
6.89053191489362e-01 4.13136385590425e-01 2.59488445403708e-03
6.99414893617021e-01 4.10113399937641e-01 2.59519426452661e-03
7.09776595744681e-01 4.07112533959641e-01 2.59521919612356e-03
7.20138297872340e-01 4.04133625803168e-01 2.59496750110086e-03
7.30500000000000e-01 4.01176514799272e-01 2.59444716379814e-03
7.40861702127660e-01 3.98241041454640e-01 2.59366591331632e-03
7.51223404255319e-01 3.95327047442999e-01 2.59263123459584e-03
7.61585106382979e-01 3.92434375596579e-01 2.59135037886029e-03
7.71946808510638e-01 3.89562869897637e-01 2.58983037425798e-03
7.82308510638298e-01 3.86712375466452e-01 2.58807803276137e-03
7.92670212765957e-01 3.83882738563832e-01 2.58609996056232e-03
8.03031914893617e-01 3.81073806571852e-01 2.58390256799792e-03
8.13393617021277e-01 3.78285427989319e-01 2.58149207496070e-03
8.23755319148936e-01 3.75517452423595e-01 2.57887451916594e-03
8.34117021276596e-01 3.72769730582491e-01 2.57605576320730e-03
8.44478723404255e-01 3.70042114266217e-01 2.57304150125340e-03
8.54840425531915e-01 3.67334456359386e-01 2.56983726611243e-03
8.65202127659574e-01 3.64646610820027e-01 2.56644843312125e-03
8.75563829787234e-01 3.61978432680950e-01 2.56288022732622e-03
8.85925531914894e-01 3.59329778032597e-01 2.55913773039373e-03
8.96287234042553e-01 3.56700504018417e-01 2.55522588361177e-03
9.06648936170213e-01 3.54090468827162e-01 2.55114949357426e-03
9.17010638297872e-01 3.51499531685243e-01 2.54691323689781e-03
9.27372340425532e-01 3.48927552849136e-01 2.54252166472285e-03
9.37734042553191e-01 3.46374393597843e-01 2.53797920764475e-03
9.48095744680851e-01 3.43839916222787e-01 2.53329017788028e-03
9.58457446808511e-01 3.41323984028329e-01 2.52845877448174e-03
9.68819148936170e-01 3.38826461316374e-01 2.52348908838705e-03
9.79180851063830e-01 3.36347213381754e-01 2.51838510402502e-03
9.89542553191489e-01 3.33886106504956e-01 2.51315070340299e-03
9.99904255319149e-01 3.31443007944919e-01 2.50778967177600e-03
1.01026595744681e+00 3.29017785922371e-01 2.50230569239293e-03
1.02062765957447e+00 3.26610309646135e-01 2.49670235675546e-03
1.03098936170213e+00 3.24220449267519e-01 2.49098317237080e-03
1.04135106382979e+00 3.21848075887937e-01 2.48515155568345e-03
1.05171276595745e+00 3.19493061552032e-01 2.47921084402403e-03
1.06207446808511e+00 3.17155279219152e-01 2.47316428136573e-03
1.07243617021277e+00 3.14834602821798e-01 2.46701503207263e-03
1.08279787234043e+00 3.12530907192885e-01 2.46076619461890e-03
1.09315957446809e+00 3.10244068081211e-01 2.45442079195328e-03
1.10352127659574e+00 3.07973962124574e-01 2.44798176342481e-03
1.11388297872340e+00 3.05720466904232e-01 2.44145197766704e-03
1.12424468085106e+00 3.03483460876602e-01 2.43483424548512e-03
1.13460638297872e+00 3.01262823387407e-01 2.42813130535676e-03
1.14496808510638e+00 2.99058434665270e-01 2.42134583581642e-03
1.15532978723404e+00 2.96870175796629e-01 2.41448044218233e-03
1.16569148936170e+00 2.94697928775551e-01 2.40753766843440e-03
1.17605319148936e+00 2.92541576440621e-01 2.40052000911945e-03
1.18641489361702e+00 2.90401002487690e-01 2.39342989550131e-03
1.19677659574468e+00 2.88276091463670e-01 2.38626970702856e-03
1.20713829787234e+00 2.86166728743140e-01 2.37904175863116e-03
1.21750000000000e+00 2.84072800573983e-01 2.37174831172980e-03
1.22786170212766e+00 2.81994194018955e-01 2.36439158527034e-03
1.23822340425532e+00 2.79930796967198e-01 2.35697374702545e-03
1.24858510638298e+00 2.77882498112107e-01 2.34949690619757e-03
1.25894680851064e+00 2.75849186994033e-01 2.34196312383736e-03
1.26930851063830e+00 2.73830753945177e-01 2.33437442329108e-03
1.27967021276596e+00 2.71827090100166e-01 2.32673277745776e-03
1.29003191489362e+00 2.69838087390244e-01 2.31904011886375e-03
1.30039361702128e+00 2.67863638522528e-01 2.31129832795138e-03
1.31075531914894e+00 2.65903637019265e-01 2.30350924277947e-03
1.32111702127660e+00 2.63957977166658e-01 2.29567466877189e-03
1.33147872340426e+00 2.62026554024406e-01 2.28779636657987e-03
1.34184042553191e+00 2.60109263420109e-01 2.27987606149475e-03
1.35220212765957e+00 2.58206001929824e-01 2.27191543228672e-03
1.36256382978723e+00 2.56316666914205e-01 2.26391612026637e-03
1.37292553191489e+00 2.54441156470888e-01 2.25587973839424e-03
1.38328723404255e+00 2.52579369443140e-01 2.24780786358484e-03
1.39364893617021e+00 2.50731205401414e-01 2.23970203009922e-03
1.40401063829787e+00 2.48896564677281e-01 2.23156373817308e-03
1.41437234042553e+00 2.47075348318359e-01 2.22339446268386e-03
1.42473404255319e+00 2.45267458096300e-01 2.21519564203136e-03
1.43509574468085e+00 2.43472796501524e-01 2.20696868651287e-03
1.44545744680851e+00 2.41691266725865e-01 2.19871496807263e-03
1.45581914893617e+00 2.39922772693900e-01 2.19043582838552e-03
1.46618085106383e+00 2.38167219020912e-01 2.18213258699556e-03
1.47654255319149e+00 2.36424511020105e-01 2.17380653073357e-03
1.48690425531915e+00 2.34694554697553e-01 2.16545892158619e-03
1.49726595744681e+00 2.32977256735857e-01 2.15709098694215e-03
1.50762765957447e+00 2.31272524523105e-01 2.14870392718227e-03
1.51798936170213e+00 2.29580266113608e-01 2.14029892332565e-03
1.52835106382979e+00 2.27900390234450e-01 2.13187712696968e-03
1.53871276595745e+00 2.26232806280594e-01 2.12343966769514e-03
1.54907446808511e+00 2.24577424299508e-01 2.11498764377546e-03
1.55943617021277e+00 2.22934155017961e-01 2.10652212932289e-03
1.56979787234043e+00 2.21302909805299e-01 2.09804418148002e-03
1.58015957446808e+00 2.19683600679399e-01 2.08955483398735e-03
1.59052127659574e+00 2.18076140292017e-01 2.08105509161481e-03
1.60088297872340e+00 2.16480441954030e-01 2.07254593698925e-03
1.61124468085106e+00 2.14896419600567e-01 2.06402833747407e-03
1.62160638297872e+00 2.13323987796488e-01 2.05550323595712e-03
1.63196808510638e+00 2.11763061731814e-01 2.04697155751037e-03
1.64232978723404e+00 2.10213557207892e-01 2.03843420087659e-03
1.65269148936170e+00 2.08675390660801e-01 2.02989204490379e-03
1.66305319148936e+00 2.07148479128678e-01 2.02134595503525e-03
1.67341489361702e+00 2.05632740256694e-01 2.01279677454723e-03
1.68377659574468e+00 2.04128092292639e-01 2.00424533083766e-03
1.69413829787234e+00 2.02634454073865e-01 1.99569242732075e-03
1.70450000000000e+00 2.01151745049007e-01 1.98713884950245e-03
1.71486170212766e+00 1.99679885247331e-01 1.97858537110533e-03
1.72522340425532e+00 1.98218795283263e-01 1.97003274844128e-03
1.73558510638298e+00 1.96768396343919e-01 1.96148171551688e-03
1.74594680851064e+00 1.95328610209619e-01 1.95293298985461e-03
1.75630851063830e+00 1.93899359224709e-01 1.94438727836191e-03
1.76667021276596e+00 1.92480566301742e-01 1.93584526930662e-03
1.77703191489362e+00 1.91072154917343e-01 1.92730763800283e-03
1.78739361702128e+00 1.89674049100409e-01 1.91877503937957e-03
1.79775531914894e+00 1.88286173451176e-01 1.91024811348144e-03
1.80811702127660e+00 1.86908453113812e-01 1.90172749102091e-03
1.81847872340426e+00 1.85540813780206e-01 1.89321378574072e-03
1.82884042553191e+00 1.84183181685984e-01 1.88470759979671e-03
1.83920212765957e+00 1.82835483599343e-01 1.87620951668195e-03
1.84956382978723e+00 1.81497646838791e-01 1.86772010643204e-03
1.85992553191489e+00 1.80169599247365e-01 1.85923993087840e-03
1.87028723404255e+00 1.78851269196090e-01 1.85076953872577e-03
1.88064893617021e+00 1.77542585573293e-01 1.84230946125639e-03
1.89101063829787e+00 1.76243477801387e-01 1.83386021732714e-03
1.90137234042553e+00 1.74953875812285e-01 1.82542231840916e-03
1.91173404255319e+00 1.73673710050597e-01 1.81699626158987e-03
1.92209574468085e+00 1.72402911469882e-01 1.80858253445903e-03
1.93245744680851e+00 1.71141411522533e-01 1.80018160861551e-03
1.94281914893617e+00 1.69889142175404e-01 1.79179394439924e-03
1.95318085106383e+00 1.68646035886667e-01 1.78341999567017e-03
1.96354255319149e+00 1.67412025608701e-01 1.77506020314195e-03
1.97390425531915e+00 1.66187044784493e-01 1.76671499901640e-03
1.98426595744681e+00 1.64971027338036e-01 1.75838480080033e-03
1.99462765957447e+00 1.63763907688904e-01 1.75007001578977e-03
2.00498936170213e+00 1.62565620730444e-01 1.74177104560075e-03
2.01535106382979e+00 1.61376101832392e-01 1.73348827982277e-03
2.02571276595745e+00 1.60195286837404e-01 1.72522210041698e-03
2.03607446808511e+00 1.59023112051951e-01 1.71697287582173e-03
2.04643617021277e+00 1.57859514259909e-01 1.70874096520922e-03
2.05679787234043e+00 1.56704430701997e-01 1.70052672278210e-03
2.06715957446809e+00 1.55557799078158e-01 1.69233049366935e-03
2.07752127659574e+00 1.54419557538827e-01 1.68415261033105e-03
2.08788297872340e+00 1.53289644697816e-01 1.67599339664832e-03
2.09824468085106e+00 1.52167999612668e-01 1.66785317205506e-03
2.10860638297872e+00 1.51054561786842e-01 1.65973224571237e-03
2.11896808510638e+00 1.49949271166470e-01 1.65163092051651e-03
2.12932978723404e+00 1.48852068132058e-01 1.64354948768752e-03
2.13969148936170e+00 1.47762893510526e-01 1.63548823065073e-03
2.15005319148936e+00 1.46681688556653e-01 1.62744742896041e-03
2.16041489361702e+00 1.45608394955061e-01 1.61942735274930e-03
2.17077659574468e+00 1.44542954817084e-01 1.61142826653773e-03
2.18113829787234e+00 1.43485310672888e-01 1.60345042407336e-03
2.19150000000000e+00 1.42435405482715e-01 1.59549407201985e-03
2.20186170212766e+00 1.41393182619361e-01 1.58755945368330e-03
2.21222340425532e+00 1.40358585869974e-01 1.57964680541495e-03
2.22258510638298e+00 1.39331559428493e-01 1.57175635345346e-03
2.23294680851064e+00 1.38312047906320e-01 1.56388831747349e-03
2.24330851063830e+00 1.37299996315554e-01 1.55604291417073e-03
2.25367021276596e+00 1.36295350070644e-01 1.54822035216350e-03
2.26403191489362e+00 1.35298054985456e-01 1.54042083547230e-03
2.27439361702128e+00 1.34308057266081e-01 1.53264455877667e-03
2.28475531914894e+00 1.33325303520814e-01 1.52489171078702e-03
2.29511702127660e+00 1.32349740744304e-01 1.51716247765477e-03
2.30547872340426e+00 1.31381316319046e-01 1.50945703811019e-03
2.31584042553191e+00 1.30419978012551e-01 1.50177556677313e-03
2.32620212765957e+00 1.29465673970505e-01 1.49411822962913e-03
2.33656382978723e+00 1.28518352726111e-01 1.48648518723636e-03
2.34692553191489e+00 1.27577963185086e-01 1.47887659796807e-03
2.35728723404255e+00 1.26644454627017e-01 1.47129261485634e-03
2.36764893617021e+00 1.25717776698783e-01 1.46373338281562e-03
2.37801063829787e+00 1.24797879423432e-01 1.45619904173133e-03
2.38837234042553e+00 1.23884713185810e-01 1.44868972958080e-03
2.39873404255319e+00 1.22978228733807e-01 1.44120557796399e-03
2.40909574468085e+00 1.22078377175697e-01 1.43374671513316e-03
2.41945744680851e+00 1.21185109973891e-01 1.42631326183043e-03
2.42981914893617e+00 1.20298378953235e-01 1.41890533422571e-03
2.44018085106383e+00 1.19418136287420e-01 1.41152304688849e-03
2.45054255319149e+00 1.18544334500082e-01 1.40416650852270e-03
2.46090425531915e+00 1.17676926462257e-01 1.39683582485215e-03
2.47126595744681e+00 1.16815865386418e-01 1.38953109464951e-03
2.48162765957447e+00 1.15961104834258e-01 1.38225241253213e-03
2.49198936170213e+00 1.15112598703811e-01 1.37499987179102e-03
2.50235106382979e+00 1.14270301230443e-01 1.36777356032220e-03
2.51271276595745e+00 1.13434166984392e-01 1.36057356337573e-03
2.52307446808511e+00 1.12604150865093e-01 1.35339995976373e-03
2.53343617021277e+00 1.11780208108469e-01 1.34625282452431e-03
2.54379787234043e+00 1.10962294274727e-01 1.33913223161451e-03
2.55415957446808e+00 1.10150365249248e-01 1.33203825126449e-03
2.56452127659574e+00 1.09344377237129e-01 1.32497094764491e-03
2.57488297872340e+00 1.08544286770120e-01 1.31793038143295e-03
2.58524468085106e+00 1.07750050694915e-01 1.31091661240804e-03
2.59560638297872e+00 1.06961626173967e-01 1.30392969570608e-03
2.60596808510638e+00 1.06178970683179e-01 1.29696968434045e-03
2.61632978723404e+00 1.05402042006704e-01 1.29003662571074e-03
2.62669148936170e+00 1.04630798243448e-01 1.28313056404675e-03
2.63705319148936e+00 1.03865197795968e-01 1.27625154288180e-03
2.64741489361702e+00 1.03105199371195e-01 1.26939960147727e-03
2.65777659574468e+00 1.02350761978210e-01 1.26257477722594e-03
2.66813829787234e+00 1.01601844923286e-01 1.25577710231768e-03
2.67850000000000e+00 1.00858407815985e-01 1.24900660606910e-03
2.68886170212766e+00 1.00120410558632e-01 1.24226331728018e-03
2.69922340425532e+00 9.93878133469508e-02 1.23554726190612e-03
2.70958510638298e+00 9.86605766652941e-02 1.22885846100185e-03
2.71994680851064e+00 9.79386612924475e-02 1.22219693296816e-03
2.73030851063830e+00 9.72220282915224e-02 1.21556269582355e-03
2.74067021276596e+00 9.65106390105358e-02 1.20895576391038e-03
2.75103191489362e+00 9.58044550803295e-02 1.20237615010180e-03
2.76139361702128e+00 9.51034384100132e-02 1.19582386272889e-03
2.77175531914894e+00 9.44075511924171e-02 1.18929890772116e-03
2.78211702127660e+00 9.37167558944951e-02 1.18280129077333e-03
2.79247872340426e+00 9.30310152578347e-02 1.17633101419926e-03
2.80284042553191e+00 9.23502922966520e-02 1.16988807903732e-03
2.81320212765957e+00 9.16745502934424e-02 1.16347248211481e-03
2.82356382978723e+00 9.10037528041016e-02 1.15708421808943e-03
2.83392553191489e+00 9.03378636488110e-02 1.15072328151534e-03
2.84428723404255e+00 8.96768469124853e-02 1.14438966479227e-03
2.85464893617021e+00 8.90206669405853e-02 1.13808335635260e-03
2.86501063829787e+00 8.83692883439938e-02 1.13180434263094e-03
2.87537234042553e+00 8.77226759902616e-02 1.12555261005622e-03
2.88573404255319e+00 8.70807950040080e-02 1.11932814215179e-03
2.89609574468085e+00 8.64436107650422e-02 1.11313092147077e-03
2.90645744680851e+00 8.58110889043645e-02 1.10696092688838e-03
2.91681914893617e+00 8.51831953087473e-02 1.10081813548017e-03
2.92718085106383e+00 8.45598961124180e-02 1.09470252442332e-03
2.93754255319149e+00 8.39411576974030e-02 1.08861406822527e-03
2.94790425531915e+00 8.33269466917193e-02 1.08255274057095e-03
2.95826595744681e+00 8.27172299655545e-02 1.07651851173583e-03
2.96862765957447e+00 8.21119746355724e-02 1.07051135037755e-03
2.97898936170213e+00 8.15111480570067e-02 1.06453122535020e-03
2.98935106382979e+00 8.09147178239575e-02 1.05857810305650e-03
2.99971276595745e+00 8.03226517676457e-02 1.05265194921145e-03
3.01007446808511e+00 7.97349179527655e-02 1.04675272636874e-03
3.02043617021277e+00 7.91514846815320e-02 1.04088039563165e-03
3.03079787234043e+00 7.85723204861627e-02 1.03503491838406e-03
3.04115957446809e+00 7.79973941291309e-02 1.02921625456228e-03
3.05152127659574e+00 7.74266745996487e-02 1.02342436112520e-03
3.06188297872340e+00 7.68601311175248e-02 1.01765919370478e-03
3.07224468085106e+00 7.62977331259381e-02 1.01192070827697e-03
3.08260638297872e+00 7.57394502916547e-02 1.00620885871789e-03
3.09296808510638e+00 7.51852525033959e-02 1.00052359842734e-03
3.10332978723404e+00 7.46351098684767e-02 9.94864878045997e-04
3.11369148936170e+00 7.40889927164335e-02 9.89232647030741e-04
3.12405319148936e+00 7.35468715921497e-02 9.83626855249929e-04
3.13441489361702e+00 7.30087172560359e-02 9.78047450647377e-04
3.14477659574468e+00 7.24745006824547e-02 9.72494380793052e-04
3.15513829787234e+00 7.19441930565094e-02 9.66967590700305e-04
3.16550000000000e+00 7.14177657774556e-02 9.61467024330214e-04
3.17586170212766e+00 7.08951904521604e-02 9.55992626114505e-04
3.18622340425532e+00 7.03764388952480e-02 9.50544339429869e-04
3.19658510638298e+00 6.98614831260024e-02 9.45122105245688e-04
3.20694680851064e+00 6.93502953716216e-02 9.39725863576515e-04
3.21730851063830e+00 6.88428480609253e-02 9.34355554952184e-04
3.22767021276596e+00 6.83391138244746e-02 9.29011118260836e-04
3.23803191489362e+00 6.78390654930987e-02 9.23692492177801e-04
3.24839361702128e+00 6.73426760949317e-02 9.18399613149258e-04
3.25875531914894e+00 6.68499188584754e-02 9.13132416779026e-04
3.26911702127660e+00 6.63607672066093e-02 9.07890839233163e-04
