Energy (eV)          EEDF (eV^-(3/2))     First Anisotropy
7.10416666666667e-02 3.60976482283062e-02 2.75389976784134e-05
2.13125000000000e-01 3.55819831040573e-02 4.53022001910901e-05
3.55208333333333e-01 3.50736844004467e-02 5.93487581890305e-05
4.97291666666667e-01 3.45726468887110e-02 6.97470011023299e-05
6.39375000000000e-01 3.40787668399290e-02 7.81962238930790e-05
7.81458333333333e-01 3.35919420069633e-02 8.53462179017410e-05
9.23541666666667e-01 3.31120716048342e-02 9.15368779264796e-05
1.06562500000000e+00 3.26390562874029e-02 9.69756034337634e-05
1.20770833333333e+00 3.21727981260640e-02 1.01801351801430e-04
1.34979166666667e+00 3.17132005960630e-02 1.06113319195400e-04
1.49187500000000e+00 3.12601685478791e-02 1.09985656135211e-04
1.63395833333333e+00 3.08136081887739e-02 1.13475768737611e-04
1.77604166666667e+00 3.03734270718417e-02 1.16629345297653e-04
1.91812500000000e+00 2.99395340675224e-02 1.19483570059431e-04
2.06020833333333e+00 2.95118393461303e-02 1.22069268224684e-04
2.20229166666667e+00 2.90902543656725e-02 1.24412391927384e-04
2.34437500000000e+00 2.86746918465963e-02 1.26535080046852e-04
2.48645833333333e+00 2.82650657545970e-02 1.28456432324041e-04
2.62854166666667e+00 2.78612912878812e-02 1.30193089267789e-04
2.77062500000000e+00 2.74632848542074e-02 1.31759674095899e-04
2.91270833333333e+00 2.70709640541805e-02 1.33169134155462e-04
3.05479166666667e+00 2.66842476683295e-02 1.34433010428071e-04
3.19687500000000e+00 2.63030556359270e-02 1.35561652322486e-04
3.33895833333333e+00 2.59273090388488e-02 1.36564389963188e-04
3.48104166666667e+00 2.55569300886837e-02 1.37449675528597e-04
3.62312500000000e+00 2.51918421070129e-02 1.38225199604312e-04
3.76520833333333e+00 2.48319695098636e-02 1.38897986972093e-04
3.90729166666667e+00 2.44772377949829e-02 1.39474477628050e-04
4.04937500000000e+00 2.41275735233635e-02 1.39960595137844e-04
4.19145833333333e+00 2.37829043042952e-02 1.40361803935314e-04
4.33354166666667e+00 2.34431587828877e-02 1.40683159051684e-04
4.47562500000000e+00 2.31082666226873e-02 1.40929348889650e-04
4.61770833333333e+00 2.27781584913196e-02 1.41104731513918e-04
4.75979166666667e+00 2.24527660483142e-02 1.41213366879624e-04
4.90187500000000e+00 2.21320219286968e-02 1.41259044987944e-04
5.04395833333333e+00 2.18158597292083e-02 1.41245309948924e-04
5.18604166666667e+00 2.15042139964660e-02 1.41175481813124e-04
5.32812500000000e+00 2.11970202114381e-02 1.41052675890113e-04
5.47020833333333e+00 2.08942147762242e-02 1.40879819313326e-04
5.61229166666667e+00 2.05957350025715e-02 1.40659666382615e-04
5.75437500000000e+00 2.03015190971589e-02 1.40394812286821e-04
5.89645833333333e+00 2.00115061489184e-02 1.40087704868292e-04
6.03854166666667e+00 1.97256361179194e-02 1.39740655744708e-04
6.18062500000000e+00 1.94438498213985e-02 1.39355850347254e-04
6.32270833333333e+00 1.91660889216039e-02 1.38935356498327e-04
6.46479166666667e+00 1.88922959150519e-02 1.38481132690206e-04
6.60687500000000e+00 1.86224141192489e-02 1.37995035615340e-04
6.74895833333333e+00 1.83563876610401e-02 1.37478826561980e-04
6.89104166666667e+00 1.80941614662380e-02 1.36934177719040e-04
7.03312500000000e+00 1.78356812469908e-02 1.36362677949566e-04
7.17520833333333e+00 1.75808934906157e-02 1.35765837651875e-04
7.31729166666667e+00 1.73297454495962e-02 1.35145093657703e-04
7.45937500000000e+00 1.70821851295567e-02 1.34501813743759e-04
7.60145833333333e+00 1.68381612785608e-02 1.33837300388399e-04
7.74354166666667e+00 1.65976233774730e-02 1.33152794643878e-04
7.88562500000000e+00 1.63605216285021e-02 1.32449479721169e-04
8.02770833333333e+00 1.61268069449466e-02 1.31728483935384e-04
8.16979166666667e+00 1.58964309419132e-02 1.30990883814396e-04
8.31187500000000e+00 1.56693459253970e-02 1.30237706989622e-04
8.45395833333333e+00 1.54455048824551e-02 1.29469934534698e-04
8.59604166666667e+00 1.52248614722748e-02 1.28688503495270e-04
8.73812500000000e+00 1.50073700157594e-02 1.27894309250808e-04
8.88020833333333e+00 1.47929854861133e-02 1.27088207392171e-04
9.02229166666667e+00 1.45816635002512e-02 1.26271015805416e-04
9.16437500000000e+00 1.43733603088614e-02 1.25443516624023e-04
9.30645833333333e+00 1.41680327873864e-02 1.24606457751044e-04
9.44854166666667e+00 1.39656384277623e-02 1.23760554594152e-04
9.59062500000000e+00 1.37661353289358e-02 1.22906491696196e-04
9.73270833333333e+00 1.35694821882231e-02 1.22044923979801e-04
9.87479166666667e+00 1.33756382933699e-02 1.21176478206081e-04
1.00168750000000e+01 1.31845635134985e-02 1.20301754436937e-04
1.01589583333333e+01 1.29962182902690e-02 1.19421326708475e-04
1.03010416666667e+01 1.28105636325007e-02 1.18535744625393e-04
1.04431250000000e+01 1.26275611046576e-02 1.17645534949822e-04
1.05852083333333e+01 1.24471728185878e-02 1.16751201252778e-04
1.07272916666667e+01 1.22693614308283e-02 1.15853225663984e-04
1.08693750000000e+01 1.20940901296154e-02 1.14952070604177e-04
1.10114583333333e+01 1.19213226275063e-02 1.14048178027015e-04
1.11535416666667e+01 1.17510231586052e-02 1.13141971064586e-04
1.12956250000000e+01 1.15831564663215e-02 1.12233855577714e-04
1.14377083333333e+01 1.14176877962895e-02 1.11324219372644e-04
1.15797916666667e+01 1.12545828935415e-02 1.10413433679737e-04
1.17218750000000e+01 1.10938079909589e-02 1.09501854548465e-04
1.18639583333333e+01 1.09353298024794e-02 1.08589822053203e-04
1.20060416666667e+01 1.07791155202382e-02 1.07677661628584e-04
1.21481250000000e+01 1.06251328036635e-02 1.06765685330769e-04
1.22902083333333e+01 1.04733497729598e-02 1.05854191042951e-04
1.24322916666667e+01 1.03237350062363e-02 1.04943463686544e-04
1.25743750000000e+01 1.01762575292004e-02 1.04033776366372e-04
1.27164583333333e+01 1.00308868089090e-02 1.03125389583715e-04
1.28585416666667e+01 9.88759275089710e-03 1.02218552339116e-04
1.30006250000000e+01 9.74634568943099e-03 1.01313503176098e-04
1.31427083333333e+01 9.60711638151569e-03 1.00410469407471e-04
1.32847916666667e+01 9.46987600403706e-03 9.95096681228994e-05
1.34268750000000e+01 9.33459614453793e-03 9.86113071433358e-05
1.35689583333333e+01 9.20124879547181e-03 9.77155842647043e-05
1.37110416666667e+01 9.06980635136913e-03 9.68226881812873e-05
1.38531250000000e+01 8.94024160010240e-03 9.59327993611088e-05
1.39952083333333e+01 8.81252771737689e-03 9.50460893099357e-05
1.41372916666667e+01 8.68663826392958e-03 9.41627214198241e-05
1.42793750000000e+01 8.56254717725277e-03 9.32828517741375e-05
1.44214583333333e+01 8.44022876631221e-03 9.24066284338741e-05
1.45635416666667e+01 8.31965770878622e-03 9.15341922193585e-05
1.47056250000000e+01 8.20080904321921e-03 9.06656774523212e-05
1.48477083333333e+01 8.08365816395856e-03 8.98012112658597e-05
1.49897916666667e+01 7.96818081843953e-03 8.89409143261219e-05
1.51318750000000e+01 7.85435309974292e-03 8.80849015178371e-05
1.52739583333333e+01 7.74215144174176e-03 8.72332812786763e-05
1.54160416666667e+01 7.63155261643705e-03 8.63861562668662e-05
1.55581250000000e+01 7.52253372689534e-03 8.55436239957081e-05
1.57002083333333e+01 7.41507220259689e-03 8.47057761926898e-05
1.58422916666667e+01 7.30914579682609e-03 8.38726994181847e-05
1.59843750000000e+01 7.20473257996677e-03 8.30444756537873e-05
1.61264583333333e+01 7.10181093504362e-03 8.22211816862277e-05
1.62685416666667e+01 7.00035955517041e-03 8.14028896816654e-05
1.64106250000000e+01 6.90035743718233e-03 8.05896677320721e-05
1.65527083333333e+01 6.80178387736292e-03 7.97815792637537e-05
1.66947916666667e+01 6.70461846895240e-03 7.89786835712169e-05
1.68368750000000e+01 6.60884109609789e-03 7.81810363253130e-05
1.69789583333333e+01 6.51443192975826e-03 7.73886890060001e-05
1.71210416666667e+01 6.42137142527441e-03 7.66016893993009e-05
1.72631250000000e+01 6.32964031661946e-03 7.58200820705072e-05
1.74052083333333e+01 6.23921961247430e-03 7.50439078206773e-05
1.75472916666667e+01 6.15009059386102e-03 7.42732041497967e-05
1.76893750000000e+01 6.06223480867647e-03 7.35080056979772e-05
1.78314583333333e+01 5.97563406793149e-03 7.27483437250926e-05
1.79735416666667e+01 5.89027044344840e-03 7.19942465429279e-05
1.81156250000000e+01 5.80612626266223e-03 7.12457399269853e-05
1.82577083333333e+01 5.72318410501706e-03 7.05028466185887e-05
1.83997916666667e+01 5.64142679972789e-03 6.97655867285169e-05
1.85418750000000e+01 5.56083742083510e-03 6.90339781217655e-05
1.86839583333333e+01 5.48139928375140e-03 6.83080359413998e-05
1.88260416666667e+01 5.40309594308816e-03 6.75877729859019e-05
1.89681250000000e+01 5.32591118794963e-03 6.68732000690063e-05
1.91102083333333e+01 5.24982903862409e-03 6.61643255645649e-05
1.92522916666667e+01 5.17483374447471e-03 6.54611557596282e-05
1.93943750000000e+01 5.10090977946053e-03 6.47636951912437e-05
1.95364583333333e+01 5.02804183896611e-03 6.40719462115732e-05
1.96785416666667e+01 4.95621483775628e-03 6.33859093185362e-05
1.98206250000000e+01 4.88541390571211e-03 6.27055834713007e-05
1.99627083333333e+01 4.81562438479323e-03 6.20309656748808e-05
2.01047916666667e+01 4.74683182705593e-03 6.13620512900025e-05
2.02468750000000e+01 4.67902199059283e-03 6.06988343288504e-05
2.03889583333333e+01 4.61218083662242e-03 6.00413070583742e-05
2.05310416666667e+01 4.54629452756972e-03 5.93894602908913e-05
2.06731250000000e+01 4.48134942319910e-03 5.87432836615047e-05
2.08152083333333e+01 4.41733207782578e-03 5.81027652493720e-05
2.09572916666667e+01 4.35422923845812e-03 5.74678918504069e-05
2.10993750000000e+01 4.29202784111365e-03 5.68386492376773e-05
2.12414583333333e+01 4.23071500814749e-03 5.62150217998876e-05
2.13835416666667e+01 4.17027804645524e-03 5.55969927974343e-05
2.15256250000000e+01 4.11070444396289e-03 5.49845446069738e-05
2.16677083333333e+01 4.05198186706722e-03 5.43776583763922e-05
2.18097916666667e+01 3.99409815889826e-03 5.37763142653673e-05
2.19518750000000e+01 3.93704133597420e-03 5.31804916751872e-05
2.20939583333333e+01 3.88079958574918e-03 5.25901689194991e-05
2.22360416666667e+01 3.82536126493401e-03 5.20053234504358e-05
2.23781250000000e+01 3.77071489630787e-03 5.14259320746862e-05
2.25202083333333e+01 3.71684916636898e-03 5.08519706393379e-05
2.26622916666667e+01 3.66375292371233e-03 5.02834142445336e-05
2.28043750000000e+01 3.61141517599029e-03 4.97202374467144e-05
2.29464583333333e+01 3.55982508766190e-03 4.91624139588907e-05
2.30885416666667e+01 3.50897197842626e-03 4.86099168507236e-05
2.32306250000000e+01 3.45884532032472e-03 4.80627187397855e-05
2.33727083333333e+01 3.40943473558459e-03 4.75207915056169e-05
2.35147916666667e+01 3.36072999510693e-03 4.69841064780625e-05
2.36568750000000e+01 3.31272101570318e-03 4.64526346173290e-05
2.37989583333333e+01 3.26539785802950e-03 4.59263462412074e-05
2.39410416666667e+01 3.21875072512746e-03 4.54052112024189e-05
2.40831250000000e+01 3.17276995978860e-03 4.48891990582004e-05
2.42252083333333e+01 3.12744604257555e-03 4.43782788101028e-05
2.43672916666667e+01 3.08276959041422e-03 4.38724190710458e-05
2.45093750000000e+01 3.03873135408004e-03 4.33715882250955e-05
2.46514583333333e+01 2.99532221630224e-03 4.28757541792668e-05
2.47935416666667e+01 2.95253319040614e-03 4.23848845209474e-05
2.49356250000000e+01 2.91035541791517e-03 4.18989466684853e-05
2.50777083333333e+01 2.86878016673474e-03 4.14179076344442e-05
2.52197916666667e+01 2.82779882984333e-03 4.09417341740048e-05
2.53618750000000e+01 2.78740292300456e-03 4.04703929269332e-05
2.55039583333333e+01 2.74758408302748e-03 4.00038501917670e-05
2.56460416666667e+01 2.70833406650488e-03 3.95420720657551e-05
2.57881250000000e+01 2.66964474763024e-03 3.90850245787466e-05
2.59302083333333e+01 2.63150811653111e-03 3.86326734778015e-05
2.60722916666667e+01 2.59391627805337e-03 3.81849843591860e-05
2.62143750000000e+01 2.55686144967788e-03 3.77419227946834e-05
2.63564583333333e+01 2.52033595992406e-03 3.73034541261495e-05
2.64985416666667e+01 2.48433224717853e-03 3.68695435900489e-05
2.66406250000000e+01 2.44884285770686e-03 3.64401564366476e-05
2.67827083333333e+01 2.41386044412425e-03 3.60152577340544e-05
2.69247916666667e+01 2.37937776426729e-03 3.55948124857529e-05
2.70668750000000e+01 2.34538767929623e-03 3.51787857431078e-05
2.72089583333333e+01 2.31188315222995e-03 3.47671424184480e-05
2.73510416666667e+01 2.27885724685953e-03 3.43598473960219e-05
2.74931250000000e+01 2.24630312593666e-03 3.39568656382132e-05
2.76352083333333e+01 2.21421404977030e-03 3.35581620072509e-05
2.77772916666667e+01 2.18258337518061e-03 3.31637013699782e-05
2.79193750000000e+01 2.15140455376954e-03 3.27734486981570e-05
2.80614583333333e+01 2.12067113057648e-03 3.23873688984021e-05
2.82035416666667e+01 2.09037674307136e-03 3.20054269111298e-05
2.83456250000000e+01 2.06051511950344e-03 3.16275878053038e-05
2.84877083333333e+01 2.03108007761357e-03 3.12538166162065e-05
2.86297916666667e+01 2.00206552366507e-03 3.08840784389167e-05
2.87718750000000e+01 1.97346545086710e-03 3.05183385178209e-05
2.89139583333333e+01 1.94527393814116e-03 3.01565620918622e-05
2.90560416666667e+01 1.91748514918847e-03 2.97987144828624e-05
2.91981250000000e+01 1.89009333098447e-03 2.94447611801051e-05
2.93402083333333e+01 1.86309281259720e-03 2.90946676927146e-05
2.94822916666667e+01 1.83647800429005e-03 2.87483996331244e-05
2.96243750000000e+01 1.81024339608395e-03 2.84059227970225e-05
2.97664583333333e+01 1.78438355662557e-03 2.80672030225222e-05
2.99085416666667e+01 1.75889313232415e-03 2.77322062690611e-05
3.00506250000000e+01 1.73376684597830e-03 2.74008986929754e-05
3.01927083333333e+01 1.70899949569185e-03 2.70732465131492e-05
3.03347916666667e+01 1.68458595404362e-03 2.67492160856062e-05
3.04768750000000e+01 1.66052116677584e-03 2.64287739749636e-05
3.06189583333333e+01 1.63680015175565e-03 2.61118868262585e-05
3.07610416666667e+01 1.61341799817664e-03 2.57985214354803e-05
3.09031250000000e+01 1.59036986530605e-03 2.54886448171409e-05
3.10452083333333e+01 1.56765098149004e-03 2.51822240819891e-05
3.11872916666667e+01 1.54525664338580e-03 2.48792265037157e-05
3.13293750000000e+01 1.52318221476490e-03 2.45796195828609e-05
3.14714583333333e+01 1.50142312556039e-03 2.42833709301445e-05
3.16135416666667e+01 1.47997487112855e-03 2.39904483295591e-05
3.17556250000000e+01 1.45883301110566e-03 2.37008197988244e-05
3.18977083333333e+01 1.43799316849524e-03 2.34144534780698e-05
3.20397916666667e+01 1.41745102895838e-03 2.31313176895234e-05
3.21818750000000e+01 1.39720233972145e-03 2.28513809947039e-05
3.23239583333333e+01 1.37724290870183e-03 2.25746120882079e-05
3.24660416666667e+01 1.35756860382575e-03 2.23009798541869e-05
3.26081250000000e+01 1.33817535198462e-03 2.20304534204644e-05
3.27502083333333e+01 1.31905913819768e-03 2.17630020571852e-05
3.28922916666667e+01 1.30021600495624e-03 2.14985952302622e-05
3.30343750000000e+01 1.28164205122657e-03 2.12372026525887e-05
3.31764583333333e+01 1.26333343164774e-03 2.09787941873281e-05
3.33185416666667e+01 1.24528635590144e-03 2.07233398984969e-05
3.34606250000000e+01 1.22749708775921e-03 2.04708100994360e-05
3.36027083333333e+01 1.20996194431403e-03 2.02211752605242e-05
3.37447916666667e+01 1.19267729537485e-03 1.99744060570557e-05
3.38868750000000e+01 1.17563956255597e-03 1.97304734151245e-05
3.40289583333333e+01 1.15884521854118e-03 1.94893484235556e-05
3.41710416666667e+01 1.14229078650183e-03 1.92510023792291e-05
3.43131250000000e+01 1.12597283922674e-03 1.90154068305188e-05
3.44552083333333e+01 1.10988799841725e-03 1.87825334932458e-05
3.45972916666667e+01 1.09403293412815e-03 1.85523542935895e-05
3.47393750000000e+01 1.07840436393615e-03 1.83248414092168e-05
3.48814583333333e+01 1.06299905226462e-03 1.80999671890700e-05
3.50235416666667e+01 1.04781380984652e-03 1.78777041940002e-05
3.51656250000000e+01 1.03284549292965e-03 1.76580252357132e-05
3.53077083333333e+01 1.01809100262986e-03 1.74409033002138e-05
3.54497916666667e+01 1.00354728441517e-03 1.72263115862853e-05
3.55918750000000e+01 9.89211327346083e-04 1.70142235423739e-05
3.57339583333333e+01 9.75080163456122e-04 1.68046127935180e-05
3.58760416666667e+01 9.61150867256265e-04 1.65974531777947e-05
3.60181250000000e+01 9.47420555008860e-04 1.63927187812517e-05
3.61602083333333e+01 9.33886384134251e-04 1.61903838681649e-05
3.63022916666667e+01 9.20545552734798e-04 1.59904229155593e-05
3.64443750000000e+01 9.07395298900844e-04 1.57928106462958e-05
3.65864583333333e+01 8.94432900142360e-04 1.55975219625036e-05
3.67285416666667e+01 8.81655672931810e-04 1.54045319782796e-05
3.68706250000000e+01 8.69060972040719e-04 1.52138160510332e-05
3.70127083333333e+01 8.56646189995281e-04 1.50253497179416e-05
3.71547916666667e+01 8.44408756637363e-04 1.48391087269309e-05
3.72968750000000e+01 8.32346138490292e-04 1.46550690663706e-05
3.74389583333333e+01 8.20455838237424e-04 1.44732069044164e-05
3.75810416666667e+01 8.08735394300586e-04 1.42934986183611e-05
3.77231250000000e+01 7.97182380233780e-04 1.41159208227718e-05
3.78652083333333e+01 7.85794404223736e-04 1.39404503115840e-05
3.80072916666667e+01 7.74569108685135e-04 1.37670640859134e-05
3.81493750000000e+01 7.63504169680976e-04 1.35957393807174e-05
3.82914583333333e+01 7.52597296444189e-04 1.34264536095147e-05
3.84335416666667e+01 7.41846230988990e-04 1.32591843907399e-05
3.85756250000000e+01 7.31248747556723e-04 1.30939095730102e-05
3.87177083333333e+01 7.20802652157641e-04 1.29306071823490e-05
3.88597916666667e+01 7.10505782197782e-04 1.27692554471631e-05
3.90018750000000e+01 7.00356005949133e-04 1.26098328221862e-05
3.91439583333333e+01 6.90351222110746e-04 1.24523179380935e-05
3.92860416666667e+01 6.80489359450521e-04 1.22966896251741e-05
3.94281250000000e+01 6.70768376298622e-04 1.21429269360253e-05
3.95702083333333e+01 6.61186260127093e-04 1.19910090974446e-05
3.97122916666667e+01 6.51741027205994e-04 1.18409155328690e-05
3.98543750000000e+01 6.42430722119014e-04 1.16926258838850e-05
3.99964583333333e+01 6.33253417360825e-04 1.15461199642967e-05
4.01385416666667e+01 6.24207213006994e-04 1.14013777813948e-05
4.02806250000000e+01 6.15290236250821e-04 1.12583795563476e-05
4.04227083333333e+01 6.06500641017676e-04 1.11171056803433e-05
4.05647916666667e+01 5.97836607648158e-04 1.09775367347530e-05
4.07068750000000e+01 5.89296342455206e-04 1.08396535104609e-05
4.08489583333333e+01 5.80878077354705e-04 1.07034369659863e-05
4.09910416666667e+01 5.72580069561378e-04 1.05688682465997e-05
4.11331250000000e+01 5.64400601165271e-04 1.04359287026477e-05
4.12752083333333e+01 5.56337978777940e-04 1.03045998495642e-05
4.14172916666667e+01 5.48390533240580e-04 1.01748633859950e-05
4.15593750000000e+01 5.40556619219019e-04 1.00467012111720e-05
4.17014583333333e+01 5.32834614864841e-04 9.92009538672643e-06
4.18435416666667e+01 5.25222921535257e-04 9.79502815387425e-06
4.19856250000000e+01 5.17719963405803e-04 9.67148194988921e-06
4.21277083333333e+01 5.10324187145754e-04 9.54943937163714e-06
4.22697916666667e+01 5.03034061649294e-04 9.42888319187076e-06
4.24118750000000e+01 4.95848077665120e-04 9.30979637484995e-06
4.25539583333333e+01 4.88764747485552e-04 9.19216204151790e-06
4.26960416666667e+01 4.81782604688550e-04 9.07596348495209e-06
4.28381250000000e+01 4.74900203783488e-04 8.96118418517779e-06
4.29802083333333e+01 4.68116119913370e-04 8.84780777591001e-06
4.31222916666667e+01 4.61428948607280e-04 8.73581805920638e-06
4.32643750000000e+01 4.54837305441596e-04 8.62519901951544e-06
4.34064583333333e+01 4.48339825754774e-04 8.51593479191267e-06
4.35485416666667e+01 4.41935164409808e-04 8.40800967599814e-06
4.36906250000000e+01 4.35621995470210e-04 8.30140814921888e-06
4.38327083333333e+01 4.29399011926828e-04 8.19611483653186e-06
4.39747916666667e+01 4.23264925469921e-04 8.09211452358485e-06
4.41168750000000e+01 4.17218466179255e-04 7.98939216935223e-06
4.42589583333333e+01 4.11258382262448e-04 7.88793287715964e-06
4.44010416666667e+01 4.05383439836275e-04 7.78772190718555e-06
4.45431250000000e+01 3.99592422630263e-04 7.68874468844608e-06
4.46852083333333e+01 3.93884131736072e-04 7.59098679111916e-06
4.48272916666667e+01 3.88257385397670e-04 7.49443393840335e-06
