Energy (eV)          EEDF (eV^-(3/2))     First Anisotropy
1.48000000000000e-03 1.22390382898101e+02 1.25702577262804e-01
4.44000000000000e-03 1.14236784037697e+02 2.01333388541548e-01
7.40000000000000e-03 1.06626374705767e+02 2.49755797736606e-01
1.03600000000000e-02 9.95229678309482e+01 2.77930952606636e-01
1.33200000000000e-02 9.28927871102440e+01 2.95056096508697e-01
1.62800000000000e-02 8.67043064045942e+01 3.04937282433382e-01
1.92400000000000e-02 8.09280998338431e+01 3.09691849366052e-01
2.22000000000000e-02 7.55367018583225e+01 3.10673066688123e-01
2.51600000000000e-02 7.05044766817447e+01 3.08817635178252e-01
2.81200000000000e-02 6.58074963544228e+01 3.04807663767041e-01
3.10800000000000e-02 6.14234269972062e+01 2.99157204960084e-01
3.40400000000000e-02 5.73314226051323e+01 2.92263098694391e-01
3.70000000000000e-02 5.35120259258374e+01 2.84437022287008e-01
3.99600000000000e-02 4.99470759414078e+01 2.75926816491044e-01
4.29200000000000e-02 4.66196215137546e+01 2.66931296010621e-01
4.58800000000000e-02 4.35138407828979e+01 2.57610896170438e-01
4.88400000000000e-02 4.06149659349067e+01 2.48095545631425e-01
5.18000000000000e-02 3.79092129817683e+01 2.38490625651540e-01
5.47600000000000e-02 3.53837162192950e+01 2.28881569937289e-01
5.77200000000000e-02 3.30264670514191e+01 2.19337473997299e-01
6.06800000000000e-02 3.08262568899894e+01 2.09913966888996e-01
6.36400000000000e-02 2.87726238585603e+01 2.00655523185485e-01
6.66000000000000e-02 2.68558030467538e+01 1.91597343043605e-01
6.95600000000000e-02 2.50666800786558e+01 1.82766894185024e-01
7.25200000000000e-02 2.33967477744678e+01 1.74185185841585e-01
7.54800000000000e-02 2.18380656993416e+01 1.65867827811131e-01
7.84400000000000e-02 2.03832224070555e+01 1.57825915523929e-01
8.14000000000000e-02 1.90253001990015e+01 1.50066773002458e-01
8.43600000000000e-02 1.77578422309142e+01 1.42594578857705e-01
8.73200000000000e-02 1.65748218109372e+01 1.35410895358917e-01
9.02800000000000e-02 1.54706137430402e+01 1.28515116696514e-01
9.32400000000000e-02 1.44399675795254e+01 1.21904849518168e-01
9.62000000000000e-02 1.34779826554424e+01 1.15576236434321e-01
9.91600000000000e-02 1.25800847861999e+01 1.09524231301890e-01
1.02120000000000e-01 1.17420045175732e+01 1.03742833586897e-01
1.05080000000000e-01 1.09597568246881e+01 9.82252878919897e-02
1.08040000000000e-01 1.02296221634500e+01 9.29642537488072e-02
1.11000000000000e-01 9.54812878431962e+00 8.79519499691333e-02
1.13960000000000e-01 8.91203622433757e+00 8.31802771857214e-02
1.16920000000000e-01 8.31831989890411e+00 7.86409216648577e-02
1.19880000000000e-01 7.76415672004827e+00 7.43254430160091e-02
1.22840000000000e-01 7.24691167280215e+00 7.02253480418798e-02
1.25800000000000e-01 6.76412528585199e+00 6.63321526511517e-02
1.28760000000000e-01 6.31350193688932e+00 6.26374334852086e-02
1.31720000000000e-01 5.89289893705518e+00 5.91328706805324e-02
1.34680000000000e-01 5.50031634257418e+00 5.58102829931796e-02
1.37640000000000e-01 5.13388744513358e+00 5.26616563451003e-02
1.40600000000000e-01 4.79186989578949e+00 4.96791667094254e-02
1.43560000000000e-01 4.47263742019497e+00 4.68551981294088e-02
1.46520000000000e-01 4.17467208575631e+00 4.41823565603393e-02
1.49480000000000e-01 3.89655708394828e+00 4.16534801328411e-02
1.52440000000000e-01 3.63696999346881e+00 3.92616463574111e-02
1.55400000000000e-01 3.39467649219947e+00 3.70001767219831e-02
1.58360000000000e-01 3.16852448807274e+00 3.48626390752587e-02
1.61320000000000e-01 2.95743864093860e+00 3.28428481372360e-02
1.64280000000000e-01 2.76041524938215e+00 3.09348644337112e-02
1.67240000000000e-01 2.57651747817942e+00 2.91329919126282e-02
1.70200000000000e-01 2.40487090369824e+00 2.74317744662152e-02
1.73160000000000e-01 2.24465935606266e+00 2.58259915532270e-02
1.76120000000000e-01 2.09512103831077e+00 2.43106530897306e-02
1.79080000000000e-01 1.95554490409273e+00 2.28809937542459e-02
1.82040000000000e-01 1.82526727668505e+00 2.15324668332695e-02
1.85000000000000e-01 1.70366869324483e+00 2.02607377158894e-02
1.87960000000000e-01 1.59017095929857e+00 1.90616771310538e-02
1.90920000000000e-01 1.48423439945970e+00 1.79313542077949e-02
1.93880000000000e-01 1.38535529130228e+00 1.68660294271062e-02
1.96840000000000e-01 1.29306347018898e+00 1.58621475240219e-02
1.99800000000000e-01 1.20692009366451e+00 1.49163303895708e-02
2.02760000000000e-01 1.12651555478423e+00 1.40253700145159e-02
2.05720000000000e-01 1.05146753445599e+00 1.31862215100162e-02
2.08680000000000e-01 9.81419183534233e-01 1.23959962344353e-02
2.11640000000000e-01 9.16037426022229e-01 1.16519550503648e-02
2.14600000000000e-01 8.55011375314288e-01 1.09515017314454e-02
2.17560000000000e-01 7.98050855947332e-01 1.02921765346713e-02
2.20520000000000e-01 7.44885023832765e-01 9.67164995047663e-03
2.23480000000000e-01 6.95261078407962e-01 9.08771663998040e-03
2.26440000000000e-01 6.48943060583708e-01 8.53828956623306e-03
2.29400000000000e-01 6.05710730771905e-01 8.02139432413475e-03
2.32360000000000e-01 5.65358521658636e-01 7.53516367182660e-03
2.35320000000000e-01 5.27694560743059e-01 7.07783226476025e-03
2.38280000000000e-01 4.92539757994390e-01 6.64773159229315e-03
2.41240000000000e-01 4.59726954288798e-01 6.24328511550960e-03
2.44200000000000e-01 4.29100126577116e-01 5.86300360400167e-03
2.47160000000000e-01 4.00513646003949e-01 5.50548066853994e-03
2.50120000000000e-01 3.73831585450599e-01 5.16938848589999e-03
2.53080000000000e-01 3.48927073209214e-01 4.85347371156917e-03
2.56040000000000e-01 3.25681689714891e-01 4.55655357562323e-03
2.59000000000000e-01 3.03984904467269e-01 4.27751215672111e-03
2.61960000000000e-01 2.83733550464165e-01 4.01529682890550e-03
2.64920000000000e-01 2.64831333648244e-01 3.76891487570495e-03
2.67880000000000e-01 2.47188375034152e-01 3.53743026590351e-03
2.70840000000000e-01 2.30720783338961e-01 3.31996058526440e-03
2.73800000000000e-01 2.15350256083803e-01 3.11567411846033e-03
2.76760000000000e-01 2.01003707269956e-01 2.92378707546647e-03
2.79720000000000e-01 1.87612919859003e-01 2.74356095670759e-03
2.82680000000000e-01 1.75114221404621e-01 2.57430005131404e-03
2.85640000000000e-01 1.63448181293656e-01 2.41534906292656e-03
2.88600000000000e-01 1.52559328156879e-01 2.26609085759416e-03
2.91560000000000e-01 1.42395886105719e-01 2.12594432842883e-03
2.94520000000000e-01 1.32909528540806e-01 1.99436237181281e-03
2.97480000000000e-01 1.24055148361689e-01 1.87082997009591e-03
3.00440000000000e-01 1.15790643485097e-01 1.75486237586942e-03
3.03400000000000e-01 1.08076716651877e-01 1.64600339305797e-03
3.06360000000000e-01 1.00876688570726e-01 1.54382375022932e-03
3.09320000000000e-01 9.41563235102088e-02 1.44791956168276e-03
3.12280000000000e-01 8.78836665097645e-02 1.35791087203919e-03
3.15240000000000e-01 8.20288914356569e-02 1.27344028021769e-03
3.18200000000000e-01 7.65641591593721e-02 1.19417163884486e-03
3.21160000000000e-01 7.14634851841176e-02 1.11978882530254e-03
3.24120000000000e-01 6.67026160899914e-02 1.04999458077697e-03
3.27080000000000e-01 6.22589142103246e-02 9.84509413826606e-04
3.30040000000000e-01 5.81112499908406e-02 9.23070565137240e-04
3.33000000000000e-01 5.42399015198047e-02 8.65431030280150e-04
3.35960000000000e-01 5.06264607514348e-02 8.11358637432964e-04
3.38920000000000e-01 4.72537459766722e-02 7.60635177161989e-04
3.41880000000000e-01 4.41057201251143e-02 7.13055581499991e-04
3.44840000000000e-01 4.11674145096403e-02 6.68427149684033e-04
3.47800000000000e-01 3.84248576511401e-02 6.26568818044104e-04
3.50760000000000e-01 3.58650088449113e-02 5.87310471654858e-04
3.53720000000000e-01 3.34756961528367e-02 5.50492295479857e-04
3.56680000000000e-01 3.12455585264980e-02 5.15964162850182e-04
3.59640000000000e-01 2.91639917860254e-02 4.83585059227337e-04
3.62600000000000e-01 2.72210981978143e-02 4.53222539303906e-04
3.65560000000000e-01 2.54076394113549e-02 4.24752215594690e-04
3.68520000000000e-01 2.37149925313913e-02 3.98057276765995e-04
3.71480000000000e-01 2.21351091165361e-02 3.73028034041538e-04
3.74440000000000e-01 2.06604769093814e-02 3.49561494110168e-04
3.77400000000000e-01 1.92840841161337e-02 3.27560957043374e-04
3.80360000000000e-01 1.79993860659267e-02 3.06935637809536e-04
3.83320000000000e-01 1.68002740912764e-02 2.87600310047101e-04
3.86280000000000e-01 1.56810464817086e-02 2.69474970830557e-04
3.89240000000000e-01 1.46363813724436e-02 2.52484525231308e-04
3.92200000000000e-01 1.36613114392269e-02 2.36558489540425e-04
3.95160000000000e-01 1.27512002789794e-02 2.21630712081995e-04
3.98120000000000e-01 1.19017203639598e-02 2.07639110604383e-04
4.01080000000000e-01 1.11088324646120e-02 1.94525425292423e-04
4.04040000000000e-01 1.03687664432538e-02 1.82234986496422e-04
4.07000000000000e-01 9.67800332728324e-03 1.70716496324000e-04
4.09960000000000e-01 9.03325857665984e-03 1.59921823288376e-04
4.12920000000000e-01 8.43146646610058e-03 1.49805809251807e-04
4.15880000000000e-01 7.86976550772721e-03 1.40326087945613e-04
4.18840000000000e-01 7.34548484485121e-03 1.31442914388722e-04
4.21800000000000e-01 6.85613155219936e-03 1.23119004565005e-04
4.24760000000000e-01 6.39937878219335e-03 1.15319384755962e-04
4.27720000000000e-01 5.97305470091943e-03 1.08011249959667e-04
4.30680000000000e-01 5.57513216117948e-03 1.01163830859376e-04
4.33640000000000e-01 5.20371906351926e-03 9.47482688359145e-05
4.36600000000000e-01 4.85704935940120e-03 8.87374985470498e-05
4.39560000000000e-01 4.53347465374218e-03 8.31061376244684e-05
4.42520000000000e-01 4.23145636688703e-03 7.78303830649681e-05
4.45480000000000e-01 3.94955841874816e-03 7.28879139169640e-05
4.48440000000000e-01 3.68644040032491e-03 6.82577998865711e-05
4.51400000000000e-01 3.44085120013369e-03 6.39204155093885e-05
4.54360000000000e-01 3.21162305524264e-03 5.98573595547447e-05
4.57320000000000e-01 2.99766599862422e-03 5.60513793486462e-05
4.60280000000000e-01 2.79796267642276e-03 5.24862997200502e-05
4.63240000000000e-01 2.61156351049375e-03 4.91469562924238e-05
4.66200000000000e-01 2.43758218321277e-03 4.60191328589111e-05
4.69160000000000e-01 2.27519142308470e-03 4.30895025948507e-05
4.72120000000000e-01 2.12361907111393e-03 4.03455728759332e-05
4.75080000000000e-01 1.98214440923150e-03 3.77756334839979e-05
4.78040000000000e-01 1.85009473332089e-03 3.53687079953921e-05
4.81000000000000e-01 1.72684215454754e-03 3.31145081589929e-05
4.83960000000000e-01 1.61180061378251e-03 3.10033910824703e-05
4.86920000000000e-01 1.50442309492403e-03 2.90263190561762e-05
4.89880000000000e-01 1.40419902386647e-03 2.71748218542314e-05
4.92840000000000e-01 1.31065184074904e-03 2.54409613619705e-05
4.95800000000000e-01 1.22333673394022e-03 2.38172983879364e-05
4.98760000000000e-01 1.14183852498330e-03 2.22968615271178e-05
5.01720000000000e-01 1.06576969444599e-03 2.08731179501313e-05
5.04680000000000e-01 9.94768539287221e-04 1.95399460005800e-05
5.07640000000000e-01 9.28497452979298e-04 1.82916094899153e-05
5.10600000000000e-01 8.66641320207781e-04 1.71227335858013e-05
5.13560000000000e-01 8.08906018515737e-04 1.60282821962596e-05
5.16520000000000e-01 7.55017019767881e-04 1.50035367577820e-05
5.19480000000000e-01 7.04718084784633e-04 1.40440763411531e-05
5.22440000000000e-01 6.57770044939123e-04 1.31457589939559e-05
5.25400000000000e-01 6.13949664923726e-04 1.23047042436469e-05
5.28360000000000e-01 5.73048581278646e-04 1.15172766897136e-05
5.31320000000000e-01 5.34872311635296e-04 1.07800706177717e-05
5.34280000000000e-01 4.99239329963500e-04 1.00898955725510e-05
5.37240000000000e-01 4.65980203425354e-04 9.44376283055769e-06
5.40200000000000e-01 4.34936786731544e-04 8.83887271681730e-06
5.43160000000000e-01 4.05961470169332e-04 8.27260271349572e-06
5.46120000000000e-01 3.78916477726607e-04 7.74249631138828e-06
5.49080000000000e-01 3.53673211974649e-04 7.24625255826592e-06
5.52040000000000e-01 3.30111642594533e-04 6.78171626088593e-06
5.55000000000000e-01 3.08119735639667e-04 6.34686880012379e-06
5.57960000000000e-01 2.87592920820632e-04 5.93981952116996e-06
5.60920000000000e-01 2.68433594279296e-04 5.55879766307369e-06
5.63880000000000e-01 2.50550654487920e-04 5.20214479411201e-06
5.66840000000000e-01 2.33859069066478e-04 4.86830772152442e-06
5.69800000000000e-01 2.18279470458444e-04 4.55583184609190e-06
5.72760000000000e-01 2.03737778542489e-04 4.26335493385807e-06
5.75720000000000e-01 1.90164848385643e-04 3.98960127899928e-06
5.78680000000000e-01 1.77496141462997e-04 3.73337623345570e-06
5.81640000000000e-01 1.65671418780627e-04 3.49356108044154e-06
5.84600000000000e-01 1.54634454442538e-04 3.26910823036814e-06
5.87560000000000e-01 1.44332768299666e-04 3.05903671904149e-06
5.90520000000000e-01 1.34717376409707e-04 2.86242798924337e-06
5.93480000000000e-01 1.25742558121202e-04 2.67842193797526e-06
5.96440000000000e-01 1.17365638674393e-04 2.50621321274395e-06
5.99400000000000e-01 1.09546786285124e-04 2.34504774129865e-06
6.02360000000000e-01 1.02248822746934e-04 2.19421948019783e-06
6.05320000000000e-01 9.54370466507568e-05 2.05306736849252e-06
6.08280000000000e-01 8.90790683816638e-05 1.92097247366583e-06
6.11240000000000e-01 8.31446561080504e-05 1.79735531776809e-06
6.14200000000000e-01 7.76055920309665e-05 1.68167337243871e-06
6.17160000000000e-01 7.24355382100579e-05 1.57341871220962e-06
6.20120000000000e-01 6.76099113281310e-05 1.47211581614690e-06
6.23080000000000e-01 6.31057657988523e-05 1.37731950850714e-06
6.26040000000000e-01 5.89016846617670e-05 1.28861302966702e-06
6.29000000000000e-01 5.49776777458477e-05 1.20560622913065e-06
6.31960000000000e-01 5.13150866173477e-05 1.12793387293103e-06
6.34920000000000e-01 4.78964958599907e-05 1.05525405822280e-06
6.37880000000000e-01 4.47056502656388e-05 9.87246728313557e-07
6.40840000000000e-01 4.17273775416855e-05 9.23612281804095e-07
6.43800000000000e-01 3.89475161676520e-05 8.64070269903918e-07
6.46760000000000e-01 3.63528480579477e-05 8.08358176360504e-07
6.49720000000000e-01 3.39310357106118e-05 7.56230274789180e-07
6.52680000000000e-01 3.16705635431804e-05 7.07456558517548e-07
6.55640000000000e-01 2.95606831367348e-05 6.61821738365019e-07
6.58600000000000e-01 2.75913621277698e-05 6.19124304065446e-07
6.61560000000000e-01 2.57532365048659e-05 5.79175645310519e-07
6.64520000000000e-01 2.40375660833373e-05 5.41799228644294e-07
6.67480000000000e-01 2.24361929461423e-05 5.06829826676255e-07
6.70440000000000e-01 2.09415026534433e-05 4.74112796302540e-07
6.73400000000000e-01 1.95463880363703e-05 4.43503402833209e-07
6.76360000000000e-01 1.82442154028303e-05 4.14866187118806e-07
6.79320000000000e-01 1.70287929946712e-05 3.88074372952503e-07
6.82280000000000e-01 1.58943415462185e-05 3.63009312195751e-07
6.85240000000000e-01 1.48354668041888e-05 3.39559965236264e-07
6.88200000000000e-01 1.38471338783172e-05 3.17622414537920e-07
6.91160000000000e-01 1.29246433007354e-05 2.97099409183569e-07
6.94120000000000e-01 1.20636086802639e-05 2.77899938444169e-07
6.97080000000000e-01 1.12599358453674e-05 2.59938832531885e-07
7.00040000000000e-01 1.05098033765977e-05 2.43136388811144e-07
7.03000000000000e-01 9.80964443595720e-06 2.27418021850719e-07
7.05960000000000e-01 9.15612980678410e-06 2.12713935802118e-07
7.08920000000000e-01 8.54615206351257e-06 1.98958817685382e-07
7.11880000000000e-01 7.97681079603794e-06 1.86091550253106e-07
7.14840000000000e-01 7.44539881842858e-06 1.74054943187669e-07
7.17800000000000e-01 6.94938929640799e-06 1.62795481465454e-07
7.20760000000000e-01 6.48642373239889e-06 1.52263089795719e-07
7.23720000000000e-01 6.05430075099905e-06 1.42410912110960e-07
7.26680000000000e-01 5.65096563156406e-06 1.33195105150474e-07
7.29640000000000e-01 5.27450053812552e-06 1.24574645239594e-07
7.32600000000000e-01 4.92311540018805e-06 1.16511147423945e-07
7.35560000000000e-01 4.59513940104406e-06 1.08968696171471e-07
7.38520000000000e-01 4.28901303313367e-06 1.01913686904882e-07
7.41480000000000e-01 4.00328068267326e-06 9.53146776740245e-08
7.44440000000000e-01 3.73658370829329e-06 8.91422503214932e-08
7.47400000000000e-01 3.48765398077445e-06 8.33688805359202e-08
7.50360000000000e-01 3.25530785316402e-06 7.79688162258258e-08
7.53320000000000e-01 3.03844053260071e-06 7.29179636829805e-08
7.56280000000000e-01 2.83602082708635e-06 6.81937810379915e-08
7.59240000000000e-01 2.64708624222546e-06 6.37751785424525e-08
7.62200000000000e-01 2.47073840461820e-06 5.96424252416266e-08
7.65160000000000e-01 2.30613879014499e-06 5.57770616293782e-08
7.68120000000000e-01 2.15250473683119e-06 5.21618179030627e-08
7.71080000000000e-01 2.00910572333307e-06 4.87805374604257e-08
7.74040000000000e-01 1.87525989534966e-06 4.56181053033630e-08
7.77000000000000e-01 1.75033082344360e-06 4.26603810347479e-08
7.79960000000000e-01 1.63372447685471e-06 3.98941361545273e-08
7.82920000000000e-01 1.52488639891692e-06 3.73069953800215e-08
7.85880000000000e-01 1.42329907064777e-06 3.48873817328998e-08
7.88840000000000e-01 1.32847944997453e-06 3.26244651517299e-08
7.91800000000000e-01 1.23997667489618e-06 3.05081144043835e-08
7.94760000000000e-01 1.15736991965969e-06 2.85288520889815e-08
7.97720000000000e-01 1.08026639375715e-06 2.66778125255554e-08
8.00680000000000e-01 1.00829947422879e-06 2.49467023532287e-08
8.03640000000000e-01 9.41126962391289e-07 2.33277636595508e-08
8.06600000000000e-01 8.78429456702141e-07 2.18137394796916e-08
8.09560000000000e-01 8.19908834023180e-07 2.03978415135747e-08
8.12520000000000e-01 7.65286832061687e-07 1.90737199187360e-08
8.15480000000000e-01 7.14303726248735e-07 1.78354350457856e-08
8.18440000000000e-01 6.66717094763365e-07 1.66774309918653e-08
8.21400000000000e-01 6.22300665830370e-07 1.55945108554598e-08
8.24360000000000e-01 5.80843241810635e-07 1.45818135833866e-08
8.27320000000000e-01 5.42147694968163e-07 1.36347923077705e-08
8.30280000000000e-01 5.06030030138694e-07 1.27491940773516e-08
8.33240000000000e-01 4.72318509842977e-07 1.19210408935996e-08
8.36200000000000e-01 4.40852837684646e-07 1.11466119678377e-08
8.39160000000000e-01 4.11483396149808e-07 1.04224271209481e-08
8.42120000000000e-01 3.84070535184120e-07 9.74523125225269e-09
8.45080000000000e-01 3.58483908164578e-07 9.11197980886834e-09
8.48040000000000e-01 3.34601852108605e-07 8.51982519123718e-09
8.51000000000000e-01 3.12310809173362e-07 7.96610403465446e-09
8.53960000000000e-01 2.91504786694550e-07 7.44832531047475e-09
8.56920000000000e-01 2.72084853197206e-07 6.96415919428850e-09
8.59880000000000e-01 2.53958667982070e-07 6.51142665174143e-09
8.62840000000000e-01 2.37040042050711e-07 6.08808969583454e-09
8.65800000000000e-01 2.21248528281656e-07 5.69224227250320e-09
8.68760000000000e-01 2.06509038908821e-07 5.32210173404740e-09
8.71720000000000e-01 1.92751488483374e-07 4.97600086257985e-09
8.74680000000000e-01 1.79910460621340e-07 4.65238040808757e-09
8.77640000000000e-01 1.67924896952350e-07 4.34978210797621e-09
8.80600000000000e-01 1.56737806790500e-07 4.06684215709379e-09
8.83560000000000e-01 1.46295996146819e-07 3.80228509922311e-09
8.86520000000000e-01 1.36549814794827e-07 3.55491811289492e-09
8.89480000000000e-01 1.27452920186476e-07 3.32362566611906e-09
8.92440000000000e-01 1.18962057095926e-07 3.10736451626372e-09
8.95400000000000e-01 1.11036851943357e-07 2.90515903284061e-09
8.98360000000000e-01 1.03639620820858e-07 2.71609682238394e-09
9.01320000000000e-01 9.67351903075446e-08 2.53932463595003e-09
9.04280000000000e-01 9.02907302219069e-08 2.37404454101604e-09
9.07240000000000e-01 8.42755975161332e-08 2.21951034072937e-09
9.10200000000000e-01 7.86611905701262e-08 2.07502422455549e-09
9.13160000000000e-01 7.34208131923977e-08 1.93993363539903e-09
9.16120000000000e-01 6.85295476811687e-08 1.81362833923325e-09
9.19080000000000e-01 6.39641363420890e-08 1.69553768417224e-09
9.22040000000000e-01 5.97028708991996e-08 1.58512803676119e-09
9.25000000000000e-01 5.57254892732923e-08 1.48190038404756e-09
9.27960000000000e-01 5.20130792368554e-08 1.38538809073229e-09
9.30920000000000e-01 4.85479884874875e-08 1.29515480138970e-09
9.33880000000000e-01 4.53137407121853e-08 1.21079247838975e-09
