Energy (eV)          EEDF (eV^-(3/2))     First Anisotropy
2.98529411764706e-02 7.87712341875422e-02 5.05534328996759e-05
8.95588235294118e-02 7.79751723804876e-02 8.33364326967692e-05
1.49264705882353e-01 7.71871555689848e-02 1.09638907637576e-04
2.08970588235294e-01 7.64071024558967e-02 1.29394571055310e-04
2.68676470588235e-01 7.56349325576389e-02 1.45684635083711e-04
3.28382352941176e-01 7.48705662037437e-02 1.59679697834495e-04
3.88088235294118e-01 7.41139245343624e-02 1.71988326355398e-04
4.47794117647059e-01 7.33649294834744e-02 1.82979660641349e-04
5.07500000000000e-01 7.26235037727896e-02 1.92899599043214e-04
5.67205882352941e-01 7.18895709081591e-02 2.01922694427851e-04
6.26911764705882e-01 7.11630551655534e-02 2.10178716691434e-04
6.86617647058824e-01 7.04438815888753e-02 2.17767603588902e-04
7.46323529411765e-01 6.97319759781009e-02 2.24768490740891e-04
8.06029411764706e-01 6.90272648822272e-02 2.31245470505750e-04
8.65735294117647e-01 6.83296755944656e-02 2.37251429570136e-04
9.25441176470588e-01 6.76391361417729e-02 2.42830698932328e-04
9.85147058823529e-01 6.69555752777997e-02 2.48020938709348e-04
1.04485294117647e+00 6.62789224776929e-02 2.52854513983064e-04
1.10455882352941e+00 6.56091079297164e-02 2.57359521239080e-04
1.16426470588235e+00 6.49460625263510e-02 2.61560568660134e-04
1.22397058823529e+00 6.42897178531336e-02 2.65479377197091e-04
1.28367647058824e+00 6.36400061981462e-02 2.69135254719306e-04
1.34338235294118e+00 6.29968605279208e-02 2.72545472981917e-04
1.40308823529412e+00 6.23602144865019e-02 2.75725568727605e-04
1.46279411764706e+00 6.17300023842420e-02 2.78689588632604e-04
1.52250000000000e+00 6.11061592042794e-02 2.81450292052201e-04
1.58220588235294e+00 6.04886205821761e-02 2.84019319083355e-04
1.64191176470588e+00 5.98773228039800e-02 2.86407329015539e-04
1.70161764705882e+00 5.92722027960986e-02 2.88624116940083e-04
1.76132352941176e+00 5.86731981297112e-02 2.90678714042416e-04
1.82102941176471e+00 5.80802470031116e-02 2.92579473209882e-04
1.88073529411765e+00 5.74932882391536e-02 2.94334140752244e-04
1.94044117647059e+00 5.69122612759743e-02 2.95949918370516e-04
2.00014705882353e+00 5.63371061699261e-02 2.97433518256495e-04
2.05985294117647e+00 5.57677635799828e-02 2.98791211168917e-04
2.11955882352941e+00 5.52041747647972e-02 3.00028866616875e-04
2.17926470588235e+00 5.46462815766967e-02 3.01151989949837e-04
2.23897058823529e+00 5.40940264531963e-02 3.02165753428155e-04
2.29867647058824e+00 5.35473524185646e-02 3.03075025299209e-04
2.35838235294118e+00 5.30062030702793e-02 3.03884395705692e-04
2.41808823529412e+00 5.24705225758380e-02 3.04598198440697e-04
2.47779411764706e+00 5.19402556648547e-02 3.05220530506168e-04
2.53750000000000e+00 5.14153476298671e-02 3.05755270788550e-04
2.59720588235294e+00 5.08957443140512e-02 3.06206096921784e-04
2.65691176470588e+00 5.03813921078954e-02 3.06576499265146e-04
2.71661764705882e+00 4.98722379418041e-02 3.06869793638752e-04
2.77632352941176e+00 4.93682292863225e-02 3.07089133917872e-04
2.83602941176471e+00 4.88693141409071e-02 3.07237523531550e-04
2.89573529411765e+00 4.83754410305282e-02 3.07317824797812e-04
2.95544117647059e+00 4.78865589987201e-02 3.07332767531341e-04
3.01514705882353e+00 4.74026176073539e-02 3.07284957889362e-04
3.07485294117647e+00 4.69235669263114e-02 3.07176886524440e-04
3.13455882352941e+00 4.64493575300592e-02 3.07010934780541e-04
3.19426470588235e+00 4.59799404925708e-02 3.06789381640796e-04
3.25397058823529e+00 4.55152673808474e-02 3.06514408971901e-04
3.31367647058824e+00 4.50552902542432e-02 3.06188107483908e-04
3.37338235294118e+00 4.45999616551242e-02 3.05812482279227e-04
3.43308823529412e+00 4.41492346054693e-02 3.05389457044049e-04
3.49279411764706e+00 4.37030626007485e-02 3.04920878006953e-04
3.55250000000000e+00 4.32613996089921e-02 3.04408518431645e-04
3.61220588235294e+00 4.28242000621117e-02 3.03854082829224e-04
3.67191176470588e+00 4.23914188525309e-02 3.03259209999109e-04
3.73161764705882e+00 4.19630113273911e-02 3.02625475930902e-04
3.79132352941176e+00 4.15389332874198e-02 3.01954397276355e-04
3.85102941176471e+00 4.11191409788399e-02 3.01247434624628e-04
3.91073529411765e+00 4.07035910900480e-02 3.00505994744893e-04
3.97044117647059e+00 4.02922407461195e-02 2.99731432749008e-04
4.03014705882353e+00 3.98850475075221e-02 2.98925054833492e-04
4.08985294117647e+00 3.94819693625521e-02 2.98088120880258e-04
4.14955882352941e+00 3.90829647240717e-02 2.97221845959186e-04
4.20926470588235e+00 3.86879924252284e-02 2.96327402657614e-04
4.26897058823529e+00 3.82970117142925e-02 2.95405922418734e-04
4.32867647058824e+00 3.79099822532170e-02 2.94458497633702e-04
4.38838235294118e+00 3.75268641106719e-02 2.93486183638545e-04
4.44808823529412e+00 3.71476177588757e-02 2.92489999899564e-04
4.50779411764706e+00 3.67722040686880e-02 2.91470931185679e-04
4.56750000000000e+00 3.64005843080869e-02 2.90429929287389e-04
4.62720588235294e+00 3.60327201356229e-02 2.89367914664506e-04
4.68691176470588e+00 3.56685735973256e-02 2.88285777350738e-04
4.74661764705882e+00 3.53081071220337e-02 2.87184377859817e-04
4.80632352941176e+00 3.49512835198122e-02 2.86064548618286e-04
4.86602941176471e+00 3.45980659757904e-02 2.84927095344340e-04
4.92573529411765e+00 3.42484180471470e-02 2.83772797741715e-04
4.98544117647059e+00 3.39023036586635e-02 2.82602410204810e-04
5.04514705882353e+00 3.35596871010983e-02 2.81416663028296e-04
5.10485294117647e+00 3.32205330253778e-02 2.80216263575261e-04
5.16455882352941e+00 3.28848064396633e-02 2.79001896680285e-04
5.22426470588235e+00 3.25524727057470e-02 2.77774225725610e-04
5.28397058823529e+00 3.22234975348566e-02 2.76533893018428e-04
5.34367647058824e+00 3.18978469859941e-02 2.75281520782845e-04
5.40338235294118e+00 3.15754874605334e-02 2.74017712121909e-04
5.46308823529412e+00 3.12563856993975e-02 2.72743051404928e-04
5.52279411764706e+00 3.09405087790581e-02 2.71458104676620e-04
5.58250000000000e+00 3.06278241098628e-02 2.70163420514549e-04
5.64220588235294e+00 3.03182994309264e-02 2.68859530863047e-04
5.70191176470588e+00 3.00119028073926e-02 2.67546951330904e-04
5.76161764705882e+00 2.97086026266163e-02 2.66226181512921e-04
5.82132352941176e+00 2.94083675964895e-02 2.64897705737543e-04
5.88102941176471e+00 2.91111667406053e-02 2.63561993795878e-04
5.94073529411765e+00 2.88169693956037e-02 2.62219501169146e-04
6.00044117647059e+00 2.85257452075270e-02 2.60870669281125e-04
6.06014705882353e+00 2.82374641301522e-02 2.59515926155116e-04
6.11985294117647e+00 2.79520964204084e-02 2.58155687056056e-04
6.17955882352941e+00 2.76696126358073e-02 2.56790354561895e-04
6.23926470588235e+00 2.73899836314074e-02 2.55420319164936e-04
6.29897058823529e+00 2.71131805563705e-02 2.54045959348678e-04
6.35867647058824e+00 2.68391748523067e-02 2.52667642150607e-04
6.41838235294118e+00 2.65679382489903e-02 2.51285723713871e-04
6.47808823529412e+00 2.62994427618949e-02 2.49900549407424e-04
6.53779411764706e+00 2.60336606889026e-02 2.48512453971346e-04
6.59750000000000e+00 2.57705646086695e-02 2.47121762018536e-04
6.65720588235294e+00 2.55101273765584e-02 2.45728788527512e-04
6.71691176470588e+00 2.52523221222556e-02 2.44333838929344e-04
6.77661764705882e+00 2.49971222466255e-02 2.42937209219363e-04
6.83632352941177e+00 2.47445014200998e-02 2.41539186406886e-04
6.89602941176471e+00 2.44944335788142e-02 2.40140048957646e-04
6.95573529411765e+00 2.42468929223049e-02 2.38740066854148e-04
7.01544117647059e+00 2.40018539105015e-02 2.37339501680240e-04
7.07514705882353e+00 2.37592912621434e-02 2.35938607026123e-04
7.13485294117647e+00 2.35191799511078e-02 2.34537628887458e-04
7.19455882352941e+00 2.32814952041846e-02 2.33136805625897e-04
7.25426470588235e+00 2.30462124985229e-02 2.31736368346520e-04
7.31397058823529e+00 2.28133075587838e-02 2.30336540870742e-04
7.37367647058824e+00 2.25827563555935e-02 2.28937540092770e-04
7.43338235294118e+00 2.23545351020956e-02 2.27539576331624e-04
7.49308823529412e+00 2.21286202518243e-02 2.26142853350314e-04
7.55279411764706e+00 2.19049884959804e-02 2.24747568397322e-04
7.61250000000000e+00 2.16836167619177e-02 2.23353912530552e-04
7.67220588235294e+00 2.14644822098612e-02 2.21962070937706e-04
7.73191176470588e+00 2.12475622308551e-02 2.20572222942348e-04
7.79161764705882e+00 2.10328344441560e-02 2.19184542031378e-04
7.85132352941176e+00 2.08202766957537e-02 2.17799196150480e-04
7.91102941176471e+00 2.06098670552464e-02 2.16416347996645e-04
7.97073529411765e+00 2.04015838138610e-02 2.15036155013698e-04
8.03044117647059e+00 2.01954054819583e-02 2.13658769408352e-04
8.09014705882353e+00 1.99913107875889e-02 2.12284338420459e-04
8.14985294117647e+00 1.97892786735175e-02 2.10913004590946e-04
8.20955882352941e+00 1.95892882953124e-02 2.09544905686989e-04
8.26926470588235e+00 1.93913190191964e-02 2.08180174956888e-04
8.32897058823530e+00 1.91953504196839e-02 2.06818941068019e-04
8.38867647058824e+00 1.90013622781804e-02 2.05461328348825e-04
8.44838235294118e+00 1.88093345801824e-02 2.04107457029123e-04
8.50808823529412e+00 1.86192475134528e-02 2.02757443219667e-04
8.56779411764706e+00 1.84310814657595e-02 2.01411398910216e-04
8.62750000000000e+00 1.82448170235115e-02 2.00069432192208e-04
8.68720588235294e+00 1.80604349690891e-02 1.98731647480097e-04
8.74691176470588e+00 1.78779162790858e-02 1.97398145485842e-04
8.80661764705882e+00 1.76972421221424e-02 1.96069023211000e-04
8.86632352941177e+00 1.75183938576203e-02 1.94744374152146e-04
8.92602941176471e+00 1.73413530330558e-02 1.93424288505161e-04
8.98573529411765e+00 1.71661013824653e-02 1.92108853135706e-04
9.04544117647059e+00 1.69926208242711e-02 1.90798151566544e-04
9.10514705882353e+00 1.68208934600125e-02 1.89492264167356e-04
9.16485294117647e+00 1.66509015719165e-02 1.88191268343678e-04
9.22455882352941e+00 1.64826276212655e-02 1.86895238455195e-04
9.28426470588235e+00 1.63160542465884e-02 1.85604245996152e-04
9.34397058823529e+00 1.61511642616943e-02 1.84318359525010e-04
9.40367647058824e+00 1.59879406544292e-02 1.83037644836343e-04
9.46338235294118e+00 1.58263665843852e-02 1.81762165132196e-04
9.52308823529412e+00 1.56664253813436e-02 1.80491980987174e-04
9.58279411764706e+00 1.55081005433913e-02 1.79227150328509e-04
9.64250000000000e+00 1.53513757357144e-02 1.77967728595563e-04
9.70220588235294e+00 1.51962347884113e-02 1.76713768898933e-04
9.76191176470588e+00 1.50426616949933e-02 1.75465321983898e-04
9.82161764705882e+00 1.48906406105800e-02 1.74222436208140e-04
9.88132352941176e+00 1.47401558507295e-02 1.72985157689942e-04
9.94102941176471e+00 1.45911918893498e-02 1.71753530456132e-04
1.00007352941176e+01 1.44437333572560e-02 1.70527596239629e-04
1.00604411764706e+01 1.42977650410146e-02 1.69307395034805e-04
1.01201470588235e+01 1.41532718797886e-02 1.68092964735915e-04
1.01798529411765e+01 1.40102389656750e-02 1.66884340936935e-04
1.02395588235294e+01 1.38686515414274e-02 1.65681557534240e-04
1.02992647058824e+01 1.37284949989382e-02 1.64484646174276e-04
1.03589705882353e+01 1.35897548790601e-02 1.63293637473750e-04
1.04186764705882e+01 1.34524168660887e-02 1.62108560282983e-04
1.04783823529412e+01 1.33164667903441e-02 1.60929440933750e-04
1.05380882352941e+01 1.31818906253444e-02 1.59756304487467e-04
1.05977941176471e+01 1.30486744863583e-02 1.58589174374502e-04
1.06575000000000e+01 1.29168046289748e-02 1.57428072079128e-04
1.07172058823529e+01 1.27862674488945e-02 1.56273018264877e-04
1.07769117647059e+01 1.26570494768641e-02 1.55124032090018e-04
1.08366176470588e+01 1.25291373809784e-02 1.53981130508705e-04
1.08963235294118e+01 1.24025179640632e-02 1.52844329422622e-04
1.09560294117647e+01 1.22771781623153e-02 1.51713643344798e-04
1.10157352941176e+01 1.21531050439548e-02 1.50589085105473e-04
1.10754411764706e+01 1.20302858089927e-02 1.49470666890874e-04
1.11351470588235e+01 1.19087077845756e-02 1.48358399607041e-04
1.11948529411765e+01 1.17883584270403e-02 1.47252292230378e-04
1.12545588235294e+01 1.16692253194880e-02 1.46152352871093e-04
1.13142647058824e+01 1.15512961705065e-02 1.45058588148917e-04
1.13739705882353e+01 1.14345588139202e-02 1.43971004165505e-04
1.14336764705882e+01 1.13190012044509e-02 1.42889605906249e-04
1.14933823529412e+01 1.12046114195843e-02 1.41814396629695e-04
1.15530882352941e+01 1.10913776572938e-02 1.40745378863076e-04
1.16127941176471e+01 1.09792882348242e-02 1.39682554106502e-04
1.16725000000000e+01 1.08683315874862e-02 1.38625922573424e-04
1.17322058823529e+01 1.07584962683942e-02 1.37575484089388e-04
1.17919117647059e+01 1.06497709444704e-02 1.36531237535912e-04
1.18516176470588e+01 1.05421443981128e-02 1.35493180282863e-04
1.19113235294118e+01 1.04356055250832e-02 1.34461309108871e-04
1.19710294117647e+01 1.03301433333635e-02 1.33435619925711e-04
1.20307352941176e+01 1.02257469420207e-02 1.32416107536176e-04
1.20904411764706e+01 1.01224055809344e-02 1.31402766465274e-04
1.21501470588235e+01 1.00201085871158e-02 1.30395590443127e-04
1.22098529411765e+01 9.91884540619742e-03 1.29394571877181e-04
1.22695588235294e+01 9.81860559047322e-03 1.28399702703701e-04
1.23292647058824e+01 9.71937879782257e-03 1.27410973880303e-04
1.23889705882353e+01 9.62115479142958e-03 1.26428376165192e-04
1.24486764705882e+01 9.52392343634591e-03 1.25451899630666e-04
1.25083823529412e+01 9.42767470084518e-03 1.24481533166652e-04
1.25680882352941e+01 9.33239865458116e-03 1.23517265278981e-04
1.26277941176471e+01 9.23808546756331e-03 1.22559083846961e-04
1.26875000000000e+01 9.14472540914345e-03 1.21606975909909e-04
1.27472058823529e+01 9.05230884773153e-03 1.20660928388592e-04
1.28069117647059e+01 8.96082624762387e-03 1.19720927632689e-04
1.28666176470588e+01 8.87026817021465e-03 1.18786958958952e-04
1.29263235294118e+01 8.78062527228394e-03 1.17859007390467e-04
1.29860294117647e+01 8.69188830503456e-03 1.16937057430738e-04
1.30457352941176e+01 8.60404811313784e-03 1.16021092864567e-04
1.31054411764706e+01 8.51709563444816e-03 1.15111097426317e-04
1.31651470588235e+01 8.43102189707415e-03 1.14207054378865e-04
1.32248529411765e+01 8.34581802046267e-03 1.13308946083912e-04
1.32845588235294e+01 8.26147521380656e-03 1.12416754686908e-04
1.33442647058824e+01 8.17798477513923e-03 1.11530461703774e-04
1.34039705882353e+01 8.09533809104832e-03 1.10650048648141e-04
1.34636764705882e+01 8.01352663393583e-03 1.09775496635010e-04
1.35233823529412e+01 7.93254196300408e-03 1.08906785976314e-04
1.35830882352941e+01 7.85237572275777e-03 1.08043896823809e-04
1.36427941176471e+01 7.77301964214192e-03 1.07186808970308e-04
1.37025000000000e+01 7.69446553368921e-03 1.06335501674167e-04
1.37622058823529e+01 7.61670529323600e-03 1.05489954240784e-04
1.38219117647059e+01 7.53973089738928e-03 1.04650145653673e-04
1.38816176470588e+01 7.46353440440917e-03 1.03816054198051e-04
1.39413235294118e+01 7.38810795281450e-03 1.02987658056951e-04
1.40010294117647e+01 7.31344376057236e-03 1.02164935125947e-04
1.40607352941176e+01 7.23953412429517e-03 1.01347862849421e-04
1.41204411764706e+01 7.16637141896055e-03 1.00536418759888e-04
1.41801470588235e+01 7.09394809556802e-03 9.97305801345310e-05
1.42398529411765e+01 7.02225668192897e-03 9.89303236447747e-05
1.42995588235294e+01 6.95128978136806e-03 9.81356259092600e-05
1.43592647058824e+01 6.88104007196124e-03 9.73464631566694e-05
1.44189705882353e+01 6.81150030625857e-03 9.65628117324497e-05
1.44786764705882e+01 6.74266330908883e-03 9.57846477753316e-05
1.45383823529412e+01 6.67452197827818e-03 9.50119468873107e-05
1.45980882352941e+01 6.60706928342711e-03 9.42446846531841e-05
1.46577941176471e+01 6.54029826518509e-03 9.34828364774675e-05
1.47175000000000e+01 6.47420203453305e-03 9.27263774400415e-05
1.47772058823529e+01 6.40877377251198e-03 9.19752827664366e-05
1.48369117647059e+01 6.34400672819003e-03 9.12295275265681e-05
1.48966176470588e+01 6.27989421930572e-03 9.04890863273717e-05
1.49563235294118e+01 6.21642963112815e-03 8.97539337950858e-05
1.50160294117647e+01 6.15360641577494e-03 8.90240444231873e-05
1.50757352941176e+01 6.09141809153674e-03 8.82993924376855e-05
1.51354411764706e+01 6.02985824261229e-03 8.75799522337554e-05
1.51951470588235e+01 5.96892051722503e-03 8.68656980951068e-05
1.52548529411765e+01 5.90859862819875e-03 8.61566039076749e-05
1.53145588235294e+01 5.84888635189497e-03 8.54526436074571e-05
1.53742647058824e+01 5.78977752757165e-03 8.47537909049701e-05
1.54339705882353e+01 5.73126605712346e-03 8.40600196958225e-05
1.54936764705882e+01 5.67334590331495e-03 8.33713037962677e-05
1.55533823529412e+01 5.61601109030417e-03 8.26876166734383e-05
1.56130882352941e+01 5.55925570264084e-03 8.20089318664475e-05
1.56727941176471e+01 5.50307388465604e-03 8.13352228524518e-05
1.57325000000000e+01 5.44745983985842e-03 8.06664629278386e-05
1.57922058823529e+01 5.39240783068207e-03 8.00026255896501e-05
1.58519117647059e+01 5.33791217684813e-03 7.93436842891618e-05
1.59116176470588e+01 5.28396725583320e-03 7.86896121804889e-05
1.59713235294118e+01 5.23056750193486e-03 7.80403825118506e-05
1.60310294117647e+01 5.17770740569774e-03 7.73959685006339e-05
1.60907352941176e+01 5.12538151334504e-03 7.67563432224960e-05
1.61504411764706e+01 5.07358442653437e-03 7.61214799658096e-05
1.62101470588235e+01 5.02231080083774e-03 7.54913520019933e-05
1.62698529411765e+01 4.97155534616057e-03 7.48659323512047e-05
1.63295588235294e+01 4.92131282586964e-03 7.42451941459836e-05
1.63892647058824e+01 4.87157805625340e-03 7.36291104057050e-05
1.64489705882353e+01 4.82234590628388e-03 7.30176543701160e-05
1.65086764705882e+01 4.77361129618934e-03 7.24107992827944e-05
1.65683823529412e+01 4.72536919783504e-03 7.18085181702747e-05
1.66280882352941e+01 4.67761463390045e-03 7.12107841842298e-05
1.66877941176471e+01 4.63034267736569e-03 7.06175704913550e-05
1.67475000000000e+01 4.58354845100349e-03 7.00288501754991e-05
1.68072058823529e+01 4.53722712714942e-03 6.94445965477676e-05
1.68669117647059e+01 4.49137392637664e-03 6.88647829446448e-05
1.69266176470588e+01 4.44598411783633e-03 6.82893825220540e-05
1.69863235294118e+01 4.40105301848937e-03 6.77183685735505e-05
1.70460294117647e+01 4.35657599262352e-03 6.71517144275511e-05
1.71057352941176e+01 4.31254845137507e-03 6.65893933559641e-05
1.71654411764706e+01 4.26896585250745e-03 6.60313788625856e-05
1.72251470588235e+01 4.22582369918045e-03 6.54776444948450e-05
1.72848529411765e+01 4.18311754025424e-03 6.49281636517583e-05
1.73445588235294e+01 4.14084296957193e-03 6.43829098798929e-05
1.74042647058824e+01 4.09899562550547e-03 6.38418566884613e-05
1.74639705882353e+01 4.05757119074077e-03 6.33049778208587e-05
1.75236764705882e+01 4.01656539112070e-03 6.27722470771026e-05
1.75833823529412e+01 3.97597399592113e-03 6.22436381327214e-05
1.76430882352941e+01 3.93579281717352e-03 6.17191248174172e-05
1.77027941176471e+01 3.89601770923286e-03 6.11986810244159e-05
1.77625000000000e+01 3.85664456835010e-03 6.06822806297884e-05
1.78222058823529e+01 3.81766933246574e-03 6.01698977451035e-05
1.78819117647059e+01 3.77908798013452e-03 5.96615065518000e-05
1.79416176470588e+01 3.74089653077171e-03 5.91570811322447e-05
1.80013235294118e+01 3.70309104402021e-03 5.86565957290291e-05
1.80610294117647e+01 3.66566761934421e-03 5.81600246603473e-05
1.81207352941176e+01 3.62862239562672e-03 5.76673422446406e-05
1.81804411764706e+01 3.59195155097147e-03 5.71785230357246e-05
1.82401470588235e+01 3.55565130170316e-03 5.66935416682669e-05
1.82998529411765e+01 3.51971790258710e-03 5.62123727001698e-05
1.83595588235294e+01 3.48414764623773e-03 5.57349908539075e-05
1.84192647058824e+01 3.44893686273650e-03 5.52613708647317e-05
1.84789705882353e+01 3.41408191944016e-03 5.47914877021734e-05
1.85386764705882e+01 3.37957922004026e-03 5.43253164242411e-05
1.85983823529412e+01 3.34542520476214e-03 5.38628320287102e-05
1.86580882352941e+01 3.31161634980616e-03 5.34040096804737e-05
1.87177941176471e+01 3.27814916698409e-03 5.29488246368638e-05
1.87775000000000e+01 3.24502020335942e-03 5.24972521810758e-05
1.88372058823529e+01 3.21222604106379e-03 5.20492678283882e-05
