Energy (eV)          EEDF (eV^-(3/2))     First Anisotropy
2.45454545454545e-02 1.10821001988326e-01 7.22142339600719e-05
7.36363636363636e-02 1.09664893192140e-01 1.19024361018212e-04
1.22727272727273e-01 1.08520845174357e-01 1.56538982462983e-04
1.71818181818182e-01 1.07388732116332e-01 1.84684614057867e-04
2.20909090909091e-01 1.06268429508024e-01 2.07866864552320e-04
2.70000000000000e-01 1.05159814140222e-01 2.27760323576343e-04
3.19090909090909e-01 1.04062764085368e-01 2.45235983059356e-04
3.68181818181818e-01 1.02977158695933e-01 2.60822404953772e-04
4.17272727272727e-01 1.01902878578495e-01 2.74871844043061e-04
4.66363636363636e-01 1.00839805585236e-01 2.87634461532363e-04
5.15454545454545e-01 9.97878228009206e-02 2.99296318503681e-04
5.64545454545454e-01 9.87468145300216e-02 3.10000764516818e-04
6.13636363636364e-01 9.77166662839677e-02 3.19861357619746e-04
6.62727272727273e-01 9.66972647685932e-02 3.28970106580187e-04
7.11818181818182e-01 9.56884978716469e-02 3.37402963465260e-04
7.60909090909091e-01 9.46902546504608e-02 3.45223617094082e-04
8.10000000000000e-01 9.37024253197475e-02 3.52486192549493e-04
8.59090909090909e-01 9.27249012383697e-02 3.59237221098252e-04
9.08181818181818e-01 9.17575749009562e-02 3.65517110169395e-04
9.57272727272727e-01 9.08003399224069e-02 3.71361261002299e-04
1.00636363636364e+00 8.98530910274564e-02 3.76800932088832e-04
1.05545454545455e+00 8.89157240399707e-02 3.81863917404897e-04
1.10454545454545e+00 8.79881358679823e-02 3.86575084887811e-04
1.15363636363636e+00 8.70702244967947e-02 3.90956809723303e-04
1.20272727272727e+00 8.61618889759976e-02 3.95029327268208e-04
1.25181818181818e+00 8.52630294083068e-02 3.98811022276819e-04
1.30090909090909e+00 8.43735469385801e-02 4.02318668629109e-04
1.35000000000000e+00 8.34933437429463e-02 4.05567628817804e-04
1.39909090909091e+00 8.26223230243371e-02 4.08572024598832e-04
1.44818181818182e+00 8.17603889826557e-02 4.11344878228442e-04
1.49727272727273e+00 8.09074468237655e-02 4.13898232658642e-04
1.54636363636364e+00 8.00634027424378e-02 4.16243258175739e-04
1.59545454545455e+00 7.92281639120357e-02 4.18390341652104e-04
1.64454545454545e+00 7.84016384743061e-02 4.20349164584385e-04
1.69363636363636e+00 7.75837355292581e-02 4.22128771064989e-04
1.74272727272727e+00 7.67743651252081e-02 4.23737627265097e-04
1.79181818181818e+00 7.59734382488650e-02 4.25183673711640e-04
1.84090909090909e+00 7.51808668155407e-02 4.26474371403410e-04
1.89000000000000e+00 7.43965636594633e-02 4.27616742109940e-04
1.93909090909091e+00 7.36204425282102e-02 4.28617406326549e-04
1.98818181818182e+00 7.28524180609941e-02 4.29482614535627e-04
2.03727272727273e+00 7.20924057916815e-02 4.30218275044771e-04
2.08636363636364e+00 7.13403221353060e-02 4.30829981683088e-04
2.13545454545455e+00 7.05960843788759e-02 4.31323036618119e-04
2.18454545454545e+00 6.98596106722779e-02 4.31702471466483e-04
2.23363636363636e+00 6.91308200192654e-02 4.31973066390466e-04
2.28272727272727e+00 6.84096322685719e-02 4.32139367422701e-04
2.33181818181818e+00 6.76959681050848e-02 4.32205702221149e-04
2.38090909090909e+00 6.69897490411231e-02 4.32176194422230e-04
2.43000000000000e+00 6.62908974078049e-02 4.32054776321810e-04
2.47909090909091e+00 6.55993363492979e-02 4.31845202172385e-04
2.52818181818182e+00 6.49149898058858e-02 4.31551058312229e-04
2.57727272727273e+00 6.42377825141936e-02 4.31175772389031e-04
2.62636363636364e+00 6.35676399960094e-02 4.30722624004218e-04
2.67545454545455e+00 6.29044885500931e-02 4.30194752842425e-04
2.72454545454545e+00 6.22482552440715e-02 4.29595166597700e-04
2.77363636363636e+00 6.15988679064109e-02 4.28926748303895e-04
2.82272727272727e+00 6.09562551184926e-02 4.28192263129181e-04
2.87181818181818e+00 6.03203462067517e-02 4.27394364683574e-04
2.92090909090909e+00 5.96910712349044e-02 4.26535600878275e-04
2.97000000000000e+00 5.90683609962571e-02 4.25618419034053e-04
3.01909090909091e+00 5.84521470081331e-02 4.24645172011783e-04
3.06818181818182e+00 5.78423614981553e-02 4.23618122252855e-04
3.11727272727273e+00 5.72389374030514e-02 4.22539445497668e-04
3.16636363636364e+00 5.66418083591677e-02 4.21411236011572e-04
3.21545454545455e+00 5.60509086951696e-02 4.20235510105872e-04
3.26454545454545e+00 5.54661734248199e-02 4.19014209780487e-04
3.31363636363636e+00 5.48875382398280e-02 4.17749206141686e-04
3.36272727272727e+00 5.43149395027848e-02 4.16442302615215e-04
3.41181818181818e+00 5.37483142401599e-02 4.15095237970225e-04
3.46090909090909e+00 5.31876001353763e-02 4.13709689164878e-04
3.51000000000000e+00 5.26327355219566e-02 4.12287273745664e-04
3.55909090909091e+00 5.20836593782798e-02 4.10829553237150e-04
3.60818181818182e+00 5.15403113162042e-02 4.09338034956195e-04
3.65727272727273e+00 5.10026315791435e-02 4.07814173685947e-04
3.70636363636364e+00 5.04705610339050e-02 4.06259374697670e-04
3.75545454545455e+00 4.99440411641859e-02 4.04674995477045e-04
3.80454545454545e+00 4.94230140641380e-02 4.03062347642263e-04
3.85363636363636e+00 4.89074224319967e-02 4.01422698761610e-04
3.90272727272727e+00 4.83972095637844e-02 3.99757274079306e-04
3.95181818181818e+00 4.78923193470711e-02 3.98067258155573e-04
4.00090909090909e+00 4.73926962548041e-02 3.96353796423963e-04
4.05000000000000e+00 4.68982853392004e-02 3.94617996437674e-04
4.09909090909091e+00 4.64090322268932e-02 3.92860929991837e-04
4.14818181818182e+00 4.59248831093476e-02 3.91083633988734e-04
4.19727272727273e+00 4.54457847405852e-02 3.89287111231871e-04
4.24636363636364e+00 4.49716844301007e-02 3.87472332379908e-04
4.29545454545454e+00 4.45025300370678e-02 3.85640236864656e-04
4.34454545454545e+00 4.40382699646043e-02 3.83791734003285e-04
4.39363636363636e+00 4.35788531540959e-02 3.81927704059759e-04
4.44272727272727e+00 4.31242290795847e-02 3.80048999260111e-04
4.49181818181818e+00 4.26743477422104e-02 3.78156444764052e-04
4.54090909090909e+00 4.22291596647114e-02 3.76250839593665e-04
4.59000000000000e+00 4.17886158859834e-02 3.74332957325773e-04
4.63909090909091e+00 4.13526679566305e-02 3.72403547539962e-04
4.68818181818182e+00 4.09212679308022e-02 3.70463336235267e-04
4.73727272727273e+00 4.04943683637834e-02 3.68513026206157e-04
4.78636363636364e+00 4.00719223058125e-02 3.66553298407280e-04
4.83545454545455e+00 3.96538832969178e-02 3.64584812467722e-04
4.88454545454545e+00 3.92402053618081e-02 3.62608207383077e-04
4.93363636363636e+00 3.88308430048151e-02 3.60624102179435e-04
4.98272727272727e+00 3.84257512048925e-02 3.58633096551957e-04
5.03181818181818e+00 3.80248854106628e-02 3.56635771479231e-04
5.08090909090909e+00 3.76282015355186e-02 3.54632689813264e-04
5.13000000000000e+00 3.72356559527729e-02 3.52624396681375e-04
5.17909090909091e+00 3.68472054916083e-02 3.50611420535189e-04
5.22818181818182e+00 3.64628074300683e-02 3.48594273340032e-04
5.27727272727273e+00 3.60824194926414e-02 3.46573450738929e-04
5.32636363636364e+00 3.57059998448434e-02 3.44549433058280e-04
5.37545454545455e+00 3.53335070886163e-02 3.42522685604746e-04
5.42454545454545e+00 3.49649002577756e-02 3.40493659119256e-04
5.47363636363636e+00 3.46001388135041e-02 3.38462790214305e-04
5.52272727272727e+00 3.42391826398951e-02 3.36430501796260e-04
5.57181818181818e+00 3.38819920395397e-02 3.34397203473326e-04
5.62090909090909e+00 3.35285277291608e-02 3.32363291948769e-04
5.67000000000000e+00 3.31787508352931e-02 3.30329151259990e-04
5.71909090909091e+00 3.28326228906093e-02 3.28295153571378e-04
5.76818181818182e+00 3.24901058278673e-02 3.26261659243433e-04
5.81727272727273e+00 3.21511619775637e-02 3.24229016884814e-04
5.86636363636364e+00 3.18157540631711e-02 3.22197564122104e-04
5.91545454545455e+00 3.14838451970390e-02 3.20167627772849e-04
5.96454545454545e+00 3.11553988763369e-02 3.18139524155580e-04
6.01363636363636e+00 3.08303789790389e-02 3.16113559389350e-04
6.06272727272727e+00 3.05087497599527e-02 3.14090029683878e-04
6.11181818181818e+00 3.01904758467876e-02 3.12069221620733e-04
6.16090909090909e+00 2.98755222362640e-02 3.10051412425106e-04
6.21000000000000e+00 2.95638542902643e-02 3.08036870109209e-04
6.25909090909091e+00 2.92554377325129e-02 3.06025854089955e-04
6.30818181818182e+00 2.89502386433238e-02 3.04018615193095e-04
6.35727272727273e+00 2.86482234573669e-02 3.02015395645191e-04
6.40636363636364e+00 2.83493589594729e-02 3.00016429679016e-04
6.45545454545455e+00 2.80536122809800e-02 2.98021943633178e-04
6.50454545454545e+00 2.77609508961197e-02 2.96032156170421e-04
6.55363636363636e+00 2.74713426184388e-02 2.94047278489040e-04
6.60272727272727e+00 2.71847555972606e-02 2.92067514528175e-04
6.65181818181818e+00 2.69011583141815e-02 2.90093061167198e-04
6.70090909090909e+00 2.66205195796048e-02 2.88124108418901e-04
6.75000000000000e+00 2.63428085293103e-02 2.86160839514527e-04
6.79909090909091e+00 2.60679946214616e-02 2.84203431395774e-04
6.84818181818182e+00 2.57960476320317e-02 2.82252054683955e-04
6.89727272727273e+00 2.55269376527053e-02 2.80306873640040e-04
6.94636363636364e+00 2.52606350871773e-02 2.78368046650400e-04
6.99545454545455e+00 2.49971106478977e-02 2.76435726281606e-04
7.04454545454545e+00 2.47363353528502e-02 2.74510059437827e-04
7.09363636363636e+00 2.44782805223652e-02 2.72591187513499e-04
7.14272727272727e+00 2.42229177759659e-02 2.70679246541914e-04
7.19181818181818e+00 2.39702190292466e-02 2.68774367339782e-04
7.24090909090909e+00 2.37201564907843e-02 2.66876675647478e-04
7.29000000000000e+00 2.34727026590822e-02 2.64986292177632e-04
7.33909090909091e+00 2.32278303198763e-02 2.63103333013487e-04
7.38818181818182e+00 2.29855125421397e-02 2.61227909559901e-04
7.43727272727273e+00 2.27457226761327e-02 2.59360128487411e-04
7.48636363636364e+00 2.25084343501312e-02 2.57500092127783e-04
7.53545454545455e+00 2.22736214675269e-02 2.55647898500876e-04
7.58454545454545e+00 2.20412582039568e-02 2.53803641430233e-04
7.63363636363636e+00 2.18113190044629e-02 2.51967410655326e-04
7.68272727272727e+00 2.15837785806826e-02 2.50139291940950e-04
7.73181818181818e+00 2.13586119080668e-02 2.48319367183836e-04
7.78090909090909e+00 2.11357942231279e-02 2.46507714516204e-04
7.83000000000000e+00 2.09153010207164e-02 2.44704408331048e-04
7.87909090909091e+00 2.06971080516008e-02 2.42909519608785e-04
7.92818181818182e+00 2.04811913189686e-02 2.41123115859853e-04
7.97727272727273e+00 2.02675270766265e-02 2.39345261061811e-04
8.02636363636364e+00 2.00560918261068e-02 2.37576015985166e-04
8.07545454545454e+00 1.98468623140828e-02 2.35815438202655e-04
8.12454545454545e+00 1.96398155298115e-02 2.34063582175309e-04
8.17363636363636e+00 1.94349287026028e-02 2.32320499336151e-04
8.22272727272727e+00 1.92321792993156e-02 2.30586238171782e-04
8.27181818181818e+00 1.90315450218795e-02 2.28860844302020e-04
8.32090909090909e+00 1.88330038048421e-02 2.27144360557302e-04
8.37000000000000e+00 1.86365338129429e-02 2.25436826989047e-04
8.41909090909091e+00 1.84421134389406e-02 2.23738281140114e-04
8.46818181818182e+00 1.82497213005435e-02 2.22048757984584e-04
8.51727272727273e+00 1.80593362387573e-02 2.20368289863183e-04
8.56636363636364e+00 1.78709373153228e-02 2.18696906754039e-04
8.61545454545455e+00 1.76845038104136e-02 2.17034636270983e-04
8.66454545454545e+00 1.75000152203566e-02 2.15381503728289e-04
8.71363636363636e+00 1.73174512553777e-02 2.13737532203666e-04
8.76272727272727e+00 1.71367918373699e-02 2.12102742599760e-04
8.81181818181818e+00 1.69580170976858e-02 2.10477153704197e-04
8.86090909090909e+00 1.67811073749515e-02 2.08860782247983e-04
8.91000000000000e+00 1.66060432129054e-02 2.07253642906268e-04
8.95909090909091e+00 1.64328053584492e-02 2.05655748523991e-04
9.00818181818182e+00 1.62613747589507e-02 2.04067110056160e-04
9.05727272727273e+00 1.60917325607338e-02 2.02487736504605e-04
9.10636363636364e+00 1.59238601068078e-02 2.00917635144565e-04
9.15545454545454e+00 1.57577389348159e-02 1.99356811516159e-04
9.20454545454545e+00 1.55933507750046e-02 1.97805269473476e-04
9.25363636363636e+00 1.54306775482143e-02 1.96263011232339e-04
9.30272727272727e+00 1.52697013638912e-02 1.94730037416967e-04
9.35181818181818e+00 1.51104045181197e-02 1.93206347105575e-04
9.40090909090909e+00 1.49527694916752e-02 1.91691937874729e-04
9.45000000000000e+00 1.47967789480976e-02 1.90186805794002e-04
9.49909090909091e+00 1.46424157319456e-02 1.88690945615358e-04
9.54818181818182e+00 1.44896628664223e-02 1.87204350715831e-04
9.59727272727273e+00 1.43385035520003e-02 1.85727013037281e-04
9.64636363636364e+00 1.41889211644082e-02 1.84258923277068e-04
9.69545454545455e+00 1.40408992528029e-02 1.82800070875481e-04
9.74454545454545e+00 1.38944215379599e-02 1.81350444053122e-04
9.79363636363636e+00 1.37494719104831e-02 1.79910029847287e-04
9.84272727272727e+00 1.36060344290331e-02 1.78478814147552e-04
9.89181818181818e+00 1.34640933185740e-02 1.77056781730554e-04
9.94090909090909e+00 1.33236329686386e-02 1.75643916293793e-04
9.99000000000000e+00 1.31846379316115e-02 1.74240200658002e-04
1.00390909090909e+01 1.30470929204846e-02 1.72845616245780e-04
1.00881818181818e+01 1.29109828089608e-02 1.71460143541059e-04
1.01372727272727e+01 1.27762926278515e-02 1.70083762468632e-04
1.01863636363636e+01 1.26430075641300e-02 1.68716451810343e-04
1.02354545454545e+01 1.25111129593023e-02 1.67358189455597e-04
1.02845454545455e+01 1.23805943077953e-02 1.66008952430177e-04
1.03336363636364e+01 1.22514372553604e-02 1.64668716923544e-04
1.03827272727273e+01 1.21236275974965e-02 1.63337458316042e-04
1.04318181818182e+01 1.19971512778871e-02 1.62015151205940e-04
1.04809090909091e+01 1.18719943868543e-02 1.60701769435038e-04
1.05300000000000e+01 1.17481431598290e-02 1.59397286479804e-04
1.05790909090909e+01 1.16255839746889e-02 1.58101674369660e-04
1.06281818181818e+01 1.15043033537355e-02 1.56814904452569e-04
1.06772727272727e+01 1.13842879587057e-02 1.55536948173775e-04
1.07263636363636e+01 1.12655245904844e-02 1.54267775959610e-04
1.07754545454545e+01 1.11480001876526e-02 1.53007357622623e-04
1.08245454545455e+01 1.10317018250509e-02 1.51755662383605e-04
1.08736363636364e+01 1.09166167123574e-02 1.50512658892431e-04
1.09227272727273e+01 1.08027321926822e-02 1.49278315248833e-04
1.09718181818182e+01 1.06900357411752e-02 1.48052599023106e-04
1.10209090909091e+01 1.05785149636481e-02 1.46835477275657e-04
1.10700000000000e+01 1.04681575952117e-02 1.45626916894286e-04
1.11190909090909e+01 1.03589514979532e-02 1.44426883651512e-04
1.11681818181818e+01 1.02508846625473e-02 1.43235342867306e-04
1.12172727272727e+01 1.01439452039637e-02 1.42052260083431e-04
1.12663636363636e+01 1.00381213611598e-02 1.40877600091040e-04
1.13154545454545e+01 9.93340149578643e-03 1.39711327280328e-04
1.13645454545455e+01 9.82977409090847e-03 1.38553405657378e-04
1.14136363636364e+01 9.72722774973744e-03 1.37403798860023e-04
1.14627272727273e+01 9.62575119437926e-03 1.36262470173675e-04
1.15118181818182e+01 9.52533326459336e-03 1.35129382547157e-04
1.15609090909091e+01 9.42596291656525e-03 1.34004498607576e-04
1.16100000000000e+01 9.32762922169199e-03 1.32887780951723e-04
1.16590909090909e+01 9.23032136455306e-03 1.31779191323788e-04
1.17081818181818e+01 9.13402864422374e-03 1.30678691189981e-04
1.17572727272727e+01 9.03874047057377e-03 1.29586242323333e-04
1.18063636363636e+01 8.94444636395150e-03 1.28501805955723e-04
1.18554545454545e+01 8.85113595403136e-03 1.27425343080246e-04
1.19045454545455e+01 8.75879897867329e-03 1.26356814463978e-04
1.19536363636364e+01 8.66742528279374e-03 1.25296180660031e-04
1.20027272727273e+01 8.57700481724970e-03 1.24243402019580e-04
1.20518181818182e+01 8.48752763773304e-03 1.23198438703872e-04
1.21009090909091e+01 8.39898390367686e-03 1.22161250695505e-04
1.21500000000000e+01 8.31136387717326e-03 1.21131798050581e-04
1.21990909090909e+01 8.22465792119795e-03 1.20110040180867e-04
1.22481818181818e+01 8.13885650068152e-03 1.19095936352650e-04
1.22972727272727e+01 8.05395017931142e-03 1.18089446194580e-04
1.23463636363636e+01 7.96992961921684e-03 1.17090528957565e-04
1.23954545454545e+01 7.88678557994169e-03 1.16099143776601e-04
1.24445454545455e+01 7.80450891742837e-03 1.15115249680447e-04
1.24936363636364e+01 7.72309058301177e-03 1.14138805600673e-04
1.25427272727273e+01 7.64252162242484e-03 1.13169770380714e-04
1.25918181818182e+01 7.56279317481340e-03 1.12208102784955e-04
1.26409090909091e+01 7.48389647176170e-03 1.11253761507210e-04
1.26900000000000e+01 7.40582283632803e-03 1.10306705389228e-04
1.27390909090909e+01 7.32856368148946e-03 1.09366892793488e-04
1.27881818181818e+01 7.25211051101564e-03 1.08434282036844e-04
1.28372727272727e+01 7.17645491670079e-03 1.07508831832070e-04
1.28863636363636e+01 7.10158857805539e-03 1.06590500641338e-04
1.29354545454545e+01 7.02750326139110e-03 1.05679246903284e-04
1.29845454545455e+01 6.95419081891526e-03 1.04775029040235e-04
1.30336363636364e+01 6.88164318783449e-03 1.03877805464951e-04
1.30827272727273e+01 6.80985238946856e-03 1.02987534587376e-04
1.31318181818182e+01 6.73881052837261e-03 1.02104174821412e-04
1.31809090909091e+01 6.66850979146878e-03 1.01227684591212e-04
1.32300000000000e+01 6.59894244718700e-03 1.00358022520797e-04
1.32790909090909e+01 6.53010084410094e-03 9.94951468856321e-05
1.33281818181818e+01 6.46197741164051e-03 9.86390159899727e-05
1.33772727272727e+01 6.39456465769222e-03 9.77895885511858e-05
1.34263636363636e+01 6.32785516830191e-03 9.69468231345538e-05
1.34754545454545e+01 6.26184160685950e-03 9.61106783504212e-05
1.35245454545455e+01 6.19651671329198e-03 9.52811128595247e-05
1.35736363636364e+01 6.13187330326485e-03 9.44580853779182e-05
1.36227272727273e+01 6.06790426739240e-03 9.36415546819433e-05
1.36718181818182e+01 6.00460257045560e-03 9.28314796131986e-05
1.37209090909091e+01 5.94196125062838e-03 9.20278190831279e-05
1.37700000000000e+01 5.87997341871199e-03 9.12305322377517e-05
1.38190909090909e+01 5.81863225693750e-03 9.04395779777823e-05
1.38681818181818e+01 5.75793101954643e-03 8.96549152873305e-05
1.39172727272727e+01 5.69786303070728e-03 8.88765035687291e-05
1.39663636363636e+01 5.63842168423233e-03 8.81043021480709e-05
1.40154545454545e+01 5.57960044285103e-03 8.73382704465701e-05
1.40645454545455e+01 5.52139283749111e-03 8.65783679844162e-05
1.41136363636364e+01 5.46379246656688e-03 8.58245543842908e-05
1.41627272727273e+01 5.40679299527564e-03 8.50767893749188e-05
1.42118181818182e+01 5.35038815490072e-03 8.43350327946619e-05
1.42609090909091e+01 5.29457174212210e-03 8.35992445947735e-05
1.43100000000000e+01 5.23933761833416e-03 8.28693849826460e-05
1.43590909090909e+01 5.18467970859345e-03 8.21454140016270e-05
1.44081818181818e+01 5.13059200209131e-03 8.14272918176110e-05
1.44572727272727e+01 5.07706855034255e-03 8.07149790110122e-05
1.45063636363636e+01 5.02410346691794e-03 8.00084361438744e-05
1.45554545454545e+01 4.97169092679672e-03 7.93076239089759e-05
1.46045454545455e+01 4.91982516572609e-03 7.86125031325270e-05
1.46536363636364e+01 4.86850047958701e-03 7.79230347765950e-05
1.47027272727273e+01 4.81771122376724e-03 7.72391799415622e-05
1.47518181818182e+01 4.76745181254041e-03 7.65608998686308e-05
1.48009090909091e+01 4.71771671845164e-03 7.58881559420386e-05
1.48500000000000e+01 4.66850047170972e-03 7.52209098137558e-05
1.48990909090909e+01 4.61979765926162e-03 7.45591230353413e-05
1.49481818181818e+01 4.57160292517678e-03 7.39027573080108e-05
1.49972727272727e+01 4.52391096907038e-03 7.32517747374546e-05
1.50463636363636e+01 4.47671654585239e-03 7.26061374546188e-05
1.50954545454545e+01 4.43001446515071e-03 7.19658077455594e-05
1.51445454545455e+01 4.38379959074036e-03 7.13307480532362e-05
1.51936363636364e+01 4.33806683997845e-03 7.07009209790903e-05
1.52427272727273e+01 4.29281118324549e-03 7.00762892846601e-05
1.52918181818182e+01 4.24802764339207e-03 6.94568158932335e-05
1.53409090909091e+01 4.20371129519153e-03 6.88424638912704e-05
1.53900000000000e+01 4.15985726479823e-03 6.82331966370289e-05
1.54390909090909e+01 4.11646072893313e-03 6.76289774378302e-05
1.54881818181818e+01 4.07351691519551e-03 6.70297697684344e-05
