Energy (eV)          EEDF (eV^-(3/2))     First Anisotropy
7.00000000000000e-02 9.22136592386357e-02 9.49738978816940e-05
2.10000000000000e-01 8.97926885276241e-02 1.55292274775972e-04
3.50000000000000e-01 8.74352778057834e-02 2.00972516842106e-04
4.90000000000000e-01 8.51397583737832e-02 2.33316285061295e-04
6.30000000000000e-01 8.29045053421976e-02 2.58404322129828e-04
7.70000000000000e-01 8.07279364813284e-02 2.78607466219841e-04
9.10000000000000e-01 7.86085111012209e-02 2.95188235222742e-04
1.05000000000000e+00 7.65447289610824e-02 3.08929881329915e-04
1.19000000000000e+00 7.45351292073328e-02 3.20365285519801e-04
1.33000000000000e+00 7.25782893395358e-02 3.29880226123441e-04
1.47000000000000e+00 7.06728242034783e-02 3.37766763429775e-04
1.61000000000000e+00 6.88173850106852e-02 3.44253586914780e-04
1.75000000000000e+00 6.70106583836760e-02 3.49524527282370e-04
1.89000000000000e+00 6.52513654262873e-02 3.53730483689870e-04
2.03000000000000e+00 6.35382608184026e-02 3.56997452290301e-04
2.17000000000000e+00 6.18701319344492e-02 3.59432128100846e-04
2.31000000000000e+00 6.02457979850381e-02 3.61125932916386e-04
2.45000000000000e+00 5.86641091811394e-02 3.62157986437171e-04
2.59000000000000e+00 5.71239459202005e-02 3.62597346626477e-04
2.73000000000000e+00 5.56242179936331e-02 3.62504731713173e-04
2.87000000000000e+00 5.41638638151059e-02 3.61933866249377e-04
3.01000000000000e+00 5.27418496690981e-02 3.60932549115983e-04
3.15000000000000e+00 5.13571689791811e-02 3.59543512268577e-04
3.29000000000000e+00 5.00088415955106e-02 3.57805119524769e-04
3.43000000000000e+00 4.86959131010252e-02 3.55751941351933e-04
3.57000000000000e+00 4.74174541358598e-02 3.53415232302052e-04
3.71000000000000e+00 4.61725597394954e-02 3.50823331125709e-04
3.85000000000000e+00 4.49603487101811e-02 3.48001998822840e-04
3.99000000000000e+00 4.37799629811724e-02 3.44974706391628e-04
4.13000000000000e+00 4.26305670133470e-02 3.41762881442141e-04
4.27000000000000e+00 4.15113472037661e-02 3.38386120891931e-04
4.41000000000000e+00 4.04215113097630e-02 3.34862375479607e-04
4.55000000000000e+00 3.93602878881528e-02 3.31208110695164e-04
4.69000000000000e+00 3.83269257491637e-02 3.27438447844143e-04
4.83000000000000e+00 3.73206934247057e-02 3.23567288272851e-04
4.97000000000000e+00 3.63408786505989e-02 3.19607423237690e-04
5.11000000000000e+00 3.53867878623953e-02 3.15570631468822e-04
5.25000000000000e+00 3.44577457044378e-02 3.11467766131623e-04
5.39000000000000e+00 3.35530945518074e-02 3.07308832609700e-04
5.53000000000000e+00 3.26721940448221e-02 3.03103058305993e-04
5.67000000000000e+00 3.18144206357565e-02 2.98858955472918e-04
5.81000000000000e+00 3.09791671474618e-02 2.94584377929879e-04
5.95000000000000e+00 3.01658423435739e-02 2.90286572400393e-04
6.09000000000000e+00 2.93738705100054e-02 2.85972225096259e-04
6.23000000000000e+00 2.86026910474247e-02 2.81647504088759e-04
6.37000000000000e+00 2.78517580744342e-02 2.77318097933357e-04
6.51000000000000e+00 2.71205400411670e-02 2.72989250952586e-04
6.65000000000000e+00 2.64085193530278e-02 2.68665795529393e-04
6.79000000000000e+00 2.57151920043121e-02 2.64352181718644e-04
6.93000000000000e+00 2.50400672214446e-02 2.60052504446567e-04
7.07000000000000e+00 2.43826671155838e-02 2.55770528535327e-04
7.21000000000000e+00 2.37425263443471e-02 2.51509711761921e-04
7.35000000000000e+00 2.31191917824171e-02 2.47273226136482e-04
7.49000000000000e+00 2.25122222007955e-02 2.43063977564178e-04
7.63000000000000e+00 2.19211879544780e-02 2.38884624036735e-04
7.77000000000000e+00 2.13456706783292e-02 2.34737592483819e-04
7.91000000000000e+00 2.07852629909415e-02 2.30625094400693e-04
8.05000000000000e+00 2.02395682062690e-02 2.26549140356494e-04
8.19000000000000e+00 1.97082000528328e-02 2.22511553476852e-04
8.33000000000000e+00 1.91907824002970e-02 2.18513981985160e-04
8.47000000000000e+00 1.86869489932244e-02 2.14557910878632e-04
8.61000000000000e+00 1.81963431918214e-02 2.10644672807880e-04
8.75000000000000e+00 1.77186177194897e-02 2.06775458222308e-04
8.89000000000000e+00 1.72534344170054e-02 2.02951324837840e-04
9.03000000000000e+00 1.68004640031525e-02 1.99173206478337e-04
9.17000000000000e+00 1.63593858416400e-02 1.95441921337445e-04
9.31000000000000e+00 1.59298877141389e-02 1.91758179703583e-04
9.45000000000000e+00 1.55116655992775e-02 1.88122591186992e-04
9.59000000000000e+00 1.51044234574389e-02 1.84535671484504e-04
9.73000000000000e+00 1.47078730212091e-02 1.80997848714714e-04
9.87000000000000e+00 1.43217335913257e-02 1.77509469353503e-04
1.00100000000000e+01 1.39457318379844e-02 1.74070803797476e-04
1.01500000000000e+01 1.35796016073616e-02 1.70682051580643e-04
1.02900000000000e+01 1.32230837332170e-02 1.67343346267692e-04
1.04300000000000e+01 1.28759258534418e-02 1.64054760045390e-04
1.05700000000000e+01 1.25378822314239e-02 1.60816308031991e-04
1.07100000000000e+01 1.22087135821022e-02 1.57627952323047e-04
1.08500000000000e+01 1.18881869025881e-02 1.54489605790633e-04
1.09900000000000e+01 1.15760753072342e-02 1.51401135651751e-04
1.11300000000000e+01 1.12721578670321e-02 1.48362366820552e-04
1.12700000000000e+01 1.09762194532278e-02 1.45373085057938e-04
1.14100000000000e+01 1.06880505850419e-02 1.42433039931166e-04
1.15500000000000e+01 1.04074472813880e-02 1.39541947595188e-04
1.16900000000000e+01 1.01342109164845e-02 1.36699493406657e-04
1.18300000000000e+01 9.86814807925672e-03 1.33905334380783e-04
1.19700000000000e+01 9.60907043643002e-03 1.31159101500528e-04
1.21100000000000e+01 9.35679459921808e-03 1.28460401886984e-04
1.22500000000000e+01 9.11114199351036e-03 1.25808820839244e-04
1.23900000000000e+01 8.87193873346810e-03 1.23203923751463e-04
1.25300000000000e+01 8.63901549843869e-03 1.20645257914366e-04
1.26700000000000e+01 8.41220741310162e-03 1.18132354207953e-04
1.28100000000000e+01 8.19135393076111e-03 1.15664728691767e-04
1.29500000000000e+01 7.97629871970264e-03 1.13241884098638e-04
1.30900000000000e+01 7.76688955253316e-03 1.10863311237495e-04
1.32300000000000e+01 7.56297819842657e-03 1.08528490310456e-04
1.33700000000000e+01 7.36442031819807e-03 1.06236892149117e-04
1.35100000000000e+01 7.17107536213337e-03 1.03987979374647e-04
1.36500000000000e+01 6.98280647050015e-03 1.01781207485996e-04
1.37900000000000e+01 6.79948037667156e-03 9.96160258803250e-05
1.39300000000000e+01 6.62096731279309e-03 9.74918788094624e-05
1.40700000000000e+01 6.44714091792607e-03 9.54082062759954e-05
1.42100000000000e+01 6.27787814860272e-03 9.33644448723897e-05
1.43500000000000e+01 6.11305919172953e-03 9.13600285663415e-05
1.44900000000000e+01 5.95256737977724e-03 8.93943894353593e-05
1.46300000000000e+01 5.79628910819743e-03 8.74669583534222e-05
1.47700000000000e+01 5.64411375500725e-03 8.55771656323940e-05
1.49100000000000e+01 5.49593360248534e-03 8.37244416207103e-05
1.50500000000000e+01 5.35164376092357e-03 8.19082172617181e-05
1.51900000000000e+01 5.21114209438060e-03 8.01279246139271e-05
1.53300000000000e+01 5.07432914838467e-03 7.83829973352908e-05
1.54700000000000e+01 4.94110807953449e-03 7.66728711335185e-05
1.56100000000000e+01 4.81138458694841e-03 7.49969841843177e-05
1.57500000000000e+01 4.68506684551326e-03 7.33547775193486e-05
1.58900000000000e+01 4.56206544088572e-03 7.17456953855919e-05
1.60300000000000e+01 4.44229330620015e-03 7.01691855777288e-05
1.61700000000000e+01 4.32566566043808e-03 6.86246997450331e-05
1.63100000000000e+01 4.21209994841573e-03 6.71116936742183e-05
1.64500000000000e+01 4.10151578234713e-03 6.56296275495928e-05
1.65900000000000e+01 3.99383488494140e-03 6.41779661917938e-05
1.67300000000000e+01 3.88898103399395e-03 6.27561792763167e-05
1.68700000000000e+01 3.78688000843245e-03 6.13637415329942e-05
1.70100000000000e+01 3.68745953577917e-03 6.00001329274953e-05
1.71500000000000e+01 3.59064924099279e-03 5.86648388258841e-05
1.72900000000000e+01 3.49638059665319e-03 5.73573501432073e-05
1.74300000000000e+01 3.40458687445419e-03 5.60771634770281e-05
1.75700000000000e+01 3.31520309796967e-03 5.48237812267899e-05
1.77100000000000e+01 3.22816599665993e-03 5.35967116998238e-05
1.78500000000000e+01 3.14341396108540e-03 5.23954692047909e-05
1.79900000000000e+01 3.06088699929624e-03 5.12195741332964e-05
1.81300000000000e+01 2.98052669436694e-03 5.00685530303828e-05
1.82700000000000e+01 2.90227616304568e-03 4.89419386545636e-05
1.84100000000000e+01 2.82608001548943e-03 4.78392700280311e-05
1.85500000000000e+01 2.75188431605604e-03 4.67600924776348e-05
1.86900000000000e+01 2.67963654512583e-03 4.57039576671944e-05
1.88300000000000e+01 2.60928556192536e-03 4.46704236216876e-05
1.89700000000000e+01 2.54078156832737e-03 4.36590547438170e-05
1.91100000000000e+01 2.47407607360101e-03 4.26694218234409e-05
1.92500000000000e+01 2.40912186008755e-03 4.17011020403225e-05
1.93900000000000e+01 2.34587294977723e-03 4.07536789606289e-05
1.95300000000000e+01 2.28428457176365e-03 3.98267425275907e-05
1.96700000000000e+01 2.22431313055251e-03 3.89198890467075e-05
1.98100000000000e+01 2.16591617520246e-03 3.80327211658706e-05
1.99500000000000e+01 2.10905236927607e-03 3.71648478507463e-05
2.00900000000000e+01 2.05368146157975e-03 3.63158843557516e-05
2.02300000000000e+01 1.99976425767181e-03 3.54854521909342e-05
2.03700000000000e+01 1.94726259211860e-03 3.46731790850501e-05
2.05100000000000e+01 1.89613930147897e-03 3.38786989451194e-05
2.06500000000000e+01 1.84635819799808e-03 3.31016518127260e-05
2.07900000000000e+01 1.79788404399175e-03 3.23416838173090e-05
2.09300000000000e+01 1.75068252690342e-03 3.15984471266831e-05
2.10700000000000e+01 1.70472023501591e-03 3.08715998950137e-05
2.12100000000000e+01 1.65996463380079e-03 3.01608062084563e-05
2.13500000000000e+01 1.61638404288882e-03 2.94657360286615e-05
2.14900000000000e+01 1.57394761364485e-03 2.87860651343347e-05
2.16300000000000e+01 1.53262530733157e-03 2.81214750610265e-05
2.17700000000000e+01 1.49238787384649e-03 2.74716530393284e-05
2.19100000000000e+01 1.45320683101718e-03 2.68362919316284e-05
2.20500000000000e+01 1.41505444444010e-03 2.62150901675778e-05
2.21900000000000e+01 1.37790370784874e-03 2.56077516784136e-05
2.23300000000000e+01 1.34172832399713e-03 2.50139858302662e-05
2.24700000000000e+01 1.30650268604529e-03 2.44335073565844e-05
2.26100000000000e+01 1.27220185943337e-03 2.38660362897904e-05
2.27500000000000e+01 1.23880156423161e-03 2.33112978922815e-05
2.28900000000000e+01 1.20627815795381e-03 2.27690225868828e-05
2.30300000000000e+01 1.17460861882185e-03 2.22389458868493e-05
2.31700000000000e+01 1.14377052946970e-03 2.17208083255114e-05
2.33100000000000e+01 1.11374206107526e-03 2.12143553856515e-05
2.34500000000000e+01 1.08450195790870e-03 2.07193374286942e-05
2.35900000000000e+01 1.05602952228660e-03 2.02355096237882e-05
2.37300000000000e+01 1.02830459992102e-03 1.97626318768498e-05
2.38700000000000e+01 1.00130756565323e-03 1.93004687596398e-05
2.40100000000000e+01 9.75019309561964e-04 1.88487894389340e-05
2.41500000000000e+01 9.49421223436479e-04 1.84073676058484e-05
2.42900000000000e+01 9.24495187604627e-04 1.79759814053756e-05
2.44300000000000e+01 9.00223558106817e-04 1.75544133661825e-05
2.45700000000000e+01 8.76589154206693e-04 1.71424503307177e-05
2.47100000000000e+01 8.53575246229702e-04 1.67398833856749e-05
2.48500000000000e+01 8.31165543720954e-04 1.63465077928542e-05
2.49900000000000e+01 8.09344183913975e-04 1.59621229204588e-05
2.51300000000000e+01 7.88095720502213e-04 1.55865321748647e-05
2.52700000000000e+01 7.67405112705323e-04 1.52195429328944e-05
2.54100000000000e+01 7.47257714622517e-04 1.48609664746285e-05
2.55500000000000e+01 7.27639264865421e-04 1.45106179167816e-05
2.56900000000000e+01 7.08535876463117e-04 1.41683161466683e-05
2.58300000000000e+01 6.89934027032211e-04 1.38338837567845e-05
2.59700000000000e+01 6.71820549204980e-04 1.35071469800242e-05
2.61100000000000e+01 6.54182621308818e-04 1.31879356255538e-05
2.62500000000000e+01 6.37007758290381e-04 1.28760830153607e-05
2.63900000000000e+01 6.20283802878006e-04 1.25714259214907e-05
2.65300000000000e+01 6.03998916976159e-04 1.22738045039929e-05
2.66700000000000e+01 5.88141573285806e-04 1.19830622495824e-05
2.68100000000000e+01 5.72700547144783e-04 1.16990459110320e-05
2.69500000000000e+01 5.57664908582394e-04 1.14216054473054e-05
2.70900000000000e+01 5.43024014582596e-04 1.11505939644389e-05
2.72300000000000e+01 5.28767501550319e-04 1.08858676571804e-05
2.73700000000000e+01 5.14885277975563e-04 1.06272857513912e-05
2.75100000000000e+01 5.01367517290101e-04 1.03747104472172e-05
2.76500000000000e+01 4.88204650911712e-04 1.01280068630329e-05
2.77900000000000e+01 4.75387361471039e-04 9.88704298016249e-06
2.79300000000000e+01 4.62906576216263e-04 9.65168958837960e-06
2.80700000000000e+01 4.50753460590931e-04 9.42182023218760e-06
2.82100000000000e+01 4.38919411980395e-04 9.19731115788222e-06
2.83500000000000e+01 4.27396053622426e-04 8.97804126139528e-06
2.84900000000000e+01 4.16175228677703e-04 8.76389203691946e-06
2.86300000000000e+01 4.05248994455971e-04 8.55474752631296e-06
2.87700000000000e+01 3.94609616793788e-04 8.35049426928163e-06
2.89100000000000e+01 3.84249564579879e-04 8.15102125433670e-06
2.90500000000000e+01 3.74161504424214e-04 7.95621987052426e-06
2.91900000000000e+01 3.64338295467055e-04 7.76598385992325e-06
2.93300000000000e+01 3.54772984324276e-04 7.58020927090881e-06
2.94700000000000e+01 3.45458800165392e-04 7.39879441217474e-06
2.96100000000000e+01 3.36389149920810e-04 7.22163980751137e-06
2.97500000000000e+01 3.27557613614909e-04 7.04864815133354e-06
2.98900000000000e+01 3.18957939821638e-04 6.87972426495238e-06
3.00300000000000e+01 3.10584041239435e-04 6.71477505358568e-06
3.01700000000000e+01 3.02429990382309e-04 6.55370946410039e-06
3.03100000000000e+01 2.94490015384056e-04 6.39643844348001e-06
3.04500000000000e+01 2.86758495912628e-04 6.24287489801105e-06
3.05900000000000e+01 2.79229959191767e-04 6.09293365318113e-06
3.07300000000000e+01 2.71899076127084e-04 5.94653141428154e-06
3.08700000000000e+01 2.64760657533848e-04 5.80358672770675e-06
3.10100000000000e+01 2.57809650463808e-04 5.66401994294300e-06
3.11500000000000e+01 2.51041134628446e-04 5.52775317523915e-06
3.12900000000000e+01 2.44450318916144e-04 5.39471026895112e-06
3.14300000000000e+01 2.38032538000781e-04 5.26481676155191e-06
3.15700000000000e+01 2.31783249039366e-04 5.13799984829925e-06
3.17100000000000e+01 2.25698028456381e-04 5.01418834755294e-06
3.18500000000000e+01 2.19772568812537e-04 4.89331266673321e-06
3.19900000000000e+01 2.14002675755742e-04 4.77530476891180e-06
3.21300000000000e+01 2.08384265052122e-04 4.66009814002753e-06
3.22700000000000e+01 2.02913359694979e-04 4.54762775671765e-06
3.24100000000000e+01 1.97586087089663e-04 4.43783005475647e-06
3.25500000000000e+01 1.92398676312341e-04 4.33064289809327e-06
3.26900000000000e+01 1.87347455440741e-04 4.22600554848007e-06
3.28300000000000e+01 1.82428848954971e-04 4.12385863568115e-06
3.29700000000000e+01 1.77639375206579e-04 4.02414412825625e-06
3.31100000000000e+01 1.72975643954059e-04 3.92680530490795e-06
3.32500000000000e+01 1.68434353963057e-04 3.83178672638523e-06
3.33900000000000e+01 1.64012290669589e-04 3.73903420793497e-06
3.35300000000000e+01 1.59706323904598e-04 3.64849479229220e-06
3.36700000000000e+01 1.55513405678260e-04 3.56011672320107e-06
3.38100000000000e+01 1.51430568022452e-04 3.47384941945826e-06
3.39500000000000e+01 1.47454920889872e-04 3.38964344947019e-06
3.40900000000000e+01 1.43583650108310e-04 3.30745050631582e-06
3.42300000000000e+01 1.39814015388630e-04 3.22722338330664e-06
3.43700000000000e+01 1.36143348385044e-04 3.14891595003594e-06
3.45100000000000e+01 1.32569050806324e-04 3.07248312890890e-06
3.46500000000000e+01 1.29088592576591e-04 2.99788087214562e-06
3.47900000000000e+01 1.25699510044392e-04 2.92506613924893e-06
3.49300000000000e+01 1.22399404238802e-04 2.85399687492921e-06
3.50700000000000e+01 1.19185939171305e-04 2.78463198747810e-06
3.52100000000000e+01 1.16056840182255e-04 2.71693132758365e-06
3.53500000000000e+01 1.13009892330759e-04 2.65085566757892e-06
3.54900000000000e+01 1.10042938826819e-04 2.58636668111635e-06
3.56300000000000e+01 1.07153879504644e-04 2.52342692326062e-06
3.57700000000000e+01 1.04340669336046e-04 2.46199981099235e-06
3.59100000000000e+01 1.01601316982855e-04 2.40204960411534e-06
3.60500000000000e+01 9.89338833873521e-05 2.34354138655987e-06
3.61900000000000e+01 9.63364803996966e-05 2.28644104807514e-06
3.63300000000000e+01 9.38072694413974e-05 2.23071526630347e-06
3.64700000000000e+01 9.13444602038694e-05 2.17633148922929e-06
3.66100000000000e+01 8.89463093811591e-05 2.12325791799637e-06
3.67500000000000e+01 8.66111194359408e-05 2.07146349008567e-06
3.68900000000000e+01 8.43372373979103e-05 2.02091786284771e-06
3.70300000000000e+01 8.21230536937260e-05 1.97159139738264e-06
3.71700000000000e+01 7.99670010076677e-05 1.92345514276124e-06
3.73100000000000e+01 7.78675531722083e-05 1.87648082058072e-06
3.74500000000000e+01 7.58232240877121e-05 1.83064080984851e-06
3.75900000000000e+01 7.38325666704952e-05 1.78590813218807e-06
3.77300000000000e+01 7.18941718285038e-05 1.74225643736049e-06
3.78700000000000e+01 7.00066674638844e-05 1.69965998909572e-06
3.80100000000000e+01 6.81687175017408e-05 1.65809365122737e-06
3.81500000000000e+01 6.63790209443902e-05 1.61753287412512e-06
3.82900000000000e+01 6.46363109504485e-05 1.57795368141925e-06
3.84300000000000e+01 6.29393539380930e-05 1.53933265701115e-06
3.85700000000000e+01 6.12869487118689e-05 1.50164693236429e-06
3.87100000000000e+01 5.96779256124193e-05 1.46487417407025e-06
3.88500000000000e+01 5.81111456885393e-05 1.42899257168419e-06
3.89900000000000e+01 5.65854998909663e-05 1.39398082582449e-06
3.91300000000000e+01 5.50999082873361e-05 1.35981813653113e-06
3.92700000000000e+01 5.36533192977507e-05 1.32648419187768e-06
3.94100000000000e+01 5.22447089504141e-05 1.29395915683196e-06
3.95500000000000e+01 5.08730801568117e-05 1.26222366236019e-06
3.96900000000000e+01 4.95374620059180e-05 1.23125879476952e-06
3.98300000000000e+01 4.82369090769354e-05 1.20104608528450e-06
3.99700000000000e+01 4.69705007700750e-05 1.17156749985242e-06
4.01100000000000e+01 4.57373406549079e-05 1.14280542917288e-06
4.02500000000000e+01 4.45365558358247e-05 1.11474267894716e-06
4.03900000000000e+01 4.33672963341539e-05 1.08736246034262e-06
4.05300000000000e+01 4.22287344865020e-05 1.06064838066786e-06
4.06700000000000e+01 4.11200643588906e-05 1.03458443425427e-06
4.08100000000000e+01 4.00405011762730e-05 1.00915499353962e-06
4.09500000000000e+01 3.89892807670297e-05 9.84344800349606e-07
4.10900000000000e+01 3.79656590220475e-05 9.60138957373075e-07
4.12300000000000e+01 3.69689113679998e-05 9.36522919826962e-07
4.13700000000000e+01 3.59983322544552e-05 9.13482487307039e-07
4.15100000000000e+01 3.50532346544525e-05 8.91003795820441e-07
4.16500000000000e+01 3.41329495781860e-05 8.69073309996186e-07
4.17900000000000e+01 3.32368255994601e-05 8.47677815470011e-07
4.19300000000000e+01 3.23642283945751e-05 8.26804411439751e-07
4.20700000000000e+01 3.15145402933196e-05 8.06440503387699e-07
4.22100000000000e+01 3.06871598417510e-05 7.86573795966327e-07
4.23500000000000e+01 2.98815013764550e-05 7.67192286043980e-07
4.24900000000000e+01 2.90969946099819e-05 7.48284255907120e-07
4.26300000000000e+01 2.83330842271674e-05 7.29838266615740e-07
4.27700000000000e+01 2.75892294920509e-05 7.11843151508672e-07
4.29100000000000e+01 2.68649038651149e-05 6.94288009855588e-07
4.30500000000000e+01 2.61595946305716e-05 6.77162200652536e-07
4.31900000000000e+01 2.54728025334367e-05 6.60455336557939e-07
4.33300000000000e+01 2.48040414261297e-05 6.44157277965996e-07
4.34700000000000e+01 2.41528379243535e-05 6.28258127214525e-07
4.36100000000000e+01 2.35187310720080e-05 6.12748222924391e-07
4.37500000000000e+01 2.29012720149009e-05 5.97618134467553e-07
4.38900000000000e+01 2.23000236830254e-05 5.82858656561019e-07
4.40300000000000e+01 2.17145604811788e-05 5.68460803983988e-07
4.41700000000000e+01 2.11444679877040e-05 5.54415806415414e-07
