Energy (eV)          EEDF (eV^-(3/2))     First Anisotropy
2.86666666666667e-02 1.01321826275554e-01 6.92393699986370e-05
8.60000000000000e-02 1.00159127845622e-01 1.14061323956839e-04
1.43333333333333e-01 9.90097717240018e-02 1.49853549338412e-04
2.00666666666667e-01 9.78736048150363e-02 1.76610784915696e-04
2.58000000000000e-01 9.67504757644314e-02 1.98570051064767e-04
3.15333333333333e-01 9.56402349546065e-02 2.17344437975055e-04
3.72666666666667e-01 9.45427344935004e-02 2.33774227449893e-04
4.30000000000000e-01 9.34578281810784e-02 2.48370098480336e-04
4.87333333333333e-01 9.23853714932332e-02 2.61472878639395e-04
5.44666666666667e-01 9.13252215692874e-02 2.73324956340580e-04
6.02000000000000e-01 9.02772371851332e-02 2.84106861278674e-04
6.59333333333333e-01 8.92412787358391e-02 2.93957868707388e-04
7.16666666666667e-01 8.82172082219098e-02 3.02988453765487e-04
7.74000000000000e-01 8.72048892255534e-02 3.11288241249543e-04
8.31333333333333e-01 8.62041868932899e-02 3.18931305513801e-04
8.88666666666667e-01 8.52149679216974e-02 3.25979833777186e-04
9.46000000000000e-01 8.42371005356597e-02 3.32486734472160e-04
1.00333333333333e+00 8.32704544713047e-02 3.38497541395065e-04
1.06066666666667e+00 8.23149009616113e-02 3.44051835507094e-04
1.11800000000000e+00 8.13703127185870e-02 3.49184327876295e-04
1.17533333333333e+00 8.04365639042077e-02 3.53925693784237e-04
1.23266666666667e+00 7.95135301410999e-02 3.58303230763959e-04
1.29000000000000e+00 7.86010884703444e-02 3.62341383513886e-04
1.34733333333333e+00 7.76991173375511e-02 3.66062160106068e-04
1.40466666666667e+00 7.68074965971170e-02 3.69485476491283e-04
1.46200000000000e+00 7.59261074748142e-02 3.72629439619857e-04
1.51933333333333e+00 7.50548325538256e-02 3.75510576546068e-04
1.57666666666667e+00 7.41935557765867e-02 3.78144031256367e-04
1.63400000000000e+00 7.33421624111095e-02 3.80543730445216e-04
1.69133333333333e+00 7.25005390371520e-02 3.82722518937888e-04
1.74866666666667e+00 7.16685735462527e-02 3.84692280180560e-04
1.80600000000000e+00 7.08461551110753e-02 3.86464039696472e-04
1.86333333333333e+00 7.00331741718085e-02 3.88048049654239e-04
1.92066666666667e+00 6.92295224348301e-02 3.89453866804652e-04
1.97800000000000e+00 6.84350928445566e-02 3.90690420447951e-04
2.03533333333333e+00 6.76497795701329e-02 3.91766067582086e-04
2.09266666666667e+00 6.68734780030447e-02 3.92688645643091e-04
2.15000000000000e+00 6.61060847310902e-02 3.93465519091643e-04
2.20733333333333e+00 6.53474975253944e-02 3.94103616644433e-04
2.26466666666667e+00 6.45976153372098e-02 3.94609468338110e-04
2.32200000000000e+00 6.38563382737171e-02 3.94989238621206e-04
2.37933333333333e+00 6.31235675853834e-02 3.95248752203192e-04
2.43666666666667e+00 6.23992056621352e-02 3.95393520952441e-04
2.49400000000000e+00 6.16831560107585e-02 3.95428768130719e-04
2.55133333333333e+00 6.09753232426099e-02 3.95359446751619e-04
2.60866666666667e+00 6.02756130693066e-02 3.95190259649342e-04
2.66600000000000e+00 5.95839322815393e-02 3.94925677701455e-04
2.72333333333333e+00 5.89001887371424e-02 3.94569953108706e-04
2.78066666666667e+00 5.82242913564121e-02 3.94127134734424e-04
2.83800000000000e+00 5.75561501021826e-02 3.93601082126827e-04
2.89533333333333e+00 5.68956759682537e-02 3.92995475266911e-04
2.95266666666667e+00 5.62427809744288e-02 3.92313826544418e-04
3.01000000000000e+00 5.55973781477280e-02 3.91559491769646e-04
3.06733333333333e+00 5.49593815111708e-02 3.90735677410848e-04
3.12466666666667e+00 5.43287060786058e-02 3.89845450121492e-04
3.18200000000000e+00 5.37052678369561e-02 3.88891745545225e-04
3.23933333333333e+00 5.30889837353517e-02 3.87877373734921e-04
3.29666666666667e+00 5.24797716798098e-02 3.86805026859478e-04
3.35400000000000e+00 5.18775505164230e-02 3.85677286358346e-04
3.41133333333333e+00 5.12822400208343e-02 3.84496627021822e-04
3.46866666666667e+00 5.06937608928174e-02 3.83265423318872e-04
3.52600000000000e+00 5.01120347403287e-02 3.81985955294837e-04
3.58333333333333e+00 4.95369840693196e-02 3.80660411651963e-04
3.64066666666667e+00 4.89685322782540e-02 3.79290895014936e-04
3.69800000000000e+00 4.84066036429589e-02 3.77879426855619e-04
3.75533333333333e+00 4.78511233067647e-02 3.76427949817878e-04
3.81266666666667e+00 4.73020172749932e-02 3.74938332152044e-04
3.87000000000000e+00 4.67592124005475e-02 3.73412371875213e-04
3.92733333333333e+00 4.62226363743719e-02 3.71851798518703e-04
3.98466666666667e+00 4.56922177199376e-02 3.70258276903183e-04
4.04200000000000e+00 4.51678857795190e-02 3.68633410690126e-04
4.09933333333333e+00 4.46495707049658e-02 3.66978743684111e-04
4.15666666666667e+00 4.41372034522071e-02 3.65295763078127e-04
4.21400000000000e+00 4.36307157681696e-02 3.63585902514044e-04
4.27133333333333e+00 4.31300401818510e-02 3.61850543039058e-04
4.32866666666667e+00 4.26351099988630e-02 3.60091015920107e-04
4.38600000000000e+00 4.21458592889477e-02 3.58308605303883e-04
4.44333333333333e+00 4.16622228773458e-02 3.56504548902803e-04
4.50066666666667e+00 4.11841363393914e-02 3.54680040455236e-04
4.55800000000000e+00 4.07115359885914e-02 3.52836232055308e-04
4.61533333333333e+00 4.02443588682775e-02 3.50974234626313e-04
4.67266666666667e+00 3.97825427462676e-02 3.49095120086853e-04
4.73000000000000e+00 3.93260261034720e-02 3.47199923405727e-04
4.78733333333333e+00 3.88747481258229e-02 3.45289642907558e-04
4.84466666666667e+00 3.84286486990103e-02 3.43365242192455e-04
4.90200000000000e+00 3.79876683975861e-02 3.41427651959966e-04
4.95933333333333e+00 3.75517484771614e-02 3.39477770181897e-04
5.01666666666667e+00 3.71208308692259e-02 3.37516463813643e-04
5.07400000000000e+00 3.66948581707215e-02 3.35544570422470e-04
5.13133333333333e+00 3.62737736364985e-02 3.33562898255042e-04
5.18866666666667e+00 3.58575211742267e-02 3.31572227771242e-04
5.24600000000000e+00 3.54460453344104e-02 3.29573313105366e-04
5.30333333333333e+00 3.50392913030983e-02 3.27566882050199e-04
5.36066666666667e+00 3.46372048968883e-02 3.25553637438412e-04
5.41800000000000e+00 3.42397325533633e-02 3.23534258460085e-04
5.47533333333333e+00 3.38468213240440e-02 3.21509400580697e-04
5.53266666666667e+00 3.34584188694939e-02 3.19479696790757e-04
5.59000000000000e+00 3.30744734501526e-02 3.17445758798904e-04
5.64733333333333e+00 3.26949339195243e-02 3.15408176897726e-04
5.70466666666667e+00 3.23197497193857e-02 3.13367521098799e-04
5.76200000000000e+00 3.19488708709968e-02 3.11324342217352e-04
5.81933333333333e+00 3.15822479685175e-02 3.09279171697146e-04
5.87666666666667e+00 3.12198321743210e-02 3.07232522645205e-04
5.93400000000000e+00 3.08615752105625e-02 3.05184890821415e-04
5.99133333333333e+00 3.05074293528177e-02 3.03136754431543e-04
6.04866666666667e+00 3.01573474255015e-02 3.01088575073673e-04
6.10600000000000e+00 2.98112827937792e-02 2.99040798644049e-04
6.16333333333333e+00 2.94691893574177e-02 2.96993855105580e-04
6.22066666666667e+00 2.91310215463124e-02 2.94948159356145e-04
6.27800000000000e+00 2.87967343127230e-02 2.92904112060281e-04
6.33533333333333e+00 2.84662831253310e-02 2.90862099399102e-04
6.39266666666667e+00 2.81396239648755e-02 2.88822493869183e-04
6.45000000000000e+00 2.78167133166979e-02 2.86785655048232e-04
6.50733333333333e+00 2.74975081649993e-02 2.84751929331336e-04
6.56466666666667e+00 2.71819659885849e-02 2.82721650667838e-04
6.62200000000000e+00 2.68700447537031e-02 2.80695141267987e-04
6.67933333333333e+00 2.65617029084970e-02 2.78672711329479e-04
6.73666666666667e+00 2.62568993788562e-02 2.76654659718749e-04
6.79400000000000e+00 2.59555935615374e-02 2.74641274624680e-04
6.85133333333333e+00 2.56577453188031e-02 2.72632833278648e-04
6.90866666666667e+00 2.53633149743806e-02 2.70629602585772e-04
6.96600000000000e+00 2.50722633068515e-02 2.68631839730946e-04
7.02333333333333e+00 2.47845515444707e-02 2.66639791895060e-04
7.08066666666667e+00 2.45001413612327e-02 2.64653696841040e-04
7.13800000000000e+00 2.42189948705169e-02 2.62673783476736e-04
7.19533333333333e+00 2.39410746200822e-02 2.60700271569487e-04
7.25266666666667e+00 2.36663435882378e-02 2.58733372291217e-04
7.31000000000000e+00 2.33947651777349e-02 2.56773288742188e-04
7.36733333333333e+00 2.31263032109295e-02 2.54820215665661e-04
7.42466666666667e+00 2.28609219260579e-02 2.52874339955761e-04
7.48200000000000e+00 2.25985859713623e-02 2.50935841145622e-04
7.53933333333333e+00 2.23392604004178e-02 2.49004891123592e-04
7.59666666666667e+00 2.20829106685098e-02 2.47081654607124e-04
7.65400000000000e+00 2.18295026269848e-02 2.45166289598434e-04
7.71133333333333e+00 2.15790025187349e-02 2.43258947103439e-04
7.76866666666667e+00 2.13313769746764e-02 2.41359771574565e-04
7.82600000000000e+00 2.10865930083153e-02 2.39468901336679e-04
7.88333333333333e+00 2.08446180113850e-02 2.37586468309666e-04
7.94066666666667e+00 2.06054197504236e-02 2.35712598422780e-04
7.99800000000000e+00 2.03689663615460e-02 2.33847412013323e-04
8.05533333333333e+00 2.01352263462282e-02 2.31991023553598e-04
8.11266666666667e+00 1.99041685679830e-02 2.30143542039083e-04
8.17000000000000e+00 1.96757622473287e-02 2.28305071362055e-04
8.22733333333333e+00 1.94499769577167e-02 2.26475710043555e-04
8.28466666666667e+00 1.92267826223020e-02 2.24655551597424e-04
8.34200000000000e+00 1.90061495091017e-02 2.22844684880841e-04
8.39933333333333e+00 1.87880482270603e-02 2.21043193831765e-04
8.45666666666667e+00 1.85724497229132e-02 2.19251157810722e-04
8.51400000000000e+00 1.83593252765277e-02 2.17468651929992e-04
8.57133333333333e+00 1.81486464971001e-02 2.15695746796876e-04
8.62866666666667e+00 1.79403853201125e-02 2.13932508834943e-04
8.68600000000000e+00 1.77345140028460e-02 2.12179000593466e-04
8.74333333333333e+00 1.75310051207082e-02 2.10435280496742e-04
8.80066666666667e+00 1.73298315642780e-02 2.08701403146316e-04
8.85800000000000e+00 1.71309665349873e-02 2.06977419612135e-04
8.91533333333333e+00 1.69343835415717e-02 2.05263377188147e-04
8.97266666666667e+00 1.67400563972036e-02 2.03559319676817e-04
9.03000000000000e+00 1.65479592153335e-02 2.01865287663326e-04
9.08733333333333e+00 1.63580664062616e-02 2.00181318277541e-04
9.14466666666667e+00 1.61703526743558e-02 1.98507445462137e-04
9.20200000000000e+00 1.59847930140473e-02 1.96843700231009e-04
9.25933333333333e+00 1.58013627065180e-02 1.95190110437688e-04
9.31666666666667e+00 1.56200373170024e-02 1.93546701028179e-04
9.37400000000000e+00 1.54407926909303e-02 1.91913494284689e-04
9.43133333333333e+00 1.52636049507271e-02 1.90290509600549e-04
9.48866666666667e+00 1.50884504931966e-02 1.88677763718789e-04
9.54600000000000e+00 1.49153059858059e-02 1.87075270962168e-04
9.60333333333333e+00 1.47441483635940e-02 1.85483043014581e-04
9.66066666666667e+00 1.45749548266339e-02 1.83901089146342e-04
9.71800000000000e+00 1.44077028364542e-02 1.82329416431437e-04
9.77533333333333e+00 1.42423701130521e-02 1.80768029535373e-04
9.83266666666667e+00 1.40789346324331e-02 1.79216930928026e-04
9.89000000000000e+00 1.39173746231633e-02 1.77676121088958e-04
9.94733333333333e+00 1.37576685634840e-02 1.76145598301647e-04
1.00046666666667e+01 1.35997951789264e-02 1.74625358728893e-04
1.00620000000000e+01 1.34437334394496e-02 1.73115397236861e-04
1.01193333333333e+01 1.32894625543540e-02 1.71615706063117e-04
1.01766666666667e+01 1.31369619745700e-02 1.70126275504453e-04
1.02340000000000e+01 1.29862113852905e-02 1.68647095362806e-04
1.02913333333333e+01 1.28371907033973e-02 1.67178152501358e-04
1.03486666666667e+01 1.26898800791295e-02 1.65719432148096e-04
1.04060000000000e+01 1.25442598890414e-02 1.64270919149233e-04
1.04633333333333e+01 1.24003107335143e-02 1.62832595626226e-04
1.05206666666667e+01 1.22580134382980e-02 1.61404442222364e-04
1.05780000000000e+01 1.21173490477799e-02 1.59986439301737e-04
1.06353333333333e+01 1.19782988225777e-02 1.58578564702721e-04
1.06926666666667e+01 1.18408442409648e-02 1.57180794930349e-04
1.07500000000000e+01 1.17049669924333e-02 1.55793106303379e-04
1.08073333333333e+01 1.15706489753667e-02 1.54415472800098e-04
1.08646666666667e+01 1.14378722983564e-02 1.53047867199038e-04
1.09220000000000e+01 1.13066192740447e-02 1.51690262176581e-04
1.09793333333333e+01 1.11768724168751e-02 1.50342628241083e-04
1.10366666666667e+01 1.10486144443067e-02 1.49004934824362e-04
1.10940000000000e+01 1.09218282709250e-02 1.47677151332181e-04
1.11513333333333e+01 1.07964970062662e-02 1.46359245162869e-04
1.12086666666667e+01 1.06726039559372e-02 1.45051182751878e-04
1.12660000000000e+01 1.05501326159811e-02 1.43752930577344e-04
1.13233333333333e+01 1.04290666707731e-02 1.42464453259558e-04
1.13806666666667e+01 1.03093899940532e-02 1.41185714560776e-04
1.14380000000000e+01 1.01910866435335e-02 1.39916678347946e-04
1.14953333333333e+01 1.00741408588641e-02 1.38657306769548e-04
1.15526666666667e+01 9.95853706258423e-03 1.37407561212747e-04
1.16100000000000e+01 9.84425985496009e-03 1.36167403225221e-04
1.16673333333333e+01 9.73129401201844e-03 1.34936792766080e-04
1.17246666666667e+01 9.61962448642164e-03 1.33715689122309e-04
1.17820000000000e+01 9.50923640252559e-03 1.32504051791591e-04
1.18393333333333e+01 9.40011505447861e-03 1.31301838804108e-04
1.18966666666667e+01 9.29224590702581e-03 1.30109007600171e-04
1.19540000000000e+01 9.18561459077677e-03 1.28925515875779e-04
1.20113333333333e+01 9.08020690036759e-03 1.27751319972323e-04
1.20686666666667e+01 8.97600879519961e-03 1.26586375717128e-04
1.21260000000000e+01 8.87300639490704e-03 1.25430639233448e-04
1.21833333333333e+01 8.77118597758020e-03 1.24284065395180e-04
1.22406666666667e+01 8.67053398044313e-03 1.23146608632026e-04
1.22980000000000e+01 8.57103699551198e-03 1.22018223705510e-04
1.23553333333333e+01 8.47268176787747e-03 1.20898864225950e-04
1.24126666666667e+01 8.37545519632563e-03 1.19788483423808e-04
1.24700000000000e+01 8.27934432917827e-03 1.18687034893273e-04
1.25273333333333e+01 8.18433636263267e-03 1.17594471168859e-04
1.25846666666667e+01 8.09041864132951e-03 1.16510744464467e-04
1.26420000000000e+01 7.99757865436708e-03 1.15435807385970e-04
1.26993333333333e+01 7.90580403369638e-03 1.14369611564923e-04
1.27566666666667e+01 7.81508255463985e-03 1.13312108366782e-04
1.28140000000000e+01 7.72540213207161e-03 1.12263249573861e-04
1.28713333333333e+01 7.63675081886602e-03 1.11222986073766e-04
1.29286666666667e+01 7.54911680637081e-03 1.10191268538131e-04
1.29860000000000e+01 7.46248842074571e-03 1.09168048077252e-04
1.30433333333333e+01 7.37685412146288e-03 1.08153274980963e-04
1.31006666666667e+01 7.29220250173756e-03 1.07146899369187e-04
1.31580000000000e+01 7.20852228501808e-03 1.06148871819497e-04
1.32153333333333e+01 7.12580232353639e-03 1.05159142158234e-04
1.32726666666667e+01 7.04403159869927e-03 1.04177660084123e-04
1.33300000000000e+01 6.96319921772293e-03 1.03204375769939e-04
1.33873333333333e+01 6.88329441223210e-03 1.02239238701777e-04
1.34446666666667e+01 6.80430653861449e-03 1.01282198276917e-04
1.35020000000000e+01 6.72622507479370e-03 1.00333204380719e-04
1.35593333333333e+01 6.64903961887510e-03 9.93922062720490e-05
1.36166666666667e+01 6.57273988946633e-03 9.84591531565086e-05
1.36740000000000e+01 6.49731572258229e-03 9.75339947396377e-05
1.37313333333333e+01 6.42275707033639e-03 9.66166801565967e-05
1.37886666666667e+01 6.34905400122942e-03 9.57071585218189e-05
1.38460000000000e+01 6.27619669718088e-03 9.48053794595552e-05
1.39033333333333e+01 6.20417545226407e-03 9.39112920759591e-05
1.39606666666667e+01 6.13298067296564e-03 9.30248454862074e-05
1.40180000000000e+01 6.06260287533775e-03 9.21459893233559e-05
1.40753333333333e+01 5.99303268377550e-03 9.12746727510919e-05
1.41326666666667e+01 5.92426083124932e-03 9.04108449692795e-05
1.41900000000000e+01 5.85627815657268e-03 8.95544557020550e-05
1.42473333333333e+01 5.78907560322049e-03 8.87054542495746e-05
1.43046666666667e+01 5.72264421953634e-03 8.78637899729222e-05
1.43620000000000e+01 5.65697515611064e-03 8.70294127623399e-05
1.44193333333333e+01 5.59205966463877e-03 8.62022721263607e-05
1.44766666666667e+01 5.52788909810486e-03 8.53823176569580e-05
1.45340000000000e+01 5.46445490826579e-03 8.45694994787559e-05
1.45913333333333e+01 5.40174864454761e-03 8.37637673740309e-05
1.46486666666667e+01 5.33976195420768e-03 8.29650712289396e-05
1.47060000000000e+01 5.27848657991991e-03 8.21733614645196e-05
1.47633333333333e+01 5.21791435870826e-03 8.13885881960917e-05
1.48206666666667e+01 5.15803722208881e-03 8.06107016613744e-05
1.48780000000000e+01 5.09884719375190e-03 7.98396526340477e-05
1.49353333333333e+01 5.04033638853148e-03 7.90753916161483e-05
1.49926666666667e+01 4.98249701252860e-03 7.83178692488470e-05
1.50500000000000e+01 4.92532136088641e-03 7.75670367093096e-05
1.51073333333333e+01 4.86880181679405e-03 7.68228449347413e-05
1.51646666666667e+01 4.81293085159304e-03 7.60852450165621e-05
1.52220000000000e+01 4.75770102264112e-03 7.53541885812711e-05
1.52793333333333e+01 4.70310497234961e-03 7.46296270448534e-05
1.53366666666667e+01 4.64913542827400e-03 7.39115119910496e-05
1.53940000000000e+01 4.59578520106284e-03 7.31997955369011e-05
1.54513333333333e+01 4.54304718352746e-03 7.24944296162933e-05
1.55086666666667e+01 4.49091435071798e-03 7.17953663429875e-05
1.55660000000000e+01 4.43937975795365e-03 7.11025583614823e-05
1.56233333333333e+01 4.38843653992391e-03 7.04159581585119e-05
1.56806666666667e+01 4.33807791075087e-03 6.97355184114902e-05
1.57380000000000e+01 4.28829716209778e-03 6.90611923253046e-05
1.57953333333333e+01 4.23908766230030e-03 6.83929329706353e-05
1.58526666666667e+01 4.19044285641655e-03 6.77306936184188e-05
1.59100000000000e+01 4.14235626441041e-03 6.70744280631601e-05
1.59673333333333e+01 4.09482148031204e-03 6.64240899870067e-05
1.60246666666667e+01 4.04783217225647e-03 6.57796332808057e-05
1.60820000000000e+01 4.00138208073861e-03 6.51410123544886e-05
1.61393333333333e+01 3.95546501780200e-03 6.45081815258719e-05
1.61966666666667e+01 3.91007486706694e-03 6.38810953288681e-05
1.62540000000000e+01 3.86520558205415e-03 6.32597088114843e-05
1.63113333333333e+01 3.82085118540091e-03 6.26439769483444e-05
1.63686666666667e+01 3.77700576887945e-03 6.20338549365916e-05
1.64260000000000e+01 3.73366349178656e-03 6.14292984820190e-05
1.64833333333333e+01 3.69081858018605e-03 6.08302632343566e-05
1.65406666666667e+01 3.64846532691837e-03 6.02367050713783e-05
1.65980000000000e+01 3.60659809005330e-03 5.96485803736554e-05
1.66553333333333e+01 3.56521129215799e-03 5.90658454817023e-05
1.67126666666667e+01 3.52429942029840e-03 5.84884569687726e-05
1.67700000000000e+01 3.48385702455260e-03 5.79163719046967e-05
1.68273333333333e+01 3.44387871730344e-03 5.73495473340222e-05
1.68846666666667e+01 3.40435917323260e-03 5.67879405379677e-05
1.69420000000000e+01 3.36529312789194e-03 5.62315092877893e-05
1.69993333333333e+01 3.32667537701999e-03 5.56802113430773e-05
1.70566666666667e+01 3.28850077652928e-03 5.51340047033112e-05
1.71140000000000e+01 3.25076424113333e-03 5.45928478511937e-05
1.71713333333333e+01 3.21346074368623e-03 5.40566992703044e-05
1.72286666666667e+01 3.17658531516375e-03 5.35255176866741e-05
1.72860000000000e+01 3.14013304334379e-03 5.29992623025000e-05
1.73433333333333e+01 3.10409907216818e-03 5.24778923323815e-05
1.74006666666667e+01 3.06847860171827e-03 5.19613672353338e-05
1.74580000000000e+01 3.03326688694652e-03 5.14496469392721e-05
1.75153333333333e+01 2.99845923705991e-03 5.09426913950921e-05
1.75726666666667e+01 2.96405101549037e-03 5.04404607995215e-05
1.76300000000000e+01 2.93003763867561e-03 4.99429158107415e-05
1.76873333333333e+01 2.89641457546326e-03 4.94500171196063e-05
1.77446666666667e+01 2.86317734707676e-03 4.89617256637021e-05
1.78020000000000e+01 2.83032152594330e-03 4.84780028344760e-05
1.78593333333333e+01 2.79784273511816e-03 4.79988100649191e-05
1.79166666666667e+01 2.76573664824634e-03 4.75241090351861e-05
1.79740000000000e+01 2.73399898843584e-03 4.70538618715716e-05
1.80313333333333e+01 2.70262552770141e-03 4.65880307500116e-05
1.80886666666667e+01 2.67161208692247e-03 4.61265780936074e-05
