Energy (eV)          EEDF (eV^-(3/2))     First Anisotropy
5.41304347826087e-02 5.78204621990655e-02 4.50211722803705e-05
1.62391304347826e-01 5.69589568112586e-02 7.40378111513971e-05
2.70652173913043e-01 5.61102875691429e-02 9.69337777803461e-05
3.78913043478261e-01 5.52742632110328e-02 1.13846129156374e-04
4.87173913043478e-01 5.44506953352996e-02 1.27558010849985e-04
5.95434782608696e-01 5.36393983423807e-02 1.39134702594166e-04
7.03695652173913e-01 5.28401894017088e-02 1.49133945150534e-04
8.11956521739130e-01 5.20528884041810e-02 1.57896363725992e-04
9.20217391304348e-01 5.12773179255177e-02 1.65650369848377e-04
1.02847826086957e+00 5.05133031858929e-02 1.72559149811605e-04
1.13673913043478e+00 4.97606720048666e-02 1.78744781074203e-04
1.24500000000000e+00 4.90192547746240e-02 1.84301843716703e-04
1.35326086956522e+00 4.82888844166752e-02 1.89305665122184e-04
1.46152173913043e+00 4.75693963302588e-02 1.93817590644658e-04
1.56978260869565e+00 4.68606283732639e-02 1.97888505310447e-04
1.67804347826087e+00 4.61624208194300e-02 2.01561273885806e-04
1.78630434782609e+00 4.54746163223544e-02 2.04872480560821e-04
1.89456521739130e+00 4.47970598800357e-02 2.07853702352699e-04
2.00282608695652e+00 4.41295987999444e-02 2.10532461593156e-04
2.11108695652174e+00 4.34720826646133e-02 2.12932952062800e-04
2.21934782608696e+00 4.28243632977414e-02 2.15076601900242e-04
2.32760869565217e+00 4.21862947308014e-02 2.16982516492956e-04
2.43586956521739e+00 4.15577331701456e-02 2.18667831580747e-04
2.54413043478261e+00 4.09385369646008e-02 2.20147998142191e-04
2.65239130434783e+00 4.03285665735406e-02 2.21437014723967e-04
2.76065217391304e+00 3.97276845354529e-02 2.22547618769727e-04
2.86891304347826e+00 3.91357554369544e-02 2.23491445594012e-04
2.97717391304348e+00 3.85526458822742e-02 2.24279161552419e-04
3.08543478260870e+00 3.79782244631925e-02 2.24920576439022e-04
3.19369565217391e+00 3.74123617294264e-02 2.25424739010515e-04
3.30195652173913e+00 3.68549301594582e-02 2.25800018692690e-04
3.41021739130435e+00 3.63058041317969e-02 2.26054175885717e-04
3.51847826086957e+00 3.57648598966688e-02 2.26194422795682e-04
3.62673913043478e+00 3.52319755481296e-02 2.26227476342251e-04
3.73500000000000e+00 3.47070309965921e-02 2.26159604253156e-04
3.84326086956522e+00 3.41899079431144e-02 2.25996666101000e-04
3.95152173913044e+00 3.36804898486108e-02 2.25744148798257e-04
4.05978260869565e+00 3.31786619117976e-02 2.25407197979629e-04
4.16804347826087e+00 3.26843110418913e-02 2.24990646619008e-04
4.27630434782609e+00 3.21973258331222e-02 2.24499039982360e-04
4.38456521739130e+00 3.17175965396287e-02 2.23936658095054e-04
4.49282608695652e+00 3.12450150507252e-02 2.23307535909956e-04
4.60108695652174e+00 3.07794748665384e-02 2.22615481466564e-04
4.70934782608696e+00 3.03208710740070e-02 2.21864092288378e-04
4.81760869565217e+00 2.98691003232386e-02 2.21056770229959e-04
4.92586956521739e+00 2.94240608042190e-02 2.20196734955241e-04
5.03413043478261e+00 2.89856522238688e-02 2.19287036203762e-04
5.14239130434783e+00 2.85537757834401e-02 2.18330564979587e-04
5.25065217391304e+00 2.81283341562542e-02 2.17330063781207e-04
5.35891304347826e+00 2.77092314657670e-02 2.16288135974751e-04
5.46717391304348e+00 2.72963732639623e-02 2.15207254399161e-04
5.57543478260870e+00 2.68896665100673e-02 2.14089769282346e-04
5.68369565217391e+00 2.64890195495852e-02 2.12937915536965e-04
5.79195652173913e+00 2.60943420936400e-02 2.11753819496569e-04
5.90021739130435e+00 2.57055451986298e-02 2.10539505145747e-04
6.00847826086957e+00 2.53225412461818e-02 2.09296899891758e-04
6.11673913043478e+00 2.49452439234075e-02 2.08027839919822e-04
6.22500000000000e+00 2.45735682034512e-02 2.06734075090012e-04
6.33326086956522e+00 2.42074303269057e-02 2.05417273810636e-04
6.44152173913043e+00 2.38467477811787e-02 2.04079027191308e-04
6.54978260869565e+00 2.34914392836831e-02 2.02720852903924e-04
6.65804347826087e+00 2.31414247629149e-02 2.01344199198647e-04
6.76630434782609e+00 2.27966253404082e-02 1.99950448339412e-04
6.87456521739130e+00 2.24569633129597e-02 1.98540919901731e-04
6.98282608695652e+00 2.21223621351175e-02 1.97116873865117e-04
7.09108695652174e+00 2.17927464019310e-02 1.95679513516143e-04
7.19934782608696e+00 2.14680418319579e-02 1.94229988176660e-04
7.30760869565217e+00 2.11481752505241e-02 1.92769395770283e-04
7.41586956521739e+00 2.08330745732336e-02 1.91298785239142e-04
7.52413043478261e+00 2.05226687897235e-02 1.89819158821837e-04
7.63239130434783e+00 2.02168879476608e-02 1.88331474202320e-04
7.74065217391304e+00 1.99156631369791e-02 1.86836646539060e-04
7.84891304347826e+00 1.96189264743487e-02 1.85335550382840e-04
7.95717391304348e+00 1.93266110878786e-02 1.83829021490459e-04
8.06543478260870e+00 1.90386511020461e-02 1.82317858541591e-04
8.17369565217391e+00 1.87549816228519e-02 1.80802824765166e-04
8.28195652173913e+00 1.84755387231952e-02 1.79284649481150e-04
8.39021739130435e+00 1.82002594284672e-02 1.77764029563194e-04
8.49847826086957e+00 1.79290817023598e-02 1.76241630827149e-04
8.60673913043478e+00 1.76619444328848e-02 1.74718089350081e-04
8.71500000000000e+00 1.73987874186020e-02 1.73194012676338e-04
8.82326086956522e+00 1.71395513553447e-02 1.71669981154970e-04
8.93152173913044e+00 1.68841778219657e-02 1.70146548977284e-04
9.03978260869565e+00 1.66326092680736e-02 1.68624245157760e-04
9.14804347826087e+00 1.63847890007583e-02 1.67103574714885e-04
9.25630434782609e+00 1.61406611718149e-02 1.65585019601874e-04
9.36456521739131e+00 1.59001707651579e-02 1.64069039642976e-04
9.47282608695652e+00 1.56632635844229e-02 1.62556073426986e-04
9.58108695652174e+00 1.54298862407530e-02 1.61046539160330e-04
9.68934782608696e+00 1.51999861407672e-02 1.59540835481911e-04
9.79760869565217e+00 1.49735114747082e-02 1.58039342241808e-04
9.90586956521739e+00 1.47504112047665e-02 1.56542421245765e-04
1.00141304347826e+01 1.45306350535788e-02 1.55050417079708e-04
1.01223913043478e+01 1.43141334922540e-02 1.53563657194832e-04
1.02306521739130e+01 1.41008577326176e-02 1.52082453669007e-04
1.03389130434783e+01 1.38907597092250e-02 1.50607103329488e-04
1.04471739130435e+01 1.36837920749026e-02 1.49137887119808e-04
1.05554347826087e+01 1.34799081898580e-02 1.47675072863393e-04
1.06636956521739e+01 1.32790621053362e-02 1.46218914731916e-04
1.07719565217391e+01 1.30812085591591e-02 1.44769653053761e-04
1.08802173913043e+01 1.28863029635380e-02 1.43327515582053e-04
1.09884782608696e+01 1.26943013967737e-02 1.41892718579330e-04
1.10967391304348e+01 1.25051605880624e-02 1.40465466640033e-04
1.12050000000000e+01 1.23188379130930e-02 1.39045952170980e-04
1.13132608695652e+01 1.21352913842642e-02 1.37634357728638e-04
1.14215217391304e+01 1.19544796363102e-02 1.36230855490692e-04
1.15297826086957e+01 1.17763619219362e-02 1.34835606742705e-04
1.16380434782609e+01 1.16008981024720e-02 1.33448764053653e-04
1.17463043478261e+01 1.14280486342711e-02 1.32070470756507e-04
1.18545652173913e+01 1.12577745643997e-02 1.30700860710308e-04
1.19628260869565e+01 1.10900375203098e-02 1.29340059264264e-04
1.20710869565217e+01 1.09247997025585e-02 1.27988184076759e-04
1.21793478260870e+01 1.07620238721421e-02 1.26645344899748e-04
1.22876086956522e+01 1.06016733462952e-02 1.25311643087222e-04
1.23958695652174e+01 1.04437119900857e-02 1.23987173453672e-04
1.25041304347826e+01 1.02881042044157e-02 1.22672023779943e-04
1.26123913043478e+01 1.01348149218913e-02 1.21366274334255e-04
1.27206521739130e+01 9.98380959879550e-03 1.20069999608527e-04
1.28289130434783e+01 9.83505420371622e-03 1.18783267839624e-04
1.29371739130435e+01 9.68851521349830e-03 1.17506140545252e-04
1.30454347826087e+01 9.54415960557096e-03 1.16238674147713e-04
1.31536956521739e+01 9.40195484716945e-03 1.14980919509789e-04
1.32619565217391e+01 9.26186889137489e-03 1.13732921693048e-04
1.33702173913043e+01 9.12387016875571e-03 1.12494720650502e-04
1.34784782608696e+01 8.98792758126043e-03 1.11266351810361e-04
1.35867391304348e+01 8.85401049215875e-03 1.10047845858374e-04
1.36950000000000e+01 8.72208872221850e-03 1.08839228306743e-04
1.38032608695652e+01 8.59213254280704e-03 1.07640520893722e-04
1.39115217391304e+01 8.46411266634689e-03 1.06451741154677e-04
1.40197826086957e+01 8.33800024258716e-03 1.05272902006586e-04
1.41280434782609e+01 8.21376685201161e-03 1.04104013060211e-04
1.42363043478261e+01 8.09138449678123e-03 1.02945080207261e-04
1.43445652173913e+01 7.97082559710386e-03 1.01796105391810e-04
1.44528260869565e+01 7.85206298411708e-03 1.00657087156543e-04
1.45610869565217e+01 7.73506989456633e-03 9.95280211005390e-05
1.46693478260870e+01 7.61981996234393e-03 9.84088996735211e-05
1.47776086956522e+01 7.50628721500245e-03 9.72997117951591e-05
1.48858695652174e+01 7.39444606782412e-03 9.62004439916604e-05
1.49941304347826e+01 7.28427131578557e-03 9.51110800179119e-05
1.51023913043478e+01 7.17573813016883e-03 9.40316004915699e-05
1.52106521739130e+01 7.06882205289604e-03 9.29619839607310e-05
1.53189130434783e+01 6.96349898889605e-03 9.19022065418680e-05
1.54271739130435e+01 6.85974520281608e-03 9.08522415691300e-05
1.55354347826087e+01 6.75753731360590e-03 8.98120605977901e-05
1.56436956521739e+01 6.65685228726698e-03 8.87816330568304e-05
1.57519565217391e+01 6.55766743366395e-03 8.77609260474301e-05
1.58602173913043e+01 6.45996040073628e-03 8.67499047489860e-05
1.59684782608696e+01 6.36370917006210e-03 8.57485327571307e-05
1.60767391304348e+01 6.26889205007567e-03 8.47567719021536e-05
1.61850000000000e+01 6.17548767301772e-03 8.37745819302344e-05
1.62932608695652e+01 6.08347499006393e-03 8.28019213768254e-05
1.64015217391304e+01 5.99283326487724e-03 8.18387472515430e-05
1.65097826086957e+01 5.90354207065521e-03 8.08850147329615e-05
1.66180434782609e+01 5.81558128547436e-03 7.99406779906470e-05
1.67263043478261e+01 5.72893108616035e-03 7.90056898836517e-05
1.68345652173913e+01 5.64357194543172e-03 7.80800017803701e-05
1.69428260869565e+01 5.55948462695698e-03 7.71635638848693e-05
1.70510869565217e+01 5.47665018150323e-03 7.62563255072908e-05
1.71593478260870e+01 5.39504994119864e-03 7.53582349013024e-05
1.72676086956522e+01 5.31466551680799e-03 7.44692389880702e-05
1.73758695652174e+01 5.23547879354318e-03 7.35892840737621e-05
1.74841304347826e+01 5.15747192560596e-03 7.27183155768441e-05
1.75923913043478e+01 5.08062733355441e-03 7.18562777639275e-05
1.77006521739130e+01 5.00492770030016e-03 7.10031144258819e-05
1.78089130434783e+01 4.93035596591630e-03 7.01587686174101e-05
1.79171739130435e+01 4.85689532509467e-03 6.93231824047204e-05
1.80254347826087e+01 4.78452922331919e-03 6.84962975028523e-05
1.81336956521739e+01 4.71324135192679e-03 6.76780550266181e-05
1.82419565217391e+01 4.64301564565301e-03 6.68683953380343e-05
1.83502173913043e+01 4.57383627860016e-03 6.60672582935084e-05
1.84584782608696e+01 4.50568766103852e-03 6.52745834474292e-05
1.85667391304348e+01 4.43855443477916e-03 6.44903099142458e-05
1.86750000000000e+01 4.37242147083794e-03 6.37143761408210e-05
1.87832608695652e+01 4.30727386599263e-03 6.29467204643621e-05
1.88915217391304e+01 4.24309693837868e-03 6.21872808880037e-05
1.89997826086957e+01 4.17987622523630e-03 6.14359948633491e-05
1.91080434782609e+01 4.11759747961988e-03 6.06927998168750e-05
1.92163043478261e+01 4.05624666620581e-03 5.99576329356250e-05
1.93245652173913e+01 3.99580995912081e-03 5.92304310334650e-05
1.94328260869565e+01 3.93627373849247e-03 5.85111307519797e-05
1.95410869565217e+01 3.87762458767848e-03 5.77996687252136e-05
1.96493478260870e+01 3.81984928933757e-03 5.70959814585848e-05
1.97576086956522e+01 3.76293482336579e-03 5.64000051331438e-05
1.98658695652174e+01 3.70686836393509e-03 5.57116760672425e-05
1.99741304347826e+01 3.65163727575214e-03 5.50309305235720e-05
2.00823913043478e+01 3.59722911206989e-03 5.43577045221393e-05
2.01906521739130e+01 3.54363161185767e-03 5.36919342761946e-05
2.02989130434783e+01 3.49083269623828e-03 5.30335560081543e-05
2.04071739130435e+01 3.43882046657344e-03 5.23825057711651e-05
2.05154347826087e+01 3.38758320175843e-03 5.17387198608185e-05
2.06236956521739e+01 3.33710935482934e-03 5.11021346393265e-05
2.07319565217391e+01 3.28738755111995e-03 5.04726864239838e-05
2.08402173913043e+01 3.23840658544256e-03 4.98503116411019e-05
2.09484782608696e+01 3.19015541979206e-03 4.92349469515258e-05
2.10567391304348e+01 3.14262318016405e-03 4.86265291494652e-05
2.11650000000000e+01 3.09579915480560e-03 4.80249950019776e-05
2.12732608695652e+01 3.04967279178091e-03 4.74302816107710e-05
2.13815217391304e+01 3.00423369594009e-03 4.68423262541814e-05
2.14897826086957e+01 2.95947162723610e-03 4.62610662339629e-05
2.15980434782609e+01 2.91537649839794e-03 4.56864392172143e-05
2.17063043478261e+01 2.87193837204295e-03 4.51183830855774e-05
2.18145652173913e+01 2.82914745905791e-03 4.45568358382791e-05
2.19228260869565e+01 2.78699411618411e-03 4.40017357181212e-05
2.20310869565217e+01 2.74546884403150e-03 4.34530213137757e-05
2.21393478260870e+01 2.70456228436977e-03 4.29106314717184e-05
2.22476086956522e+01 2.66426521859343e-03 4.23745051585778e-05
2.23558695652174e+01 2.62456856562764e-03 4.18445817619964e-05
2.24641304347826e+01 2.58546337934677e-03 4.13208009550846e-05
2.25723913043478e+01 2.54694084709843e-03 4.08031025649805e-05
2.26806521739130e+01 2.50899228770212e-03 4.02914268573434e-05
2.27889130434783e+01 2.47160914898902e-03 3.97857144070937e-05
2.28971739130435e+01 2.43478300638341e-03 3.92859059730443e-05
2.30054347826087e+01 2.39850556098932e-03 3.87919427669610e-05
2.31136956521739e+01 2.36276863724618e-03 3.83037663301587e-05
2.32219565217391e+01 2.32756418156542e-03 3.78213184531883e-05
2.33302173913043e+01 2.29288426035415e-03 3.73445412731076e-05
2.34384782608696e+01 2.25872105837219e-03 3.68733773520130e-05
2.35467391304348e+01 2.22506687653172e-03 3.64077696039735e-05
2.36550000000000e+01 2.19191413060579e-03 3.59476611823879e-05
2.37632608695652e+01 2.15925534950644e-03 3.54929957170684e-05
2.38715217391304e+01 2.12708317318723e-03 3.50437172034310e-05
2.39797826086957e+01 2.09539035140244e-03 3.45997698950060e-05
2.40880434782609e+01 2.06416974206125e-03 3.41610985277645e-05
2.41963043478261e+01 2.03341430922829e-03 3.37276482143947e-05
2.43045652173913e+01 2.00311712193185e-03 3.32993643747740e-05
2.44128260869565e+01 1.97327135246938e-03 3.28761928159544e-05
2.45210869565217e+01 1.94387027498792e-03 3.24580797964624e-05
2.46293478260870e+01 1.91490726360712e-03 3.20449719629691e-05
2.47376086956522e+01 1.88637579129109e-03 3.16368162537793e-05
2.48458695652174e+01 1.85826942836692e-03 3.12335600966843e-05
2.49541304347826e+01 1.83058184073517e-03 3.08351513139982e-05
2.50623913043478e+01 1.80330678878634e-03 3.04415380304214e-05
2.51706521739130e+01 1.77643812598504e-03 3.00526688603272e-05
2.52789130434783e+01 1.74996979716358e-03 2.96684928172025e-05
2.53871739130435e+01 1.72389583748180e-03 2.92889592257673e-05
2.54954347826087e+01 1.69821037107354e-03 2.89140178992846e-05
2.56036956521739e+01 1.67290760941964e-03 2.85436190531171e-05
2.57119565217391e+01 1.64798185034945e-03 2.81777132473173e-05
2.58202173913044e+01 1.62342747665264e-03 2.78162514487015e-05
2.59284782608696e+01 1.59923895490613e-03 2.74591850804623e-05
2.60367391304348e+01 1.57541083394613e-03 2.71064659698096e-05
2.61450000000000e+01 1.55193774392338e-03 2.67580462690345e-05
2.62532608695652e+01 1.52881439508509e-03 2.64138786120660e-05
2.63615217391304e+01 1.50603557631773e-03 2.60739160368709e-05
2.64697826086957e+01 1.48359615424032e-03 2.57381119101312e-05
2.65780434782609e+01 1.46149107204007e-03 2.54064200755134e-05
2.66863043478261e+01 1.43971534808267e-03 2.50787947796259e-05
2.67945652173913e+01 1.41826407504227e-03 2.47551906224233e-05
2.69028260869565e+01 1.39713241871050e-03 2.44355626084161e-05
2.70110869565217e+01 1.37631561698361e-03 2.41198661874190e-05
2.71193478260870e+01 1.35580897855723e-03 2.38080572092645e-05
2.72276086956522e+01 1.33560788210356e-03 2.35000918561883e-05
2.73358695652174e+01 1.31570777522335e-03 2.31959267738334e-05
2.74441304347826e+01 1.29610417320086e-03 2.28955190047545e-05
2.75523913043478e+01 1.27679265821441e-03 2.25988259238683e-05
2.76606521739130e+01 1.25776887833468e-03 2.23058053625640e-05
2.77689130434783e+01 1.23902854633707e-03 2.20164155452829e-05
2.78771739130435e+01 1.22056743894444e-03 2.17306150279421e-05
2.79854347826087e+01 1.20238139586947e-03 2.14483628155279e-05
2.80936956521739e+01 1.18446631868187e-03 2.11696183015548e-05
2.82019565217391e+01 1.16681817008199e-03 2.08943412271844e-05
2.83102173913043e+01 1.14943297292456e-03 2.06224917211100e-05
2.84184782608696e+01 1.13230680938229e-03 2.03540303311006e-05
2.85267391304348e+01 1.11543581988154e-03 2.00889179866254e-05
2.86350000000000e+01 1.09881620241575e-03 1.98271159435527e-05
2.87432608695652e+01 1.08244421168352e-03 1.95685858881392e-05
2.88515217391304e+01 1.06631615807326e-03 1.93132898826800e-05
2.89597826086957e+01 1.05042840700469e-03 1.90611903127336e-05
2.90680434782609e+01 1.03477737810497e-03 1.88122499856776e-05
2.91763043478261e+01 1.01935954423996e-03 1.85664320788455e-05
2.92845652173913e+01 1.00417143088287e-03 1.83237001042476e-05
2.93928260869565e+01 9.89209615276154e-04 1.80840179415513e-05
2.95010869565217e+01 9.74470725709823e-04 1.78473498640423e-05
2.96093478260870e+01 9.59951440611186e-04 1.76136605063402e-05
2.97176086956522e+01 9.45648487948247e-04 1.73829148170157e-05
2.98258695652174e+01 9.31558644488081e-04 1.71550781457948e-05
2.99341304347826e+01 9.17678734928331e-04 1.69301161969801e-05
3.00423913043478e+01 9.04005631325144e-04 1.67079949842128e-05
3.01506521739130e+01 8.90536252384325e-04 1.64886809131436e-05
3.02589130434783e+01 8.77267562632586e-04 1.62721407369979e-05
3.03671739130435e+01 8.64196571869151e-04 1.60583415134170e-05
3.04754347826087e+01 8.51320334488111e-04 1.58472506828364e-05
3.05836956521739e+01 8.38635948687661e-04 1.56388360260656e-05
3.06919565217391e+01 8.26140555944405e-04 1.54330656352271e-05
3.08002173913044e+01 8.13831340325962e-04 1.52299079395130e-05
3.09084782608696e+01 8.01705527895334e-04 1.50293317253252e-05
3.10167391304348e+01 7.89760385967740e-04 1.48313061096526e-05
3.11250000000000e+01 7.77993222614008e-04 1.46358005013047e-05
3.12332608695652e+01 7.66401386050641e-04 1.44427846703088e-05
3.13415217391304e+01 7.54982263930598e-04 1.42522287098224e-05
3.14497826086957e+01 7.43733282867293e-04 1.40641029991319e-05
3.15580434782609e+01 7.32651907851561e-04 1.38783782694625e-05
3.16663043478261e+01 7.21735641574835e-04 1.36950255676270e-05
3.17745652173913e+01 7.10982023972954e-04 1.35140162309628e-05
3.18828260869565e+01 7.00388631635881e-04 1.33353219086635e-05
3.19910869565217e+01 6.89953077293947e-04 1.31589145783763e-05
3.20993478260870e+01 6.79673009181703e-04 1.29847665232207e-05
3.22076086956522e+01 6.69546110607099e-04 1.28128502985621e-05
3.23158695652174e+01 6.59570099426647e-04 1.26431387903089e-05
3.24241304347826e+01 6.49742727438288e-04 1.24756051822590e-05
3.25323913043478e+01 6.40061779968489e-04 1.23102229243746e-05
3.26406521739130e+01 6.30525075370603e-04 1.21469657880762e-05
3.27489130434783e+01 6.21130464445372e-04 1.19858078350880e-05
3.28571739130435e+01 6.11875830045293e-04 1.18267233871645e-05
3.29654347826087e+01 6.02759086595055e-04 1.16696870785408e-05
3.30736956521739e+01 5.93778179538466e-04 1.15146738261867e-05
3.31819565217391e+01 5.84931084959367e-04 1.13616588091686e-05
3.32902173913044e+01 5.76215809097252e-04 1.12106174853372e-05
3.33984782608696e+01 5.67630387923484e-04 1.10615256042207e-05
3.35067391304348e+01 5.59172886621364e-04 1.09143591880841e-05
3.36150000000000e+01 5.50841399228202e-04 1.07690945047295e-05
3.37232608695652e+01 5.42634048203660e-04 1.06257081139864e-05
3.38315217391304e+01 5.34548983933455e-04 1.04841768409955e-05
3.39397826086957e+01 5.26584384386432e-04 1.03444777502466e-05
3.40480434782609e+01 5.18738454701936e-04 1.02065881896846e-05
3.41563043478261e+01 5.11009426716084e-04 1.00704857652086e-05
