Energy (eV)          EEDF (eV^-(3/2))     First Anisotropy
3.72619047619048e-02 4.11281930076611e-02 2.37793560532566e-05
1.11785714285714e-01 4.07916976469457e-02 3.92377535484199e-05
1.86309523809524e-01 4.04579553643649e-02 5.17222473603931e-05
2.60833333333333e-01 4.01269436343209e-02 6.11606652045287e-05
3.35357142857143e-01 3.97986401183263e-02 6.89943222422306e-05
4.09880952380952e-01 3.94730226573790e-02 7.57692104621879e-05
4.84404761904762e-01 3.91500692761491e-02 8.17683977174504e-05
5.58928571428571e-01 3.88297581773406e-02 8.71631250492930e-05
6.33452380952381e-01 3.85120677434348e-02 9.20671622131956e-05
7.07976190476190e-01 3.81969765325819e-02 9.65610595098565e-05
7.82500000000000e-01 3.78844632793951e-02 1.00704547659439e-04
8.57023809523810e-01 3.75745068915710e-02 1.04543509861570e-04
9.31547619047619e-01 3.72670864501778e-02 1.08114188174681e-04
1.00607142857143e+00 3.69621812067156e-02 1.11445863644808e-04
1.08059523809524e+00 3.66597705839129e-02 1.14562640415736e-04
1.15511904761905e+00 3.63598341705646e-02 1.17484676160074e-04
1.22964285714286e+00 3.60623517236463e-02 1.20229056422953e-04
1.30416666666667e+00 3.57673031657504e-02 1.22810432495738e-04
1.37869047619048e+00 3.54746685837318e-02 1.25241496319563e-04
1.45321428571429e+00 3.51844282273647e-02 1.27533341176042e-04
1.52773809523810e+00 3.48965625080100e-02 1.29695740174204e-04
1.60226190476190e+00 3.46110519972941e-02 1.31737364467374e-04
1.67678571428571e+00 3.43278774257916e-02 1.33665956508673e-04
1.75130952380952e+00 3.40470196817380e-02 1.35488469248771e-04
1.82583333333333e+00 3.37684598097330e-02 1.37211179172526e-04
1.90035714285714e+00 3.34921790094608e-02 1.38839778982982e-04
1.97488095238095e+00 3.32181586344224e-02 1.40379454274944e-04
2.04940476190476e+00 3.29463801906764e-02 1.41834947479396e-04
2.12392857142857e+00 3.26768253355913e-02 1.43210611590839e-04
2.19845238095238e+00 3.24094758766076e-02 1.44510455621520e-04
2.27297619047619e+00 3.21443137700102e-02 1.45738183302030e-04
2.34750000000000e+00 3.18813211197101e-02 1.46897226074907e-04
2.42202380952381e+00 3.16204801771256e-02 1.47990772100133e-04
2.49654761904762e+00 3.13617733366709e-02 1.49021790653263e-04
2.57107142857143e+00 3.11051831379322e-02 1.49993053305459e-04
2.64559523809524e+00 3.08506922633496e-02 1.50907153174302e-04
2.72011904761905e+00 3.05982835370488e-02 1.51766521240526e-04
2.79464285714286e+00 3.03479399236816e-02 1.52573440862266e-04
2.86916666666667e+00 3.00996445272763e-02 1.53330060609256e-04
2.94369047619048e+00 2.98533805900973e-02 1.54038405651853e-04
3.01821428571429e+00 2.96091314915145e-02 1.54700387901574e-04
3.09273809523809e+00 2.93668807468811e-02 1.55317815068876e-04
3.16726190476190e+00 2.91266120064213e-02 1.55892398778467e-04
3.24178571428571e+00 2.88883090541257e-02 1.56425761860352e-04
3.31630952380952e+00 2.86519558066594e-02 1.56919444919224e-04
3.39083333333333e+00 2.84175363122748e-02 1.57374912269104e-04
3.46535714285714e+00 2.81850347497357e-02 1.57793557306945e-04
3.53988095238095e+00 2.79544354272490e-02 1.58176707390538e-04
3.61440476190476e+00 2.77257227814058e-02 1.58525628276341e-04
3.68892857142857e+00 2.74988813761311e-02 1.58841528165708e-04
3.76345238095238e+00 2.72738959016418e-02 1.59125561401738e-04
3.83797619047619e+00 2.70507511734139e-02 1.59378831853678e-04
3.91250000000000e+00 2.68294321311569e-02 1.59602395921829e-04
3.98702380952381e+00 2.66099238383507e-02 1.59797265690702e-04
4.06154761904762e+00 2.63922114795609e-02 1.59964411352957e-04
4.13607142857143e+00 2.61762803611346e-02 1.60104763427138e-04
4.21059523809524e+00 2.59621159096364e-02 1.60219215302200e-04
4.28511904761905e+00 2.57497036708654e-02 1.60308625202902e-04
4.35964285714286e+00 2.55390293088794e-02 1.60373818106616e-04
4.43416666666667e+00 2.53300786050273e-02 1.60415587521832e-04
4.50869047619048e+00 2.51228374569897e-02 1.60434697140676e-04
4.58321428571429e+00 2.49172918778268e-02 1.60431882376434e-04
4.65773809523809e+00 2.47134279950349e-02 1.60407851796021e-04
4.73226190476190e+00 2.45112320496095e-02 1.60363288456322e-04
4.80678571428571e+00 2.43106903951169e-02 1.60298851152062e-04
4.88130952380952e+00 2.41117894967736e-02 1.60215175582880e-04
4.95583333333333e+00 2.39145159305327e-02 1.60112875446104e-04
5.03035714285714e+00 2.37188563821775e-02 1.59992543460705e-04
5.10488095238095e+00 2.35247976464235e-02 1.59854752328096e-04
5.17940476190476e+00 2.33323266260265e-02 1.59700055634562e-04
5.25392857142857e+00 2.31414303308991e-02 1.59528988699743e-04
5.32845238095238e+00 2.29520958772340e-02 1.59342069375151e-04
5.40297619047619e+00 2.27643104866341e-02 1.59139798796434e-04
5.47750000000000e+00 2.25780614852503e-02 1.58922662021955e-04
5.55202380952381e+00 2.23933363032592e-02 1.58691128916019e-04
5.62654761904762e+00 2.22101224730062e-02 1.58445654637753e-04
5.70107142857143e+00 2.20284076291823e-02 1.58186680093947e-04
5.77559523809524e+00 2.18481795076466e-02 1.57914632723716e-04
5.85011904761905e+00 2.16694259445989e-02 1.57629926960641e-04
5.92464285714286e+00 2.14921348757585e-02 1.57332964740464e-04
5.99916666666667e+00 2.13162943355501e-02 1.57024135982618e-04
6.07369047619048e+00 2.11418924562963e-02 1.56703819047237e-04
6.14821428571429e+00 2.09689174674164e-02 1.56372381169307e-04
6.22273809523810e+00 2.07973576946321e-02 1.56030178871289e-04
6.29726190476190e+00 2.06272015591798e-02 1.55677558355665e-04
6.37178571428571e+00 2.04584375770285e-02 1.55314855878439e-04
6.44630952380952e+00 2.02910543581056e-02 1.54942398104947e-04
6.52083333333333e+00 2.01250406055277e-02 1.54560502449083e-04
6.59535714285714e+00 1.99603851148383e-02 1.54169477396658e-04
6.66988095238095e+00 1.97970767732513e-02 1.53769622813994e-04
6.74440476190476e+00 1.96351045589014e-02 1.53361230242586e-04
6.81892857142857e+00 1.94744575400999e-02 1.52944583180585e-04
6.89345238095238e+00 1.93151248745973e-02 1.52519957351900e-04
6.96797619047619e+00 1.91570958088510e-02 1.52087620963556e-04
7.04250000000000e+00 1.90003596772998e-02 1.51647834899405e-04
7.11702380952381e+00 1.88449059018625e-02 1.51200853114663e-04
7.19154761904762e+00 1.86907239905633e-02 1.50746922755355e-04
7.26607142857143e+00 1.85378035374901e-02 1.50286284267102e-04
7.34059523809524e+00 1.83861342218679e-02 1.49819171765207e-04
7.41511904761905e+00 1.82357058073624e-02 1.49345813179228e-04
7.48964285714286e+00 1.80865081413892e-02 1.48866430444147e-04
7.56416666666667e+00 1.79385311544283e-02 1.48381239683899e-04
7.63869047619048e+00 1.77917648593450e-02 1.47890451387686e-04
7.71321428571428e+00 1.76461993507154e-02 1.47394270579447e-04
7.78773809523809e+00 1.75018248041578e-02 1.46892896980803e-04
7.86226190476190e+00 1.73586314756704e-02 1.46386525167805e-04
7.93678571428571e+00 1.72166097009724e-02 1.45875344721703e-04
8.01130952380952e+00 1.70757498948532e-02 1.45359540374148e-04
8.08583333333333e+00 1.69360425505243e-02 1.44839292147094e-04
8.16035714285714e+00 1.67974782389785e-02 1.44314775487463e-04
8.23488095238095e+00 1.66600476083529e-02 1.43786161396997e-04
8.30940476190476e+00 1.65237413832982e-02 1.43253616557470e-04
8.38392857142857e+00 1.63885503643523e-02 1.42717303451416e-04
8.45845238095238e+00 1.62544654273199e-02 1.42177380478622e-04
8.53297619047619e+00 1.61214775226562e-02 1.41634002068592e-04
8.60750000000000e+00 1.59895776748564e-02 1.41087318749099e-04
8.68202380952381e+00 1.58587569820002e-02 1.40537477371850e-04
8.75654761904762e+00 1.57290066146964e-02 1.39984621132840e-04
8.83107142857143e+00 1.56003178159454e-02 1.39428889588243e-04
8.90559523809524e+00 1.54726819003940e-02 1.38870418872716e-04
8.98011904761905e+00 1.53460902537492e-02 1.38309341749428e-04
9.05464285714286e+00 1.52205343321970e-02 1.37745787698592e-04
9.12916666666667e+00 1.50960056618256e-02 1.37179883003163e-04
9.20369047619048e+00 1.49724958380536e-02 1.36611750831742e-04
9.27821428571428e+00 1.48499965250626e-02 1.36041511318838e-04
9.35273809523810e+00 1.47284994552349e-02 1.35469281642626e-04
9.42726190476190e+00 1.46079964285950e-02 1.34895176100295e-04
9.50178571428571e+00 1.44884793122568e-02 1.34319306180968e-04
9.57630952380952e+00 1.43699400398743e-02 1.33741780636429e-04
9.65083333333333e+00 1.42523706110973e-02 1.33162705549726e-04
9.72535714285714e+00 1.41357630910313e-02 1.32582184401628e-04
9.79988095238095e+00 1.40201096097025e-02 1.32000318135136e-04
9.87440476190476e+00 1.39054023615258e-02 1.31417205218016e-04
9.94892857142857e+00 1.37916336047788e-02 1.30832941703524e-04
1.00234523809524e+01 1.36787956610787e-02 1.30247621321222e-04
1.00979761904762e+01 1.35668809147533e-02 1.29661335406352e-04
1.01725000000000e+01 1.34558818127724e-02 1.29074173084120e-04
1.02470238095238e+01 1.33457908636755e-02 1.28486221388354e-04
1.03215476190476e+01 1.32366006372946e-02 1.27897565149918e-04
1.03960714285714e+01 1.31283037642530e-02 1.27308287114144e-04
1.04705952380952e+01 1.30208929354680e-02 1.26718467990496e-04
1.05451190476190e+01 1.29143609016566e-02 1.26128186792371e-04
1.06196428571429e+01 1.28087004718558e-02 1.25537520002164e-04
1.06941666666667e+01 1.27039045159351e-02 1.24946542207958e-04
1.07686904761905e+01 1.25999659610921e-02 1.24355326746046e-04
1.08432142857143e+01 1.24968777923918e-02 1.23763944841314e-04
1.09177380952381e+01 1.23946330522929e-02 1.23172465952147e-04
1.09922619047619e+01 1.22932248401779e-02 1.22580957811431e-04
1.10667857142857e+01 1.21926463118869e-02 1.21989486465699e-04
1.11413095238095e+01 1.20928906792574e-02 1.21398116313735e-04
1.12158333333333e+01 1.19939512096648e-02 1.20806910144729e-04
1.12903571428571e+01 1.18958212255688e-02 1.20215929174616e-04
1.13648809523810e+01 1.17984941040619e-02 1.19625233338493e-04
1.14394047619048e+01 1.17019632755830e-02 1.19034880549775e-04
1.15139285714286e+01 1.16062222260138e-02 1.18444927253962e-04
1.15884523809524e+01 1.15112644936788e-02 1.17855428987962e-04
1.16629761904762e+01 1.14170836697695e-02 1.17266439618317e-04
1.17375000000000e+01 1.13236733979120e-02 1.16678011639116e-04
1.18120238095238e+01 1.12310273737375e-02 1.16090196202434e-04
1.18865476190476e+01 1.11391393444571e-02 1.15503043147901e-04
1.19610714285714e+01 1.10480031084406e-02 1.14916601031965e-04
1.20355952380952e+01 1.09576125147970e-02 1.14330917156315e-04
1.21101190476190e+01 1.08679614629598e-02 1.13746037824684e-04
1.21846428571429e+01 1.07790439015480e-02 1.13162007677355e-04
1.22591666666667e+01 1.06908538301556e-02 1.12578870181539e-04
1.23336904761905e+01 1.06033852967317e-02 1.11996668127000e-04
1.24082142857143e+01 1.05166323979228e-02 1.11415442942361e-04
1.24827380952381e+01 1.04305892786744e-02 1.10835234957421e-04
1.25572619047619e+01 1.03452501318361e-02 1.10256083427187e-04
1.26317857142857e+01 1.02606091977688e-02 1.09678026554810e-04
1.27063095238095e+01 1.01766607639572e-02 1.09101101514340e-04
1.27808333333333e+01 1.00933991646237e-02 1.08525344473306e-04
1.28553571428571e+01 1.00108187803459e-02 1.07950790614221e-04
1.29298809523810e+01 9.92891403767777e-03 1.07377474358417e-04
1.30044047619048e+01 9.84767940815099e-03 1.06805428774743e-04
1.30789285714286e+01 9.76710940978197e-03 1.06234686009895e-04
1.31534523809524e+01 9.68719860480761e-03 1.05665277723572e-04
1.32279761904762e+01 9.60794159995455e-03 1.05097234481419e-04
1.33025000000000e+01 9.52933304607524e-03 1.04530585984174e-04
1.33770238095238e+01 9.45136763778662e-03 1.03965361086031e-04
1.34515476190476e+01 9.37404011311233e-03 1.03401587812509e-04
1.35260714285714e+01 9.29734525312779e-03 1.02839293378228e-04
1.36005952380952e+01 9.22127788160771e-03 1.02278504204199e-04
1.36751190476190e+01 9.14583286467677e-03 1.01719246116184e-04
1.37496428571429e+01 9.07100510992130e-03 1.01161543812779e-04
1.38241666666667e+01 8.99678956768326e-03 1.00605421248945e-04
1.38986904761905e+01 8.92318122906933e-03 1.00050902024002e-04
1.39732142857143e+01 8.85017512616710e-03 9.94980088358068e-05
1.40477380952381e+01 8.77776633170979e-03 9.89467636841545e-05
1.41222619047619e+01 8.70594995874366e-03 9.83971878856380e-05
1.41967857142857e+01 8.63472116029788e-03 9.78493020878046e-05
1.42713095238095e+01 8.56407512905809e-03 9.73031262832604e-05
1.43458333333333e+01 8.49400709704161e-03 9.67586798237391e-05
1.44203571428571e+01 8.42451233527561e-03 9.62159814334708e-05
1.44948809523810e+01 8.35558615347799e-03 9.56750493834863e-05
1.45694047619048e+01 8.28722389927385e-03 9.51359010181027e-05
1.46439285714286e+01 8.21942095929265e-03 9.45985530934682e-05
1.47184523809524e+01 8.15217275743520e-03 9.40630221201875e-05
1.47929761904762e+01 8.08547475504224e-03 9.35293238776493e-05
1.48675000000000e+01 8.01932245058815e-03 9.29974735929752e-05
1.49420238095238e+01 7.95371137937697e-03 9.24674859525926e-05
1.50165476190476e+01 7.88863711324121e-03 9.19393751135219e-05
1.50910714285714e+01 7.82409526024318e-03 9.14131547146196e-05
1.51655952380952e+01 7.76008146437837e-03 9.08888378875319e-05
1.52401190476190e+01 7.69659140528150e-03 9.03664374121118e-05
1.53146428571429e+01 7.63362079752565e-03 8.98459652897240e-05
1.53891666666667e+01 7.57116539156976e-03 8.93274330463207e-05
1.54636904761905e+01 7.50922097222602e-03 8.88108520392703e-05
1.55382142857143e+01 7.44778335879370e-03 8.82962330198482e-05
1.56127380952381e+01 7.38684840477702e-03 8.77835862929570e-05
1.56872619047619e+01 7.32641199760528e-03 8.72729217266518e-05
1.57617857142857e+01 7.26647005835504e-03 8.67642487611933e-05
1.58363095238095e+01 7.20701854147538e-03 8.62575764181045e-05
1.59108333333333e+01 7.14805343451456e-03 8.57529133092305e-05
1.59853571428571e+01 7.08957075784922e-03 8.52502676453249e-05
1.60598809523810e+01 7.03156656441580e-03 8.47496473733807e-05
1.61344047619048e+01 6.97403693908940e-03 8.42510597960381e-05
1.62089285714286e+01 6.91697799949146e-03 8.37545118402644e-05
1.62834523809524e+01 6.86038589464803e-03 8.32600103294303e-05
1.63579761904762e+01 6.80425680509236e-03 8.27675615931827e-05
1.64325000000000e+01 6.74858694260721e-03 8.22771716087110e-05
1.65070238095238e+01 6.69337254996896e-03 8.17888460082482e-05
1.65815476190476e+01 6.63860990069424e-03 8.13025900863755e-05
1.66560714285714e+01 6.58429529878847e-03 8.08184088073525e-05
1.67305952380952e+01 6.53042507849632e-03 8.03363068122602e-05
1.68051190476190e+01 6.47699560405430e-03 7.98562885419585e-05
1.68796428571429e+01 6.42400326913299e-03 7.93783578935637e-05
1.69541666666667e+01 6.37144449753753e-03 7.89025184617732e-05
1.70286904761905e+01 6.31931574201557e-03 7.84287737833059e-05
1.71032142857143e+01 6.26761348433706e-03 7.79571269848574e-05
1.71777380952381e+01 6.21633423505679e-03 7.74875809096632e-05
1.72522619047619e+01 6.16547453327891e-03 7.70201381237502e-05
1.73267857142857e+01 6.11503094642312e-03 7.65548009218654e-05
1.74013095238095e+01 6.06500006999341e-03 7.60915713334097e-05
1.74758333333333e+01 6.01537852734808e-03 7.56304511284055e-05
1.75503571428571e+01 5.96616296947188e-03 7.51714418231387e-05
1.76248809523810e+01 5.91735007474992e-03 7.47145447892579e-05
1.76994047619048e+01 5.86893654847146e-03 7.42597609468172e-05
1.77739285714286e+01 5.82091912342952e-03 7.38070909788877e-05
1.78484523809524e+01 5.77329455887257e-03 7.33565355490057e-05
1.79229761904762e+01 5.72605964056366e-03 7.29080949866732e-05
1.79975000000000e+01 5.67921118056355e-03 7.24617693997133e-05
1.80720238095238e+01 5.63274601701544e-03 7.20175586792230e-05
1.81465476190476e+01 5.58666101393169e-03 7.15754625043953e-05
1.82210714285714e+01 5.54095306098218e-03 7.11354803473803e-05
1.82955952380952e+01 5.49561907328439e-03 7.06976114780233e-05
1.83701190476190e+01 5.45065599119511e-03 7.02618550618352e-05
1.84446428571429e+01 5.40606077986348e-03 6.98282098825246e-05
1.85191666666667e+01 5.36183042975281e-03 6.93966745352741e-05
1.85936904761905e+01 5.31796195570565e-03 6.89672476225722e-05
1.86682142857143e+01 5.27445239698800e-03 6.85399274699630e-05
1.87427380952381e+01 5.23129881708946e-03 6.81147122270196e-05
1.88172619047619e+01 5.18849830352510e-03 6.76915998715000e-05
1.88917857142857e+01 5.14604796763868e-03 6.72705882132846e-05
1.89663095238095e+01 5.10394494440804e-03 6.68516748983227e-05
1.90408333333333e+01 5.06218639225154e-03 6.64348574126048e-05
1.91153571428571e+01 5.02076949283629e-03 6.60201330859246e-05
1.91898809523809e+01 4.97969145088796e-03 6.56074991790784e-05
1.92644047619048e+01 4.93894949379177e-03 6.51969526355192e-05
1.93389285714286e+01 4.89854087204075e-03 6.47884902536864e-05
1.94134523809524e+01 4.85846285841036e-03 6.43821088616540e-05
1.94879761904762e+01 4.81871274798919e-03 6.39778050627595e-05
1.95625000000000e+01 4.77928785799640e-03 6.35755753255019e-05
1.96370238095238e+01 4.74018552760060e-03 6.31754159868502e-05
1.97115476190476e+01 4.70140311774036e-03 6.27773232554598e-05
1.97860714285714e+01 4.66293801094608e-03 6.23812932149177e-05
1.98605952380952e+01 4.62478761116334e-03 6.19873218269011e-05
1.99351190476190e+01 4.58694934357766e-03 6.15954050097034e-05
2.00096428571429e+01 4.54942065425416e-03 6.12055384134403e-05
2.00841666666667e+01 4.51219901052875e-03 6.08177175755425e-05
2.01586904761905e+01 4.47528190026974e-03 6.04319380783670e-05
2.02332142857143e+01 4.43866683189877e-03 6.00481953189836e-05
2.03077380952381e+01 4.40235133422262e-03 5.96664845901578e-05
2.03822619047619e+01 4.36633295626647e-03 5.92868010831331e-05
2.04567857142857e+01 4.33060926710836e-03 5.89091398902456e-05
2.05313095238095e+01 4.29517785571532e-03 5.85334960075747e-05
2.06058333333333e+01 4.26003633078055e-03 5.81598643376091e-05
2.06803571428571e+01 4.22518232056203e-03 5.77882396917480e-05
2.07548809523810e+01 4.19061347272243e-03 5.74186168603535e-05
2.08294047619048e+01 4.15632745400668e-03 5.70509904112686e-05
2.09039285714286e+01 4.12232195057893e-03 5.66853548287468e-05
2.09784523809524e+01 4.08859466736854e-03 5.63217046542998e-05
2.10529761904762e+01 4.05514332808227e-03 5.59600342803828e-05
2.11275000000000e+01 4.02196567505067e-03 5.56003380226525e-05
2.12020238095238e+01 3.98905946907565e-03 5.52426101221823e-05
2.12765476190476e+01 3.95642248927940e-03 5.48868447476071e-05
2.13510714285714e+01 3.92405253295456e-03 5.45330359972966e-05
2.14255952380952e+01 3.89194741541548e-03 5.41811779014731e-05
2.15001190476190e+01 3.86010496985079e-03 5.38312644854051e-05
2.15746428571429e+01 3.82852304703156e-03 5.34832895868236e-05
2.16491666666667e+01 3.79719951560602e-03 5.31372469814945e-05
2.17236904761905e+01 3.76613226151292e-03 5.27931305105196e-05
2.17982142857143e+01 3.73531918798748e-03 5.24509338933970e-05
2.18727380952381e+01 3.70475821541986e-03 5.21106507932449e-05
2.19472619047619e+01 3.67444728121482e-03 5.17722748186510e-05
2.20217857142857e+01 3.64438433965241e-03 5.14357995254183e-05
2.20963095238095e+01 3.61456736175008e-03 5.11012184183315e-05
2.21708333333333e+01 3.58499433512567e-03 5.07685249529428e-05
2.22453571428571e+01 3.55566326386155e-03 5.04377125372426e-05
2.23198809523810e+01 3.52657216836996e-03 5.01087745881477e-05
2.23944047619048e+01 3.49771908513125e-03 4.97817043676367e-05
2.24689285714286e+01 3.46910206694833e-03 4.94564950951361e-05
2.25434523809524e+01 3.44071918242568e-03 4.91331400614824e-05
2.26179761904762e+01 3.41256851596972e-03 4.88116324611677e-05
2.26925000000000e+01 3.38464816765957e-03 4.84919654506466e-05
2.27670238095238e+01 3.35695625311874e-03 4.81741321498021e-05
2.28415476190476e+01 3.32949090338799e-03 4.78581256433732e-05
2.29160714285714e+01 3.30225026479927e-03 4.75439389823983e-05
2.29905952380952e+01 3.27523249885051e-03 4.72315651856273e-05
2.30651190476190e+01 3.24843578208162e-03 4.69209972905673e-05
2.31396428571429e+01 3.22185830583709e-03 4.66122282048276e-05
2.32141666666667e+01 3.19549827648901e-03 4.63052508078380e-05
2.32886904761905e+01 3.16935391496864e-03 4.60000580540116e-05
2.33632142857143e+01 3.14342345676293e-03 4.56966428205684e-05
2.34377380952381e+01 3.11770515179540e-03 4.53949979602329e-05
2.35122619047619e+01 3.09219726430804e-03 4.50951163024774e-05
