Energy (eV)          EEDF (eV^-(3/2))     First Anisotropy
5.75000000000000e-04 1.47591917715105e+01 6.98435432306674e-03
1.72500000000000e-03 1.46650649848988e+01 1.15351567256356e-02
2.87500000000000e-03 1.45715384921499e+01 1.52330201358221e-02
4.02500000000000e-03 1.44786084648736e+01 1.80455488123988e-02
5.17500000000000e-03 1.43862710991068e+01 2.03939106523431e-02
6.32500000000000e-03 1.42945226151481e+01 2.24372272396942e-02
7.47500000000000e-03 1.42033592574018e+01 2.42577869486273e-02
8.62500000000000e-03 1.41127772942235e+01 2.59052475879331e-02
9.77500000000000e-03 1.40227730177677e+01 2.74125209770210e-02
1.09250000000000e-02 1.39333427438355e+01 2.88028529646945e-02
1.20750000000000e-02 1.38444828117243e+01 3.00934398687066e-02
1.32250000000000e-02 1.37561895840775e+01 3.12974599137352e-02
1.43750000000000e-02 1.36684594467358e+01 3.24252976820925e-02
1.55250000000000e-02 1.35812888085890e+01 3.34853235595748e-02
1.66750000000000e-02 1.34946741014296e+01 3.44844120362653e-02
1.78250000000000e-02 1.34086117798062e+01 3.54282989005395e-02
1.89750000000000e-02 1.33230983208783e+01 3.63218348674771e-02
2.01250000000000e-02 1.32381302242727e+01 3.71691702940887e-02
2.12750000000000e-02 1.31537040119396e+01 3.79738926718904e-02
2.24250000000000e-02 1.30698162280106e+01 3.87391309295203e-02
2.35750000000000e-02 1.29864634386570e+01 3.94676358867554e-02
2.47250000000000e-02 1.29036422319493e+01 4.01618432355240e-02
2.58750000000000e-02 1.28213492177179e+01 4.08239234960650e-02
2.70250000000000e-02 1.27395810274137e+01 4.14558221130686e-02
2.81750000000000e-02 1.26583343139706e+01 4.20592919833408e-02
2.93250000000000e-02 1.25776057516686e+01 4.26359201005427e-02
3.04750000000000e-02 1.24973920359972e+01 4.31871495747519e-02
3.16250000000000e-02 1.24176898835207e+01 4.37142979775956e-02
3.27750000000000e-02 1.23384960317433e+01 4.42185727402607e-02
3.39250000000000e-02 1.22598072389760e+01 4.47010841668652e-02
3.50750000000000e-02 1.21816202842035e+01 4.51628565025938e-02
3.62250000000000e-02 1.21039319669525e+01 4.56048374030548e-02
3.73750000000000e-02 1.20267391071610e+01 4.60279060804192e-02
3.85250000000000e-02 1.19500385450475e+01 4.64328803472263e-02
3.96750000000000e-02 1.18738271409823e+01 4.68205227363019e-02
4.08250000000000e-02 1.17981017753585e+01 4.71915458419177e-02
4.19750000000000e-02 1.17228593484647e+01 4.75466170009972e-02
4.31250000000000e-02 1.16480967803577e+01 4.78863624122775e-02
4.42750000000000e-02 1.15738110107368e+01 4.82113707744915e-02
4.54250000000000e-02 1.14999989988183e+01 4.85221965111529e-02
4.65750000000000e-02 1.14266577232111e+01 4.88193626384936e-02
4.77250000000000e-02 1.13537841817932e+01 4.91033633241576e-02
4.88750000000000e-02 1.12813753915884e+01 4.93746661768893e-02
5.00250000000000e-02 1.12094283886446e+01 4.96337143013626e-02
5.11750000000000e-02 1.11379402279121e+01 4.98809281472817e-02
5.23250000000000e-02 1.10669079831237e+01 5.01167071776722e-02
5.34750000000000e-02 1.09963287466740e+01 5.03414313777730e-02
5.46250000000000e-02 1.09261996295011e+01 5.05554626229913e-02
5.57750000000000e-02 1.08565177609680e+01 5.07591459218896e-02
5.69250000000000e-02 1.07872802887454e+01 5.09528105480715e-02
5.80750000000000e-02 1.07184843786945e+01 5.11367710730209e-02
5.92250000000000e-02 1.06501272147513e+01 5.13113283104538e-02
6.03750000000000e-02 1.05822059988114e+01 5.14767701814060e-02
6.15250000000000e-02 1.05147179506150e+01 5.16333725081413e-02
6.26750000000000e-02 1.04476603076338e+01 5.17813997440510e-02
6.38250000000000e-02 1.03810303249573e+01 5.19211056458268e-02
6.49750000000000e-02 1.03148252751806e+01 5.20527338934750e-02
6.61250000000000e-02 1.02490424482931e+01 5.21765186631341e-02
6.72750000000000e-02 1.01836791515670e+01 5.22926851570787e-02
6.84250000000000e-02 1.01187327094477e+01 5.24014500948312e-02
6.95750000000000e-02 1.00542004634436e+01 5.25030221688681e-02
7.07250000000000e-02 9.99007977201800e+00 5.25976024680656e-02
7.18750000000000e-02 9.92636801048031e+00 5.26853848716724e-02
7.30250000000000e-02 9.86306257087908e+00 5.27665564163311e-02
7.41750000000000e-02 9.80016086189501e+00 5.28412976384227e-02
7.53250000000000e-02 9.73766030873498e+00 5.29097828937498e-02
7.64750000000000e-02 9.67555835302659e+00 5.29721806564299e-02
7.76250000000000e-02 9.61385245271351e+00 5.30286537986598e-02
7.87750000000000e-02 9.55254008195133e+00 5.30793598528399e-02
7.99250000000000e-02 9.49161873100426e+00 5.31244512574447e-02
8.10750000000000e-02 9.43108590614232e+00 5.31640755878824e-02
8.22250000000000e-02 9.37093912953934e+00 5.31983757734726e-02
8.33750000000000e-02 9.31117593917148e+00 5.32274903015788e-02
8.45250000000000e-02 9.25179388871644e+00 5.32515534098194e-02
8.56750000000000e-02 9.19279054745337e+00 5.32706952672374e-02
8.68250000000000e-02 9.13416350016336e+00 5.32850421452000e-02
8.79750000000000e-02 9.07591034703054e+00 5.32947165787603e-02
8.91250000000000e-02 9.01802870354388e+00 5.32998375191404e-02
9.02750000000000e-02 8.96051620039958e+00 5.33005204779193e-02
9.14250000000000e-02 8.90337048340409e+00 5.32968776635160e-02
9.25750000000000e-02 8.84658921337771e+00 5.32890181104716e-02
9.37250000000000e-02 8.79017006605888e+00 5.32770478019807e-02
9.48750000000000e-02 8.73411073200904e+00 5.32610697861407e-02
9.60250000000000e-02 8.67840891651805e+00 5.32411842862977e-02
9.71750000000000e-02 8.62306233951032e+00 5.32174888058767e-02
9.83250000000000e-02 8.56806873545142e+00 5.31900782280297e-02
9.94750000000000e-02 8.51342585325540e+00 5.31590449104146e-02
1.00625000000000e-01 8.45913145619259e+00 5.31244787754295e-02
1.01775000000000e-01 8.40518332179810e+00 5.30864673961466e-02
1.02925000000000e-01 8.35157924178078e+00 5.30450960782034e-02
1.04075000000000e-01 8.29831702193290e+00 5.30004479379119e-02
1.05225000000000e-01 8.24539448204027e+00 5.29526039767751e-02
1.06375000000000e-01 8.19280945579303e+00 5.29016431526309e-02
1.07525000000000e-01 8.14055979069698e+00 5.28476424476317e-02
1.08675000000000e-01 8.08864334798543e+00 5.27906769331971e-02
1.09825000000000e-01 8.03705800253170e+00 5.27308198321341e-02
1.10975000000000e-01 7.98580164276212e+00 5.26681425780839e-02
1.12125000000000e-01 7.93487217056955e+00 5.26027148724252e-02
1.13275000000000e-01 7.88426750122757e+00 5.25346047387709e-02
1.14425000000000e-01 7.83398556330510e+00 5.24638785752011e-02
1.15575000000000e-01 7.78402429858161e+00 5.23906012043354e-02
1.16725000000000e-01 7.73438166196288e+00 5.23148359213550e-02
1.17875000000000e-01 7.68505562139729e+00 5.22366445401021e-02
1.19025000000000e-01 7.63604415779263e+00 5.21560874373208e-02
1.20175000000000e-01 7.58734526493346e+00 5.20732235951563e-02
1.21325000000000e-01 7.53895694939897e+00 5.19881106420101e-02
1.22475000000000e-01 7.49087723048141e+00 5.19008048917832e-02
1.23625000000000e-01 7.44310414010500e+00 5.18113613816351e-02
1.24775000000000e-01 7.39563572274537e+00 5.17198339083201e-02
1.25925000000000e-01 7.34847003534950e+00 5.16262750631523e-02
1.27075000000000e-01 7.30160514725620e+00 5.15307362656701e-02
1.28225000000000e-01 7.25503914011710e+00 5.14332677960603e-02
1.29375000000000e-01 7.20877010781806e+00 5.13339188264188e-02
1.30525000000000e-01 7.16279615640123e+00 5.12327374508757e-02
1.31675000000000e-01 7.11711540398745e+00 5.11297707146400e-02
1.32825000000000e-01 7.07172598069927e+00 5.10250646420323e-02
1.33975000000000e-01 7.02662602858438e+00 5.09186642635262e-02
1.35125000000000e-01 6.98181370153956e+00 5.08106136418519e-02
1.36275000000000e-01 6.93728716523514e+00 5.07009558972153e-02
1.37425000000000e-01 6.89304459703987e+00 5.05897332316490e-02
1.38575000000000e-01 6.84908418594634e+00 5.04769869525492e-02
1.39725000000000e-01 6.80540413249686e+00 5.03627574954181e-02
1.40875000000000e-01 6.76200264870976e+00 5.02470844458633e-02
1.42025000000000e-01 6.71887795800625e+00 5.01300065608810e-02
1.43175000000000e-01 6.67602829513768e+00 5.00115617894279e-02
1.44325000000000e-01 6.63345190611326e+00 4.98917872923498e-02
1.45475000000000e-01 6.59114704812828e+00 4.97707194616688e-02
1.46625000000000e-01 6.54911198949280e+00 4.96483939392543e-02
1.47775000000000e-01 6.50734500956071e+00 4.95248456349198e-02
1.48925000000000e-01 6.46584439865932e+00 4.94001087439475e-02
1.50075000000000e-01 6.42460845801941e+00 4.92742167640717e-02
1.51225000000000e-01 6.38363549970565e+00 4.91472025119523e-02
1.52375000000000e-01 6.34292384654752e+00 4.90190981391449e-02
1.53525000000000e-01 6.30247183207066e+00 4.88899351475872e-02
1.54675000000000e-01 6.26227780042866e+00 4.87597444046269e-02
1.55825000000000e-01 6.22234010633527e+00 4.86285561576051e-02
1.56975000000000e-01 6.18265711499707e+00 4.84964000480097e-02
1.58125000000000e-01 6.14322720204653e+00 4.83633051252251e-02
1.59275000000000e-01 6.10404875347552e+00 4.82292998598755e-02
1.60425000000000e-01 6.06512016556927e+00 4.80944121567809e-02
1.61575000000000e-01 6.02643984484069e+00 4.79586693675628e-02
1.62725000000000e-01 5.98800620796515e+00 4.78220983028829e-02
1.63875000000000e-01 5.94981768171572e+00 4.76847252443406e-02
1.65025000000000e-01 5.91187270289868e+00 4.75465759560424e-02
1.66175000000000e-01 5.87416971828960e+00 4.74076756958444e-02
1.67325000000000e-01 5.83670718456975e+00 4.72680492262977e-02
1.68475000000000e-01 5.79948356826293e+00 4.71277208252961e-02
1.69625000000000e-01 5.76249734567265e+00 4.69867142964306e-02
1.70775000000000e-01 5.72574700281983e+00 4.68450529790671e-02
1.71925000000000e-01 5.68923103538079e+00 4.67027597581566e-02
1.73075000000000e-01 5.65294794862567e+00 4.65598570737925e-02
1.74225000000000e-01 5.61689625735727e+00 4.64163669305185e-02
1.75375000000000e-01 5.58107448585023e+00 4.62723109063809e-02
1.76525000000000e-01 5.54548116779063e+00 4.61277101617579e-02
1.77675000000000e-01 5.51011484621597e+00 4.59825854479635e-02
1.78825000000000e-01 5.47497407345554e+00 4.58369571156261e-02
1.79975000000000e-01 5.44005741107115e+00 4.56908451228619e-02
1.81125000000000e-01 5.40536342979825e+00 4.55442690432339e-02
1.82275000000000e-01 5.37089070948743e+00 4.53972480735196e-02
1.83425000000000e-01 5.33663783904629e+00 4.52498010412858e-02
1.84575000000000e-01 5.30260341638168e+00 4.51019464122720e-02
1.85725000000000e-01 5.26878604834230e+00 4.49537022975971e-02
1.86875000000000e-01 5.23518435066166e+00 4.48050864607892e-02
1.88025000000000e-01 5.20179694790146e+00 4.46561163246478e-02
1.89175000000000e-01 5.16862247339524e+00 4.45068089779374e-02
1.90325000000000e-01 5.13565956919248e+00 4.43571811819253e-02
1.91475000000000e-01 5.10290688600297e+00 4.42072493767595e-02
1.92625000000000e-01 5.07036308314161e+00 4.40570296876966e-02
1.93775000000000e-01 5.03802682847354e+00 4.39065379311958e-02
1.94925000000000e-01 5.00589679835957e+00 4.37557896208570e-02
1.96075000000000e-01 4.97397167760203e+00 4.36047999732208e-02
1.97225000000000e-01 4.94225015939094e+00 4.34535839134446e-02
1.98375000000000e-01 4.91073094525049e+00 4.33021560808449e-02
1.99525000000000e-01 4.87941274498590e+00 4.31505308343140e-02
2.00675000000000e-01 4.84829427663062e+00 4.29987222576134e-02
2.01825000000000e-01 4.81737426639385e+00 4.28467441645442e-02
2.02975000000000e-01 4.78665144860838e+00 4.26946101040078e-02
2.04125000000000e-01 4.75612456567881e+00 4.25423333649523e-02
2.05275000000000e-01 4.72579236803004e+00 4.23899269812123e-02
2.06425000000000e-01 4.69565361405615e+00 4.22374037362371e-02
2.07575000000000e-01 4.66570707006958e+00 4.20847761677135e-02
2.08725000000000e-01 4.63595151025059e+00 4.19320565721006e-02
2.09875000000000e-01 4.60638571659712e+00 4.17792570090532e-02
2.11025000000000e-01 4.57700847887492e+00 4.16263893057549e-02
2.12175000000000e-01 4.54781859456802e+00 4.14734650611641e-02
2.13325000000000e-01 4.51881486882950e+00 4.13204956501593e-02
2.14475000000000e-01 4.48999611443256e+00 4.11674922275995e-02
2.15625000000000e-01 4.46136115172195e+00 4.10144657323040e-02
2.16775000000000e-01 4.43290880856569e+00 4.08614268909508e-02
2.17925000000000e-01 4.40463792030707e+00 4.07083862218808e-02
2.19075000000000e-01 4.37654732971696e+00 4.05553540388310e-02
2.20225000000000e-01 4.34863588694649e+00 4.04023404545980e-02
2.21375000000000e-01 4.32090244947993e+00 4.02493553846085e-02
2.22525000000000e-01 4.29334588208797e+00 4.00964085504343e-02
2.23675000000000e-01 4.26596505678121e+00 3.99435094832339e-02
2.24825000000000e-01 4.23875885276402e+00 3.97906675271044e-02
2.25975000000000e-01 4.21172615638863e+00 3.96378918423831e-02
2.27125000000000e-01 4.18486586110958e+00 3.94851914088898e-02
2.28275000000000e-01 4.15817686743840e+00 3.93325750290896e-02
2.29425000000000e-01 4.13165808289860e+00 3.91800513311906e-02
2.30575000000000e-01 4.10530842198098e+00 3.90276287721965e-02
2.31725000000000e-01 4.07912680609916e+00 3.88753156408869e-02
2.32875000000000e-01 4.05311216354546e+00 3.87231200607428e-02
2.34025000000000e-01 4.02726342944702e+00 3.85710499928103e-02
2.35175000000000e-01 4.00157954572221e+00 3.84191132385151e-02
2.36325000000000e-01 3.97605946103730e+00 3.82673174424235e-02
2.37475000000000e-01 3.95070213076347e+00 3.81156700949373e-02
2.38625000000000e-01 3.92550651693399e+00 3.79641785349527e-02
2.39775000000000e-01 3.90047158820181e+00 3.78128499524612e-02
2.40925000000000e-01 3.87559631979727e+00 3.76616913910997e-02
2.42075000000000e-01 3.85087969348617e+00 3.75107097506556e-02
2.43225000000000e-01 3.82632069752813e+00 3.73599117895203e-02
2.44375000000000e-01 3.80191832663514e+00 3.72093041270975e-02
2.45525000000000e-01 3.77767158193040e+00 3.70588932461765e-02
2.46675000000000e-01 3.75357947090747e+00 3.69086854952473e-02
2.47825000000000e-01 3.72964100738960e+00 3.67586870907704e-02
2.48975000000000e-01 3.70585521148942e+00 3.66089041194240e-02
2.50125000000000e-01 3.68222110956877e+00 3.64593425402959e-02
2.51275000000000e-01 3.65873773419885e+00 3.63100081870284e-02
2.52425000000000e-01 3.63540412412069e+00 3.61609067699399e-02
2.53575000000000e-01 3.61221932420572e+00 3.60120438780976e-02
2.54725000000000e-01 3.58918238541670e+00 3.58634249813558e-02
2.55875000000000e-01 3.56629236476889e+00 3.57150554323602e-02
2.57025000000000e-01 3.54354832529145e+00 3.55669404685047e-02
2.58175000000000e-01 3.52094933598904e+00 3.54190852138661e-02
2.59325000000000e-01 3.49849447180378e+00 3.52714946810950e-02
2.60475000000000e-01 3.47618281357733e+00 3.51241737732818e-02
2.61625000000000e-01 3.45401344801328e+00 3.49771272857816e-02
2.62775000000000e-01 3.43198546763980e+00 3.48303599080076e-02
2.63925000000000e-01 3.41009797077242e+00 3.46838762251963e-02
2.65075000000000e-01 3.38835006147721e+00 3.45376807201383e-02
2.66225000000000e-01 3.36674084953402e+00 3.43917777748806e-02
2.67375000000000e-01 3.34526945040012e+00 3.42461716724015e-02
2.68525000000000e-01 3.32393498517392e+00 3.41008665982492e-02
2.69675000000000e-01 3.30273658055906e+00 3.39558666421553e-02
2.70825000000000e-01 3.28167336882860e+00 3.38111757996284e-02
2.71975000000000e-01 3.26074448778954e+00 3.36667979735029e-02
2.73125000000000e-01 3.23994908074754e+00 3.35227369754770e-02
2.74275000000000e-01 3.21928629647179e+00 3.33789965276168e-02
2.75425000000000e-01 3.19875528916025e+00 3.32355802638361e-02
2.76575000000000e-01 3.17835521840495e+00 3.30924917313499e-02
2.77725000000000e-01 3.15808524915764e+00 3.29497343921006e-02
2.78875000000000e-01 3.13794455169560e+00 3.28073116241702e-02
2.80025000000000e-01 3.11793230158765e+00 3.26652267231575e-02
2.81175000000000e-01 3.09804767966043e+00 3.25234829035365e-02
2.82325000000000e-01 3.07828987196488e+00 3.23820832999919e-02
2.83475000000000e-01 3.05865806974286e+00 3.22410309687304e-02
2.84625000000000e-01 3.03915146939414e+00 3.21003288887724e-02
2.85775000000000e-01 3.01976927244340e+00 3.19599799632212e-02
2.86925000000000e-01 3.00051068550763e+00 3.18199870205118e-02
2.88075000000000e-01 2.98137492026362e+00 3.16803528156342e-02
2.89225000000000e-01 2.96236119341569e+00 3.15410800313447e-02
2.90375000000000e-01 2.94346872666363e+00 3.14021712793505e-02
2.91525000000000e-01 2.92469674667084e+00 3.12636291014768e-02
2.92675000000000e-01 2.90604448503267e+00 3.11254559708156e-02
2.93825000000000e-01 2.88751117824499e+00 3.09876542928501e-02
2.94975000000000e-01 2.86909606767290e+00 3.08502264065718e-02
2.96125000000000e-01 2.85079839951972e+00 3.07131745855718e-02
2.97275000000000e-01 2.83261742479609e+00 3.05765010391131e-02
2.98425000000000e-01 2.81455239928934e+00 3.04402079131854e-02
2.99575000000000e-01 2.79660258353301e+00 3.03042972915503e-02
3.00725000000000e-01 2.77876724277660e+00 3.01687711967617e-02
3.01875000000000e-01 2.76104564695548e+00 3.00336315911689e-02
3.03025000000000e-01 2.74343707066101e+00 2.98988803779141e-02
3.04175000000000e-01 2.72594079311085e+00 2.97645194019034e-02
3.05325000000000e-01 2.70855609811943e+00 2.96305504507636e-02
3.06475000000000e-01 2.69128227406869e+00 2.94969752557859e-02
3.07625000000000e-01 2.67411861387888e+00 2.93637954928568e-02
3.08775000000000e-01 2.65706441497969e+00 2.92310127833698e-02
3.09925000000000e-01 2.64011897928141e+00 2.90986286951204e-02
3.11075000000000e-01 2.62328161314645e+00 2.89666447431972e-02
3.12225000000000e-01 2.60655162736085e+00 2.88350623908510e-02
3.13375000000000e-01 2.58992833710613e+00 2.87038830503460e-02
3.14525000000000e-01 2.57341106193127e+00 2.85731080838090e-02
3.15675000000000e-01 2.55699912572478e+00 2.84427388040569e-02
3.16825000000000e-01 2.54069185668710e+00 2.83127764754137e-02
3.17975000000000e-01 2.52448858730307e+00 2.81832223145128e-02
3.19125000000000e-01 2.50838865431462e+00 2.80540774910909e-02
3.20275000000000e-01 2.49239139869359e+00 2.79253431287655e-02
3.21425000000000e-01 2.47649616561479e+00 2.77970203057999e-02
3.22575000000000e-01 2.46070230442917e+00 2.76691100558624e-02
3.23725000000000e-01 2.44500916863719e+00 2.75416133687674e-02
3.24875000000000e-01 2.42941611586239e+00 2.74145311912059e-02
3.26025000000000e-01 2.41392250782504e+00 2.72878644274627e-02
3.27175000000000e-01 2.39852771031605e+00 2.71616139401284e-02
3.28325000000000e-01 2.38323109317099e+00 2.70357805507993e-02
3.29475000000000e-01 2.36803203024434e+00 2.69103650407597e-02
3.30625000000000e-01 2.35292989938378e+00 2.67853681516629e-02
3.31775000000000e-01 2.33792408240480e+00 2.66607905861946e-02
3.32925000000000e-01 2.32301396506534e+00 2.65366330087293e-02
3.34075000000000e-01 2.30819893704070e+00 2.64128960459765e-02
3.35225000000000e-01 2.29347839189850e+00 2.62895802876140e-02
3.36375000000000e-01 2.27885172707390e+00 2.61666862869170e-02
3.37525000000000e-01 2.26431834384490e+00 2.60442145613735e-02
3.38675000000000e-01 2.24987764730788e+00 2.59221655932887e-02
3.39825000000000e-01 2.23552904635320e+00 2.58005398303888e-02
3.40975000000000e-01 2.22127195364102e+00 2.56793376864045e-02
3.42125000000000e-01 2.20710578557727e+00 2.55585595416497e-02
3.43275000000000e-01 2.19302996228976e+00 2.54382057435978e-02
3.44425000000000e-01 2.17904390760443e+00 2.53182766074403e-02
3.45575000000000e-01 2.16514704902175e+00 2.51987724166355e-02
3.46725000000000e-01 2.15133881769335e+00 2.50796934234630e-02
3.47875000000000e-01 2.13761864839866e+00 2.49610398495608e-02
3.49025000000000e-01 2.12398597952181e+00 2.48428118864425e-02
3.50175000000000e-01 2.11044025302865e+00 2.47250096960288e-02
3.51325000000000e-01 2.09698091444388e+00 2.46076334111574e-02
3.52475000000000e-01 2.08360741282838e+00 2.44906831360857e-02
3.53625000000000e-01 2.07031920075664e+00 2.43741589469933e-02
3.54775000000000e-01 2.05711573429435e+00 2.42580608924687e-02
3.55925000000000e-01 2.04399647297616e+00 2.41423889939908e-02
3.57075000000000e-01 2.03096087978352e+00 2.40271432464080e-02
3.58225000000000e-01 2.01800842112273e+00 2.39123236184048e-02
3.59375000000000e-01 2.00513856680308e+00 2.37979300529627e-02
3.60525000000000e-01 1.99235079001516e+00 2.36839624678144e-02
3.61675000000000e-01 1.97964456730928e+00 2.35704207558908e-02
3.62825000000000e-01 1.96701937857405e+00 2.34573047857649e-02
