Energy (eV)          EEDF (eV^-(3/2))     First Anisotropy
1.30000000000000e-03 2.06509035732518e+02 1.40519239975767e-01
3.90000000000000e-03 1.89424162312323e+02 2.23189090018897e-01
6.50000000000000e-03 1.73752751982249e+02 2.72088620411036e-01
9.10000000000000e-03 1.59377866333798e+02 2.97556442365003e-01
1.17000000000000e-02 1.46192241488693e+02 3.10437856230862e-01
1.43000000000000e-02 1.34097487707151e+02 3.15295846947170e-01
1.69000000000000e-02 1.23003355214033e+02 3.14684347683588e-01
1.95000000000000e-02 1.12827060764561e+02 3.10232013957569e-01
2.21000000000000e-02 1.03492669924483e+02 3.03055899213481e-01
2.47000000000000e-02 9.49305304553526e+01 2.93957248157703e-01
2.73000000000000e-02 8.70767525768768e+01 2.83527637651565e-01
2.99000000000000e-02 7.98727322281291e+01 2.72212183089960e-01
3.25000000000000e-02 7.32647137702345e+01 2.60349854303928e-01
3.51000000000000e-02 6.72033888674716e+01 2.48200565901616e-01
3.77000000000000e-02 6.16435285536795e+01 2.35964132609725e-01
4.03000000000000e-02 5.65436457384900e+01 2.23793963847500e-01
4.29000000000000e-02 5.18656856350418e+01 2.11807214410353e-01
4.55000000000000e-02 4.75747417991802e+01 2.00092465781684e-01
4.81000000000000e-02 4.36387956612586e+01 1.88715637503698e-01
5.07000000000000e-02 4.00284776069536e+01 1.77724599388519e-01
5.33000000000000e-02 3.67168478243052e+01 1.67152810718288e-01
5.59000000000000e-02 3.36791952816861e+01 1.57022218105752e-01
5.85000000000000e-02 3.08928533366933e+01 1.47345580206074e-01
6.11000000000000e-02 2.83370306000572e+01 1.38128343739096e-01
6.37000000000000e-02 2.59926557924911e+01 1.29370164478958e-01
6.63000000000000e-02 2.38422354368194e+01 1.21066144737709e-01
6.89000000000000e-02 2.18697233234991e+01 1.13207842684617e-01
7.15000000000000e-02 2.00604007754990e+01 1.05784096815210e-01
7.41000000000000e-02 1.84007668190864e+01 9.87816998161345e-02
7.67000000000000e-02 1.68784374409871e+01 9.21859491459899e-02
7.93000000000000e-02 1.54820531801870e+01 8.59810962998582e-02
8.19000000000000e-02 1.42011943648333e+01 8.01507125448652e-02
8.45000000000000e-02 1.30263033617443e+01 7.46779856175968e-02
8.71000000000000e-02 1.19486132583598e+01 6.95459592521455e-02
8.97000000000000e-02 1.09600824449656e+01 6.47377253056397e-02
9.23000000000000e-02 1.00533346090518e+01 6.02365765511953e-02
9.49000000000000e-02 9.22160369404743e+00 5.60261268295813e-02
9.75000000000000e-02 8.45868341172117e+00 5.20904041244064e-02
1.00100000000000e-01 7.75888093151436e+00 4.84139212004421e-02
1.02700000000000e-01 7.11697440124048e+00 4.49817276813469e-02
1.05300000000000e-01 6.52817398217585e+00 4.17794468106263e-02
1.07900000000000e-01 5.98808610778895e+00 3.87932996137998e-02
1.10500000000000e-01 5.49268069941110e+00 3.60101187410634e-02
1.13100000000000e-01 5.03826109421514e+00 3.34173539027403e-02
1.15700000000000e-01 4.62143646110786e+00 3.10030705020221e-02
1.18300000000000e-01 4.23909649870662e+00 2.87559428108201e-02
1.20900000000000e-01 3.88838822659890e+00 2.66652428167234e-02
1.23500000000000e-01 3.56669469670390e+00 2.47208256853822e-02
1.26100000000000e-01 3.27161546588233e+00 2.29131126275425e-02
1.28700000000000e-01 3.00094868408329e+00 2.12330718288918e-02
1.31300000000000e-01 2.75267466437181e+00 1.96721979900319e-02
1.33900000000000e-01 2.52494081223821e+00 1.82224909301241e-02
1.36500000000000e-01 2.31604780173361e+00 1.68764336284085e-02
1.39100000000000e-01 2.12443689527920e+00 1.56269700106829e-02
1.41700000000000e-01 1.94867831253107e+00 1.44674827310800e-02
1.44300000000000e-01 1.78746056151029e+00 1.33917711515305e-02
1.46900000000000e-01 1.63958065238832e+00 1.23940296808431e-02
1.49500000000000e-01 1.50393512090401e+00 1.14688266012366e-02
1.52100000000000e-01 1.37951179442978e+00 1.06110834814823e-02
1.54700000000000e-01 1.26538223924643e+00 9.81605525175707e-03
1.57300000000000e-01 1.16069483266880e+00 9.07931099517782e-03
1.59900000000000e-01 1.06466840832724e+00 8.39671549420521e-03
1.62500000000000e-01 9.76586427186671e-01 7.76441155617180e-03
1.65100000000000e-01 8.95791630808013e-01 7.17880313068455e-03
1.67700000000000e-01 8.21681136955118e-01 6.63653922220460e-03
1.70300000000000e-01 7.53701940951216e-01 6.13449859341525e-03
1.72900000000000e-01 6.91346789216435e-01 5.66977524878174e-03
1.75500000000000e-01 6.34150394195164e-01 5.23966468275799e-03
1.78100000000000e-01 5.81685962429464e-01 4.84165087321122e-03
1.80700000000000e-01 5.33562009871368e-01 4.47339399764845e-03
1.83300000000000e-01 4.89419440670265e-01 4.13271884759682e-03
1.85900000000000e-01 4.48928867637601e-01 3.81760391488994e-03
1.88500000000000e-01 4.11788154394462e-01 3.52617112254051e-03
1.91100000000000e-01 3.77720160861838e-01 3.25667617224684e-03
1.93700000000000e-01 3.46470675270623e-01 3.00749948031018e-03
1.96300000000000e-01 3.17806517260248e-01 2.77713767376636e-03
1.98900000000000e-01 2.91513797911463e-01 2.56419561880408e-03
2.01500000000000e-01 2.67396323729811e-01 2.36737895400482e-03
2.04100000000000e-01 2.45274132670502e-01 2.18548710155770e-03
2.06700000000000e-01 2.24982151280638e-01 2.01740673034037e-03
2.09300000000000e-01 2.06368962938551e-01 1.86210564558776e-03
2.11900000000000e-01 1.89295677998960e-01 1.71862708076823e-03
2.14500000000000e-01 1.73634897413113e-01 1.58608436823265e-03
2.17100000000000e-01 1.59269762090543e-01 1.46365596617786e-03
2.19700000000000e-01 1.46093080908875e-01 1.35058082045911e-03
2.22300000000000e-01 1.34006530864998e-01 1.24615404078335e-03
2.24900000000000e-01 1.22919923399196e-01 1.14972287180895e-03
2.27500000000000e-01 1.12750531417651e-01 1.06068294065772e-03
2.30100000000000e-01 1.03422471991597e-01 9.78474763307713e-04
2.32700000000000e-01 9.48661401269301e-02 9.02580493273949e-04
2.35300000000000e-01 8.70176893790890e-02 8.32520896895917e-04
2.37900000000000e-01 7.98185554376330e-02 7.67852540431984e-04
2.40500000000000e-01 7.32150191255422e-02 7.08165175010110e-04
2.43100000000000e-01 6.71578055523936e-02 6.53079306299769e-04
2.45700000000000e-01 6.16017164303337e-02 6.02243936550866e-04
2.48300000000000e-01 5.65052928092287e-02 5.55334467391376e-04
2.50900000000000e-01 5.18305057143580e-02 5.12050752486297e-04
2.53500000000000e-01 4.75424723782219e-02 4.72115289836550e-04
2.56100000000000e-01 4.36091959490153e-02 4.35271544138215e-04
2.58700000000000e-01 4.00013267334992e-02 4.01282390230686e-04
2.61300000000000e-01 3.66919431926899e-02 3.69928669237696e-04
2.63900000000000e-01 3.36563510561795e-02 3.41007849548928e-04
2.66500000000000e-01 3.08718990560977e-02 3.14332785302886e-04
2.69100000000000e-01 2.83178099057442e-02 2.89730565515285e-04
2.71700000000000e-01 2.59750252616701e-02 2.67041447452361e-04
2.74300000000000e-01 2.38260635123317e-02 2.46117868276579e-04
2.76900000000000e-01 2.18548893321525e-02 2.26823529394431e-04
2.79500000000000e-01 2.00467940276169e-02 2.09032548313566e-04
2.82100000000000e-01 1.83882857825534e-02 1.92628673170536e-04
2.84700000000000e-01 1.68669889836271e-02 1.77504555422356e-04
2.87300000000000e-01 1.54715518748204e-02 1.63561076505804e-04
2.89900000000000e-01 1.41915618518288e-02 1.50706724559259e-04
2.92500000000000e-01 1.30174677643073e-02 1.38857017573830e-04
2.95100000000000e-01 1.19405086461954e-02 1.27933969594800e-04
2.97700000000000e-01 1.09526483423141e-02 1.17865596831867e-04
3.00300000000000e-01 1.00465155434245e-02 1.08585460758380e-04
3.02900000000000e-01 9.21534878229677e-03 1.00032245486670e-04
3.05500000000000e-01 8.45294598035648e-03 9.21493668995256e-05
3.08100000000000e-01 7.75361816842883e-03 8.48846111977711e-05
3.10700000000000e-01 7.11214703625189e-03 7.81898006915088e-05
3.13300000000000e-01 6.52374599399655e-03 7.20204848187474e-05
3.15900000000000e-01 5.98402445523889e-03 6.63356545204997e-05
3.18500000000000e-01 5.48895507486799e-03 6.10974782367426e-05
3.21100000000000e-01 5.03484369746218e-03 5.62710579135198e-05
3.23700000000000e-01 4.61830179189147e-03 5.18242035285452e-05
3.26300000000000e-01 4.23622116645622e-03 4.77272247515291e-05
3.28900000000000e-01 3.88575077588896e-03 4.39527384566260e-05
3.31500000000000e-01 3.56427544715581e-03 4.04754908984188e-05
3.34100000000000e-01 3.26939636531152e-03 3.72721934501873e-05
3.36700000000000e-01 2.99891317379571e-03 3.43213708843103e-05
3.39300000000000e-01 2.75080755560470e-03 3.16032212499455e-05
3.41900000000000e-01 2.52322817282318e-03 2.90994864730225e-05
3.44500000000000e-01 2.31447685213626e-03 2.67933328684312e-05
3.47100000000000e-01 2.12299591323957e-03 2.46692408144575e-05
3.49700000000000e-01 1.94735654559338e-03 2.27129028953188e-05
3.52300000000000e-01 1.78624814678928e-03 2.09111298694011e-05
3.54900000000000e-01 1.63846854297341e-03 1.92517638687739e-05
3.57500000000000e-01 1.50291501835222e-03 1.77235982800322e-05
3.60100000000000e-01 1.37857608684361e-03 1.63163037977243e-05
3.62700000000000e-01 1.26452394447473e-03 1.50203601798122e-05
3.65300000000000e-01 1.15990754620663e-03 1.38269932699881e-05
3.67900000000000e-01 1.06394625552619e-03 1.27281168844347e-05
3.70500000000000e-01 9.75924019418826e-04 1.17162791909636e-05
3.73100000000000e-01 8.95184025256575e-04 1.07846132365613e-05
3.75700000000000e-01 8.21123799731642e-04 9.92679130538459e-06
3.78300000000000e-01 7.53190713264214e-04 9.13698281332256e-06
3.80900000000000e-01 6.90877856338908e-04 8.40981546752736e-06
3.83500000000000e-01 6.33720256999514e-04 7.74033943993385e-06
3.86100000000000e-01 5.81291411277373e-04 7.12399432286765e-06
3.88700000000000e-01 5.33200100663816e-04 6.55657865249010e-06
3.91300000000000e-01 4.89087472878975e-04 6.03422180215351e-06
3.93900000000000e-01 4.48624364153980e-04 5.55335806283863e-06
3.96500000000000e-01 4.11508843045680e-04 5.11070274180955e-06
3.99100000000000e-01 3.77463957456115e-04 4.70323012353012e-06
4.01700000000000e-01 3.46235668045207e-04 4.32815314882243e-06
4.04300000000000e-01 3.17590952616048e-04 3.98290467928143e-06
4.06900000000000e-01 2.91316067327874e-04 3.66512022415802e-06
4.09500000000000e-01 2.67214951762105e-04 3.37262201634884e-06
4.12100000000000e-01 2.45107765940214e-04 3.10340433284133e-06
4.14700000000000e-01 2.24829548376801e-04 2.85561996301129e-06
4.17300000000000e-01 2.06228985154416e-04 2.62756773560639e-06
4.19900000000000e-01 1.89167280835087e-04 2.41768102211947e-06
4.22500000000000e-01 1.73517122783429e-04 2.22451714060117e-06
4.25100000000000e-01 1.59161731173202e-04 2.04674758982377e-06
4.27700000000000e-01 1.45993987588582e-04 1.88314904912141e-06
4.30300000000000e-01 1.33915635717864e-04 1.73259508423212e-06
4.32900000000000e-01 1.22836548175236e-04 1.59404850408348e-06
4.35500000000000e-01 1.12674053979749e-04 1.46655431772694e-06
4.38100000000000e-01 1.03352321673192e-04 1.34923324456159e-06
4.40700000000000e-01 9.48017934737546e-05 1.24127573462168e-06
4.43300000000000e-01 8.69586662432145e-05 1.14193645905659e-06
4.45900000000000e-01 7.97644153946541e-05 1.05052923402780e-06
4.48500000000000e-01 7.31653581881771e-05 9.66422344105567e-07
4.51100000000000e-01 6.71122531559735e-05 8.89034233884713e-07
4.53700000000000e-01 6.15599326676882e-05 8.17829538973666e-07
4.56300000000000e-01 5.64669658943346e-05 7.52315429756297e-07
4.58900000000000e-01 5.17953496558249e-05 6.92038243398855e-07
4.61500000000000e-01 4.75102248452546e-05 6.36580381486377e-07
4.64100000000000e-01 4.35796163139291e-05 5.85557452437140e-07
4.66700000000000e-01 3.99741942761815e-05 5.38615639471279e-07
4.69300000000000e-01 3.66670554536104e-05 4.95429276411041e-07
4.71900000000000e-01 3.36335223256580e-05 4.55698614975104e-07
4.74500000000000e-01 3.08509589885585e-05 4.19147768506753e-07
4.77100000000000e-01 2.82986022486153e-05 3.85522818253956e-07
4.79700000000000e-01 2.59574066894428e-05 3.54590069405923e-07
4.82300000000000e-01 2.38099025570813e-05 3.26134445092876e-07
4.84900000000000e-01 2.18400654025379e-05 2.99958007479794e-07
4.87500000000000e-01 2.00331965090412e-05 2.75878595937070e-07
4.90100000000000e-01 1.83758132117693e-05 2.53728573056655e-07
4.92700000000000e-01 1.68555482916289e-05 2.33353670006775e-07
4.95300000000000e-01 1.54610576923729e-05 2.14611923386180e-07
4.97900000000000e-01 1.41819358724511e-05 1.97372696354637e-07
5.00500000000000e-01 1.30086381599580e-05 1.81515777384084e-07
5.03100000000000e-01 1.19324095312997e-05 1.66930550498107e-07
5.05700000000000e-01 1.09452192821321e-05 1.53515231349814e-07
5.08300000000000e-01 1.00397011030937e-05 1.41176163932749e-07
5.10900000000000e-01 9.20909811318344e-06 1.29827173129352e-07
5.13500000000000e-01 8.44721244062787e-06 1.19388968679141e-07
5.16100000000000e-01 7.74835897501714e-06 1.09788596496915e-07
5.18700000000000e-01 7.10732294561142e-06 1.00958933592091e-07
5.21300000000000e-01 6.51932100927252e-06 9.28382231359094e-08
5.23900000000000e-01 5.97996555766270e-06 8.53696464957063e-08
5.26500000000000e-01 5.48523197737468e-06 7.85009293064715e-08
5.29100000000000e-01 5.03142861869152e-06 7.21839788812366e-08
5.31700000000000e-01 4.61516924888642e-06 6.63745504749776e-08
5.34300000000000e-01 4.23334778451177e-06 6.10319401130883e-08
5.36900000000000e-01 3.88311511413256e-06 5.61187018764102e-08
5.39500000000000e-01 3.56185783855785e-06 5.16003877014855e-08
5.42100000000000e-01 3.26717876993201e-06 4.74453079082686e-08
5.44700000000000e-01 2.99687904417218e-06 4.36243108089863e-08
5.47300000000000e-01 2.74894171327676e-06 4.01105798821609e-08
5.49900000000000e-01 2.52151669507246e-06 3.68794471158455e-08
5.52500000000000e-01 2.31290696809658e-06 3.39082212346966e-08
5.55100000000000e-01 2.12155590860206e-06 3.11760296273587e-08
5.57700000000000e-01 1.94603567519554e-06 2.86636728844407e-08
5.60300000000000e-01 1.78503655443572e-06 2.63534909437712e-08
5.62900000000000e-01 1.63735718788998e-06 2.42292399191895e-08
5.65500000000000e-01 1.50189560772467e-06 2.22759787624234e-08
5.68100000000000e-01 1.37764101393753e-06 2.04799649750921e-08
5.70700000000000e-01 1.26366623187485e-06 1.88285586500343e-08
5.73300000000000e-01 1.15912079375215e-06 1.73101341783976e-08
5.75900000000000e-01 1.06322459255339e-06 1.59139990116372e-08
5.78500000000000e-01 9.75262060954833e-07 1.46303189161043e-08
5.81100000000000e-01 8.94576831837253e-07 1.34500492026022e-08
5.83700000000000e-01 8.20566840543836e-07 1.23648714544376e-08
5.86300000000000e-01 7.52679832337296e-07 1.13671353153860e-08
5.88900000000000e-01 6.90409241533365e-07 1.04498049338783e-08
5.91500000000000e-01 6.33290411561167e-07 9.60640969183676e-09
5.94100000000000e-01 5.80897127744966e-07 8.83099887616061e-09
5.96700000000000e-01 5.32838436935279e-07 8.11809997808975e-09
5.99300000000000e-01 4.88755730257769e-07 7.46268033073951e-09
6.01900000000000e-01 4.48320067211706e-07 6.86011181817534e-09
6.04500000000000e-01 4.11229721150699e-07 6.30613841063973e-09
6.07100000000000e-01 3.77207927830330e-07 5.79684630009856e-09
6.09700000000000e-01 3.46000820222596e-07 5.32863642827557e-09
6.12300000000000e-01 3.17375534186965e-07 4.89819921591463e-09
6.14900000000000e-01 2.91118470862756e-07 4.50249131726210e-09
6.17500000000000e-01 2.67033702817002e-07 4.13871423780189e-09
6.20100000000000e-01 2.44941512054643e-07 3.80429466619861e-09
6.22700000000000e-01 2.24677048981829e-07 3.49686638329914e-09
6.25300000000000e-01 2.06089102315666e-07 3.21425362199089e-09
6.27900000000000e-01 1.89038970761593e-07 2.95445576179079e-09
6.30500000000000e-01 1.73399428038976e-07 2.71563325131395e-09
6.33100000000000e-01 1.59053773532038e-07 2.49609466030495e-09
6.35700000000000e-01 1.45894961482194e-07 2.29428477077048e-09
6.38300000000000e-01 1.33824802223905e-07 2.10877362398088e-09
6.40900000000000e-01 1.22753229503769e-07 1.93824644676075e-09
6.43500000000000e-01 1.12597628415650e-07 1.78149438661135e-09
6.46100000000000e-01 1.03282218936973e-07 1.63740599084130e-09
6.48700000000000e-01 9.47374904662034e-08 1.50495937006670e-09
6.51300000000000e-01 8.68996831420813e-08 1.38321499121271e-09
6.53900000000000e-01 7.97103120742686e-08 1.27130904953860e-09
6.56500000000000e-01 7.31157309352776e-08 1.16844737324807e-09
6.59100000000000e-01 6.70667316572410e-08 1.07389981796351e-09
6.61700000000000e-01 6.15181772465077e-08 9.86995111763305e-10
6.64300000000000e-01 5.64286649761639e-08 9.07116114628054e-10
6.66900000000000e-01 5.17602174432583e-08 8.33695459037323e-10
6.69500000000000e-01 4.74779991854330e-08 7.66211541122556e-10
6.72100000000000e-01 4.35500567423829e-08 7.04184834232995e-10
6.74700000000000e-01 3.99470802225103e-08 6.47174499026704e-10
6.77300000000000e-01 3.66421845956098e-08 5.94775266273615e-10
6.79900000000000e-01 3.36107090796127e-08 5.46614570466432e-10
6.82500000000000e-01 3.08300331244363e-08 5.02349914091453e-10
6.85100000000000e-01 2.82794076198285e-08 4.61666444027015e-10
6.87700000000000e-01 2.59398000676990e-08 4.24274723023667e-10
6.90300000000000e-01 2.37937525636287e-08 3.89908680587527e-10
6.92900000000000e-01 2.18252515278314e-08 3.58323728846232e-10
6.95500000000000e-01 2.00196082135126e-08 3.29295030134046e-10
6.98100000000000e-01 1.83633491009926e-08 3.02615904097190e-10
7.00700000000000e-01 1.68441153597261e-08 2.78096363099714e-10
7.03300000000000e-01 1.54505706280138e-08 2.55561765610957e-10
7.05900000000000e-01 1.41723164222692e-08 2.34851578084237e-10
7.08500000000000e-01 1.29998145446322e-08 2.15818236598612e-10
7.11100000000000e-01 1.19243159099444e-08 1.98326100236576e-10
7.13700000000000e-01 1.09377952609997e-08 1.82250488815437e-10
7.16300000000000e-01 1.00328912849229e-08 1.67476798183292e-10
7.18900000000000e-01 9.20285168383018e-09 1.53899686836016e-10
7.21500000000000e-01 8.44148278989620e-09 1.41422328113564e-10
7.24100000000000e-01 7.74310334885852e-09 1.29955722695384e-10
7.26700000000000e-01 7.10250212709861e-09 1.19418066539228e-10
7.29300000000000e-01 6.51489902596701e-09 1.09734169798129e-10
7.31900000000000e-01 5.97590941319215e-09 1.00834922609368e-10
7.34500000000000e-01 5.48151140521750e-09 9.26568039795066e-11
7.37100000000000e-01 5.02801585633129e-09 8.51414302933484e-11
7.39700000000000e-01 4.61203883065090e-09 7.82351402539768e-11
7.42300000000000e-01 4.23047635155075e-09 7.18886133179771e-11
7.44900000000000e-01 3.88048124011661e-09 6.60565189261869e-11
7.47500000000000e-01 3.55944186979727e-09 6.06971940476169e-11
7.50100000000000e-01 3.26496267872310e-09 5.57723467540024e-11
7.52700000000000e-01 2.99484629427643e-09 5.12467837262081e-11
7.55300000000000e-01 2.74707713652918e-09 4.70881597626982e-11
7.57900000000000e-01 2.51980637819832e-09 4.32667475156912e-11
7.60500000000000e-01 2.31133814889201e-09 3.97552258235211e-11
7.63100000000000e-01 2.12011688070387e-09 3.65284851391448e-11
7.65700000000000e-01 1.94471570072958e-09 3.35634486755805e-11
7.68300000000000e-01 1.78382578389194e-09 3.08389080001827e-11
7.70900000000000e-01 1.63624658662648e-09 2.83353719118453e-11
7.73500000000000e-01 1.50087688855214e-09 2.60349275291842e-11
7.76100000000000e-01 1.37670657528111e-09 2.39211126041486e-11
7.78700000000000e-01 1.26280910105199e-09 2.19787981549567e-11
7.81300000000000e-01 1.15833457494319e-09 2.01940805853008e-11
7.83900000000000e-01 1.06250341907663e-09 1.85541825239337e-11
7.86500000000000e-01 9.74600551489965e-10 1.70473616805118e-11
7.89100000000000e-01 8.93970050270528e-10 1.56628270703519e-11
7.91700000000000e-01 8.20010259135298e-10 1.43906620129760e-11
7.94300000000000e-01 7.52169297935268e-10 1.32217533573227e-11
7.96900000000000e-01 6.89940944584067e-10 1.21477264306433e-11
7.99500000000000e-01 6.32860857682231e-10 1.11608852486858e-11
8.02100000000000e-01 5.80503111650721e-10 1.02541575620792e-11
8.04700000000000e-01 5.32477018519250e-10 9.42104434814014e-12
8.07300000000000e-01 4.88424212653913e-10 8.65557338886040e-12
8.09900000000000e-01 4.48015976670682e-10 7.95225660483602e-12
8.12500000000000e-01 4.10950788581011e-10 7.30605084155494e-12
8.15100000000000e-01 3.76952071866607e-10 6.71232182897327e-12
8.17700000000000e-01 3.45766131694663e-10 6.16681105784317e-12
8.20300000000000e-01 3.17160261873818e-10 5.66560533697217e-12
