Energy (eV)          EEDF (eV^-(3/2))     First Anisotropy
2.96000000000000e-04 1.25880601693834e+02 5.94019497786855e-02
8.88000000000000e-04 1.24157460530064e+02 9.77467496874404e-02
1.48000000000000e-03 1.22457906920063e+02 1.28131950287693e-01
2.07200000000000e-03 1.20781617981058e+02 1.50672540142036e-01
2.66400000000000e-03 1.19128275250075e+02 1.69027404438067e-01
3.25600000000000e-03 1.17497564623475e+02 1.84594344661484e-01
3.84800000000000e-03 1.15889176297284e+02 1.98103878148029e-01
4.44000000000000e-03 1.14302804708341e+02 2.10001376978574e-01
5.03200000000000e-03 1.12738148476247e+02 2.20584995080131e-01
5.62400000000000e-03 1.11194910346103e+02 2.30067404085327e-01
6.21600000000000e-03 1.09672797132046e+02 2.38607457407966e-01
6.80800000000000e-03 1.08171519661541e+02 2.46328048681173e-01
7.40000000000000e-03 1.06690792720451e+02 2.53326919143027e-01
7.99200000000000e-03 1.05230334998845e+02 2.59683564797747e-01
8.58400000000000e-03 1.03789869037561e+02 2.65463847806473e-01
9.17600000000000e-03 1.02369121175489e+02 2.70723187276937e-01
9.76800000000000e-03 1.00967821497583e+02 2.75508834086545e-01
1.03600000000000e-02 9.95857037835802e+01 2.79861534383733e-01
1.09520000000000e-02 9.82225054574284e+01 2.83816772922398e-01
1.15440000000000e-02 9.68779675373973e+01 2.87405720196661e-01
1.21360000000000e-02 9.55518345868788e+01 2.90655966098436e-01
1.27280000000000e-02 9.42438546658585e+01 2.93592096692525e-01
1.33200000000000e-02 9.29537792830524e+01 2.96236153690383e-01
1.39120000000000e-02 9.16813633486975e+01 2.98608004851853e-01
1.45040000000000e-02 9.04263651279901e+01 3.00725645803930e-01
1.50960000000000e-02 8.91885461951601e+01 3.02605448384328e-01
1.56880000000000e-02 8.79676713881756e+01 3.04262366810140e-01
1.62800000000000e-02 8.67635087640656e+01 3.05710110234737e-01
1.68720000000000e-02 8.55758295548558e+01 3.06961288259495e-01
1.74640000000000e-02 8.44044081241070e+01 3.08027534491397e-01
1.80560000000000e-02 8.32490219240484e+01 3.08919612133297e-01
1.86480000000000e-02 8.21094514532978e+01 3.09647504758277e-01
1.92400000000000e-02 8.09854802151602e+01 3.10220494780673e-01
1.98320000000000e-02 7.98768946764980e+01 3.10647231643235e-01
2.04240000000000e-02 7.87834842271638e+01 3.10935791355667e-01
2.10160000000000e-02 7.77050411399880e+01 3.11093728718065e-01
2.16080000000000e-02 7.66413605313149e+01 3.11128123323819e-01
2.22000000000000e-02 7.55922403220788e+01 3.11045620245871e-01
2.27920000000000e-02 7.45574811994126e+01 3.10852466157366e-01
2.33840000000000e-02 7.35368865787823e+01 3.10554541513817e-01
2.39760000000000e-02 7.25302625666396e+01 3.10157389323374e-01
2.45680000000000e-02 7.15374179235859e+01 3.09666240949444e-01
2.51600000000000e-02 7.05581640280403e+01 3.09086039322129e-01
2.57520000000000e-02 6.95923148404052e+01 3.08421459879108e-01
2.63440000000000e-02 6.86396868677225e+01 3.07676929509942e-01
2.69360000000000e-02 6.77000991288130e+01 3.06856643738840e-01
2.75280000000000e-02 6.67733731198937e+01 3.05964582348635e-01
2.81200000000000e-02 6.58593327806655e+01 3.05004523621073e-01
2.87120000000000e-02 6.49578044608652e+01 3.03980057345306e-01
2.93040000000000e-02 6.40686168872748e+01 3.02894596726960e-01
2.98960000000000e-02 6.31916011311833e+01 3.01751389313203e-01
3.04880000000000e-02 6.23265905762933e+01 3.00553527034954e-01
3.10800000000000e-02 6.14734208870671e+01 2.99303955455134e-01
3.16720000000000e-02 6.06319299775059e+01 2.98005482301181e-01
3.22640000000000e-02 5.98019579803568e+01 2.96660785350896e-01
3.28560000000000e-02 5.89833472167411e+01 2.95272419732855e-01
3.34480000000000e-02 5.81759421661980e+01 2.93842824695678e-01
3.40400000000000e-02 5.73795894371389e+01 2.92374329894431e-01
3.46320000000000e-02 5.65941377377059e+01 2.90869161237293e-01
3.52240000000000e-02 5.58194378470292e+01 2.89329446330980e-01
3.58160000000000e-02 5.50553425868780e+01 2.87757219559360e-01
3.64080000000000e-02 5.43017067936992e+01 2.86154426826244e-01
3.70000000000000e-02 5.35583872910397e+01 2.84522929990165e-01
3.75920000000000e-02 5.28252428623448e+01 2.82864511016211e-01
3.81840000000000e-02 5.21021342241304e+01 2.81180875867551e-01
3.87760000000000e-02 5.13889239995215e+01 2.79473658157082e-01
3.93680000000000e-02 5.06854766921531e+01 2.77744422577721e-01
3.99600000000000e-02 4.99916586604287e+01 2.75994668128217e-01
4.05520000000000e-02 4.93073380921310e+01 2.74225831149692e-01
4.11440000000000e-02 4.86323849793798e+01 2.72439288186856e-01
4.17360000000000e-02 4.79666710939331e+01 2.70636358686559e-01
4.23280000000000e-02 4.73100699628261e+01 2.68818307545249e-01
4.29200000000000e-02 4.66624568443442e+01 2.66986347515937e-01
4.35120000000000e-02 4.60237087043237e+01 2.65141641484382e-01
4.41040000000000e-02 4.53937041927782e+01 2.63285304623297e-01
4.46960000000000e-02 4.47723236208443e+01 2.61418406432814e-01
4.52880000000000e-02 4.41594489380429e+01 2.59541972674668e-01
4.58800000000000e-02 4.35549637098519e+01 2.57656987207009e-01
4.64720000000000e-02 4.29587530955859e+01 2.55764393726218e-01
4.70640000000000e-02 4.23707038265784e+01 2.53865097421532e-01
4.76560000000000e-02 4.17907041846636e+01 2.51959966548005e-01
4.82480000000000e-02 4.12186439809511e+01 2.50049833922714e-01
4.88400000000000e-02 4.06544145348928e+01 2.48135498348883e-01
4.94320000000000e-02 4.00979086536357e+01 2.46217725972268e-01
5.00240000000000e-02 3.95490206116567e+01 2.44297251573736e-01
5.06160000000000e-02 3.90076461306773e+01 2.42374779801775e-01
5.12080000000000e-02 3.84736823598526e+01 2.40450986348355e-01
5.18000000000000e-02 3.79470278562316e+01 2.38526519071376e-01
5.23920000000000e-02 3.74275825654847e+01 2.36601999066658e-01
5.29840000000000e-02 3.69152478028957e+01 2.34678021692269e-01
5.35760000000000e-02 3.64099262346132e+01 2.32755157547808e-01
5.41680000000000e-02 3.59115218591594e+01 2.30833953411043e-01
5.47600000000000e-02 3.54199399891914e+01 2.28914933134146e-01
5.53520000000000e-02 3.49350872335123e+01 2.26998598501703e-01
5.59440000000000e-02 3.44568714793291e+01 2.25085430052473e-01
5.65360000000000e-02 3.39852018747524e+01 2.23175887866721e-01
5.71280000000000e-02 3.35199888115368e+01 2.21270412320890e-01
5.77200000000000e-02 3.30611439080569e+01 2.19369424811273e-01
5.83120000000000e-02 3.26085799925163e+01 2.17473328448183e-01
5.89040000000000e-02 3.21622110863866e+01 2.15582508722093e-01
5.94960000000000e-02 3.17219523880736e+01 2.13697334143108e-01
6.00880000000000e-02 3.12877202568060e+01 2.11818156855053e-01
6.06800000000000e-02 3.08594321967455e+01 2.09945313225335e-01
6.12720000000000e-02 3.04370068413143e+01 2.08079124411772e-01
6.18640000000000e-02 3.00203639377369e+01 2.06219896907473e-01
6.24560000000000e-02 2.96094243317934e+01 2.04367923064720e-01
6.30480000000000e-02 2.92041099527820e+01 2.02523481598823e-01
6.36400000000000e-02 2.88043437986868e+01 2.00686838072904e-01
6.42320000000000e-02 2.84100499215491e+01 1.98858245364418e-01
6.48240000000000e-02 2.80211534130388e+01 1.97037944114215e-01
6.54160000000000e-02 2.76375803902227e+01 1.95226163158924e-01
6.60080000000000e-02 2.72592579815288e+01 1.93423119947405e-01
6.66000000000000e-02 2.68861143129019e+01 1.91629020941912e-01
6.71920000000000e-02 2.65180784941487e+01 1.89844062004634e-01
6.77840000000000e-02 2.61550806054700e+01 1.88068428770250e-01
6.83760000000000e-02 2.57970516841776e+01 1.86302297005089e-01
6.89680000000000e-02 2.54439237115925e+01 1.84545832953404e-01
6.95600000000000e-02 2.50956296001225e+01 1.82799193671319e-01
7.01520000000000e-02 2.47521031805172e+01 1.81062527348994e-01
7.07440000000000e-02 2.44132791892967e+01 1.79335973621422e-01
7.13360000000000e-02 2.40790932563531e+01 1.77619663868341e-01
7.19280000000000e-02 2.37494818927212e+01 1.75913721503692e-01
7.25200000000000e-02 2.34243824785170e+01 1.74218262255052e-01
7.31120000000000e-02 2.31037332510407e+01 1.72533394433419e-01
7.37040000000000e-02 2.27874732930436e+01 1.70859219193710e-01
7.42960000000000e-02 2.24755425211544e+01 1.69195830786377e-01
7.48880000000000e-02 2.21678816744649e+01 1.67543316800435e-01
7.54800000000000e-02 2.18644323032714e+01 1.65901758398272e-01
7.60720000000000e-02 2.15651367579702e+01 1.64271230542507e-01
7.66640000000000e-02 2.12699381781056e+01 1.62651802215213e-01
7.72560000000000e-02 2.09787804815673e+01 1.61043536629824e-01
7.78480000000000e-02 2.06916083539358e+01 1.59446491435936e-01
7.84400000000000e-02 2.04083672379740e+01 1.57860718917310e-01
7.90320000000000e-02 2.01290033232620e+01 1.56286266183316e-01
7.96240000000000e-02 1.98534635359745e+01 1.54723175354026e-01
8.02160000000000e-02 1.95816955287975e+01 1.53171483739245e-01
8.08080000000000e-02 1.93136476709834e+01 1.51631224011633e-01
8.14000000000000e-02 1.90492690385422e+01 1.50102424374168e-01
8.19920000000000e-02 1.87885094045669e+01 1.48585108722155e-01
8.25840000000000e-02 1.85313192296912e+01 1.47079296799940e-01
8.31760000000000e-02 1.82776496526781e+01 1.45585004352538e-01
8.37680000000000e-02 1.80274524811374e+01 1.44102243272353e-01
8.43600000000000e-02 1.77806801823695e+01 1.42631021741171e-01
8.49520000000000e-02 1.75372858743356e+01 1.41171344367539e-01
8.55440000000000e-02 1.72972233167508e+01 1.39723212319735e-01
8.61360000000000e-02 1.70604469022995e+01 1.38286623454495e-01
8.67280000000000e-02 1.68269116479703e+01 1.36861572441572e-01
8.73200000000000e-02 1.65965731865111e+01 1.35448050884333e-01
8.79120000000000e-02 1.63693877579992e+01 1.34046047436497e-01
8.85040000000000e-02 1.61453122015283e+01 1.32655547915145e-01
8.90960000000000e-02 1.59243039470084e+01 1.31276535410135e-01
8.96880000000000e-02 1.57063210070786e+01 1.29908990390036e-01
9.02800000000000e-02 1.54913219691303e+01 1.28552890804692e-01
9.08720000000000e-02 1.52792659874393e+01 1.27208212184533e-01
9.14640000000000e-02 1.50701127754060e+01 1.25874927736727e-01
9.20560000000000e-02 1.48638225979020e+01 1.24553008438300e-01
9.26480000000000e-02 1.46603562637208e+01 1.23242423126306e-01
9.32400000000000e-02 1.44596751181325e+01 1.21943138585131e-01
9.38320000000000e-02 1.42617410355397e+01 1.20655119631046e-01
9.44240000000000e-02 1.40665164122350e+01 1.19378329194088e-01
9.50160000000000e-02 1.38739641592566e+01 1.18112728397347e-01
9.56080000000000e-02 1.36840476953422e+01 1.16858276633749e-01
9.62000000000000e-02 1.34967309399791e+01 1.15614931640417e-01
9.67920000000000e-02 1.33119783065498e+01 1.14382649570679e-01
9.73840000000000e-02 1.31297546955714e+01 1.13161385063805e-01
9.79760000000000e-02 1.29500254880267e+01 1.11951091312532e-01
9.85680000000000e-02 1.27727565387879e+01 1.10751720128460e-01
9.91600000000000e-02 1.25979141701294e+01 1.09563222005375e-01
9.97520000000000e-02 1.24254651653299e+01 1.08385546180572e-01
1.00344000000000e-01 1.22553767623613e+01 1.07218640694226e-01
1.00936000000000e-01 1.20876166476652e+01 1.06062452446895e-01
1.01528000000000e-01 1.19221529500134e+01 1.04916927255184e-01
1.02120000000000e-01 1.17589542344536e+01 1.03782009905652e-01
1.02712000000000e-01 1.15979894963367e+01 1.02657644206988e-01
1.03304000000000e-01 1.14392281554266e+01 1.01543773040543e-01
1.03896000000000e-01 1.12826400500913e+01 1.00440338409242e-01
1.04488000000000e-01 1.11281954315715e+01 9.93472814849311e-02
1.05080000000000e-01 1.09758649583302e+01 9.82645426542135e-02
1.05672000000000e-01 1.08256196904773e+01 9.71920615628104e-02
1.06264000000000e-01 1.06774310842724e+01 9.61297771585043e-02
1.06856000000000e-01 1.05312709867013e+01 9.50776277326946e-02
1.07448000000000e-01 1.03871116301280e+01 9.40355509606156e-02
1.08040000000000e-01 1.02449256270193e+01 9.30034839402509e-02
1.08632000000000e-01 1.01046859647414e+01 9.19813632299828e-02
1.09224000000000e-01 9.96636600042828e+00 9.09691248850276e-02
1.09816000000000e-01 9.82993945592005e+00 8.99667044926752e-02
1.10408000000000e-01 9.69538041277046e+00 8.89740372063810e-02
1.11000000000000e-01 9.56266330732298e+00 8.79910577787393e-02
1.11592000000000e-01 9.43176292585419e+00 8.70177005933660e-02
1.12184000000000e-01 9.30265439978362e+00 8.60538996957389e-02
1.12776000000000e-01 9.17531320094924e+00 8.50995888230082e-02
1.13368000000000e-01 9.04971513694754e+00 8.41547014328161e-02
1.13960000000000e-01 8.92583634653742e+00 8.32191707311672e-02
1.14552000000000e-01 8.80365329510708e+00 8.22929296993467e-02
1.15144000000000e-01 8.68314277020278e+00 8.13759111199399e-02
1.15736000000000e-01 8.56428187711904e+00 8.04680476019795e-02
1.16328000000000e-01 8.44704803454899e+00 7.95692716052304e-02
1.16920000000000e-01 8.33141897029437e+00 7.86795154636505e-02
1.17512000000000e-01 8.21737271703429e+00 7.77987114080432e-02
1.18104000000000e-01 8.10488760815177e+00 7.69267915879323e-02
1.18696000000000e-01 7.99394227361759e+00 7.60636880926840e-02
1.19288000000000e-01 7.88451563593029e+00 7.52093329718831e-02
1.19880000000000e-01 7.77658690611194e+00 7.43636582550007e-02
1.20472000000000e-01 7.67013557975856e+00 7.35265959703725e-02
1.21064000000000e-01 7.56514143314473e+00 7.26980781634951e-02
1.21656000000000e-01 7.46158451938142e+00 7.18780369146816e-02
1.22248000000000e-01 7.35944516462649e+00 7.10664043560719e-02
1.22840000000000e-01 7.25870396434701e+00 7.02631126880328e-02
1.23432000000000e-01 7.15934177963280e+00 6.94680941949635e-02
1.24024000000000e-01 7.06133973356037e+00 6.86812812605132e-02
1.24616000000000e-01 6.96467920760669e+00 6.79026063822431e-02
1.25208000000000e-01 6.86934183811202e+00 6.71320021857407e-02
1.25800000000000e-01 6.77530951279113e+00 6.63694014382006e-02
1.26392000000000e-01 6.68256436729235e+00 6.56147370614923e-02
1.26984000000000e-01 6.59108878180369e+00 6.48679421447284e-02
1.27576000000000e-01 6.50086537770537e+00 6.41289499563466e-02
1.28168000000000e-01 6.41187701426825e+00 6.33976939557251e-02
1.28760000000000e-01 6.32410678539739e+00 6.26741078043366e-02
1.29352000000000e-01 6.23753801642025e+00 6.19581253764577e-02
1.29944000000000e-01 6.15215426091876e+00 6.12496807694504e-02
1.30536000000000e-01 6.06793929760490e+00 6.05487083136269e-02
1.31128000000000e-01 5.98487712723886e+00 5.98551425817036e-02
1.31720000000000e-01 5.90295196958958e+00 5.91689183978676e-02
1.32312000000000e-01 5.82214826043677e+00 5.84899708464585e-02
1.32904000000000e-01 5.74245064861398e+00 5.78182352802788e-02
1.33496000000000e-01 5.66384399309223e+00 5.71536473285469e-02
1.34088000000000e-01 5.58631336010343e+00 5.64961429044967e-02
1.34680000000000e-01 5.50984402030332e+00 5.58456582126433e-02
1.35272000000000e-01 5.43442144597312e+00 5.52021297557227e-02
1.35864000000000e-01 5.36003130825957e+00 5.45654943413025e-02
1.36456000000000e-01 5.28665947445271e+00 5.39356890880876e-02
1.37048000000000e-01 5.21429200530094e+00 5.33126514319359e-02
1.37640000000000e-01 5.14291515236282e+00 5.26963191315702e-02
1.38232000000000e-01 5.07251535539513e+00 5.20866302740098e-02
1.38824000000000e-01 5.00307923977668e+00 5.14835232797357e-02
1.39416000000000e-01 4.93459361396741e+00 5.08869369075865e-02
1.40008000000000e-01 4.86704546700220e+00 5.02968102593896e-02
1.40600000000000e-01 4.80042196601909e+00 4.97130827843549e-02
1.41192000000000e-01 4.73471045382124e+00 4.91356942832222e-02
1.41784000000000e-01 4.66989844647232e+00 4.85645849121686e-02
1.42376000000000e-01 4.60597363092479e+00 4.79996951864949e-02
1.42968000000000e-01 4.54292386268067e+00 4.74409659840887e-02
1.43560000000000e-01 4.48073716348431e+00 4.68883385486737e-02
1.44152000000000e-01 4.41940171904674e+00 4.63417544928527e-02
1.44744000000000e-01 4.35890587680120e+00 4.58011558009515e-02
1.45336000000000e-01 4.29923814368935e+00 4.52664848316668e-02
1.45928000000000e-01 4.24038718397783e+00 4.47376843205246e-02
1.46520000000000e-01 4.18234181710466e+00 4.42146973821571e-02
1.47112000000000e-01 4.12509101555520e+00 4.36974675124040e-02
1.47704000000000e-01 4.06862390276706e+00 4.31859385902413e-02
1.48296000000000e-01 4.01292975106380e+00 4.26800548795448e-02
1.48888000000000e-01 3.95799797961688e+00 4.21797610306940e-02
1.49480000000000e-01 3.90381815243550e+00 4.16850020820190e-02
1.50072000000000e-01 3.85037997638393e+00 4.11957234611002e-02
1.50664000000000e-01 3.79767329922607e+00 4.07118709859168e-02
1.51256000000000e-01 3.74568810769665e+00 4.02333908658612e-02
1.51848000000000e-01 3.69441452559897e+00 3.97602297026140e-02
1.52440000000000e-01 3.64384281192853e+00 3.92923344908858e-02
1.53032000000000e-01 3.59396335902251e+00 3.88296526190339e-02
1.53624000000000e-01 3.54476669073444e+00 3.83721318695570e-02
1.54216000000000e-01 3.49624346063392e+00 3.79197204194691e-02
1.54808000000000e-01 3.44838445023101e+00 3.74723668405560e-02
1.55400000000000e-01 3.40118056722483e+00 3.70300200995247e-02
1.55992000000000e-01 3.35462284377628e+00 3.65926295580450e-02
1.56584000000000e-01 3.30870243480423e+00 3.61601449726848e-02
1.57176000000000e-01 3.26341061630520e+00 3.57325164947453e-02
1.57768000000000e-01 3.21873878369592e+00 3.53096946700049e-02
1.58360000000000e-01 3.17467845017863e+00 3.48916304383610e-02
1.58952000000000e-01 3.13122124512876e+00 3.44782751333896e-02
1.59544000000000e-01 3.08835891250468e+00 3.40695804818153e-02
1.60136000000000e-01 3.04608330927918e+00 3.36654986028937e-02
1.60728000000000e-01 3.00438640389247e+00 3.32659820077207e-02
1.61320000000000e-01 2.96326027472634e+00 3.28709835984565e-02
1.61912000000000e-01 2.92269710859918e+00 3.24804566674781e-02
1.62504000000000e-01 2.88268919928165e+00 3.20943548964618e-02
1.63096000000000e-01 2.84322894603264e+00 3.17126323553910e-02
1.63688000000000e-01 2.80430885215526e+00 3.13352435015017e-02
1.64280000000000e-01 2.76592152357260e+00 3.09621431781611e-02
1.64872000000000e-01 2.72805966742305e+00 3.05932866136850e-02
1.65464000000000e-01 2.69071609067473e+00 3.02286294200959e-02
1.66056000000000e-01 2.65388369875899e+00 2.98681275918215e-02
1.66648000000000e-01 2.61755549422257e+00 2.95117375043435e-02
1.67240000000000e-01 2.58172457539819e+00 2.91594159127896e-02
1.67832000000000e-01 2.54638413509343e+00 2.88111199504760e-02
1.68424000000000e-01 2.51152745929741e+00 2.84668071274009e-02
1.69016000000000e-01 2.47714792590532e+00 2.81264353286918e-02
1.69608000000000e-01 2.44323900346032e+00 2.77899628130104e-02
1.70200000000000e-01 2.40979424991269e+00 2.74573482109114e-02
1.70792000000000e-01 2.37680731139595e+00 2.71285505231629e-02
1.71384000000000e-01 2.34427192101979e+00 2.68035291190272e-02
1.71976000000000e-01 2.31218189767942e+00 2.64822437345050e-02
1.72568000000000e-01 2.28053114488133e+00 2.61646544705420e-02
1.73160000000000e-01 2.24931364958503e+00 2.58507217912056e-02
1.73752000000000e-01 2.21852348106072e+00 2.55404065218256e-02
1.74344000000000e-01 2.18815478976256e+00 2.52336698471046e-02
1.74936000000000e-01 2.15820180621734e+00 2.49304733092029e-02
1.75528000000000e-01 2.12865883992842e+00 2.46307788057916e-02
1.76120000000000e-01 2.09952027829463e+00 2.43345485880813e-02
1.76712000000000e-01 2.07078058554399e+00 2.40417452588253e-02
1.77304000000000e-01 2.04243430168201e+00 2.37523317702989e-02
1.77896000000000e-01 2.01447604145440e+00 2.34662714222588e-02
1.78488000000000e-01 1.98690049332398e+00 2.31835278598785e-02
1.79080000000000e-01 1.95970241846156e+00 2.29040650716655e-02
1.79672000000000e-01 1.93287664975071e+00 2.26278473873593e-02
1.80264000000000e-01 1.90641809080607e+00 2.23548394758130e-02
1.80856000000000e-01 1.88032171500515e+00 2.20850063428582e-02
1.81448000000000e-01 1.85458256453336e+00 2.18183133291525e-02
1.82040000000000e-01 1.82919574944212e+00 2.15547261080174e-02
1.82632000000000e-01 1.80415644671986e+00 2.12942106832590e-02
1.83224000000000e-01 1.77945989937576e+00 2.10367333869775e-02
1.83816000000000e-01 1.75510141553597e+00 2.07822608773684e-02
1.84408000000000e-01 1.73107636755230e+00 2.05307601365086e-02
1.85000000000000e-01 1.70738019112301e+00 2.02821984681364e-02
1.85592000000000e-01 1.68400838442570e+00 2.00365434954222e-02
1.86184000000000e-01 1.66095650726202e+00 1.97937631587320e-02
1.86776000000000e-01 1.63822018021418e+00 1.95538257133841e-02
