Energy (eV)          EEDF (eV^-(3/2))     First Anisotropy
7.24000000000000e-02 3.59277165980139e-01 5.82013407404324e-04
2.17200000000000e-01 3.35273151020720e-01 9.32097615949198e-04
3.62000000000000e-01 3.12872891570232e-01 1.15603679578500e-03
5.06800000000000e-01 2.91969237564952e-01 1.28618511681949e-03
6.51600000000000e-01 2.72462197847920e-01 1.36515398516342e-03
7.96400000000000e-01 2.54258461868280e-01 1.41058109527882e-03
9.41200000000000e-01 2.37270953336830e-01 1.43227955893819e-03
1.08600000000000e+00 2.21418413702719e-01 1.43652142471276e-03
1.23080000000000e+00 2.06625013458900e-01 1.42764780176832e-03
1.37560000000000e+00 1.92819989417016e-01 1.40881950274143e-03
1.52040000000000e+00 1.79937306216672e-01 1.38241814202635e-03
1.66520000000000e+00 1.67915340449942e-01 1.35028184057444e-03
1.81000000000000e+00 1.56696585890133e-01 1.31385382807218e-03
1.95480000000000e+00 1.46227378414801e-01 1.27428133677822e-03
2.09960000000000e+00 1.36457639307200e-01 1.23248428954406e-03
2.24440000000000e+00 1.27340635708266e-01 1.18920468159854e-03
2.38920000000000e+00 1.18832757073276e-01 1.14504309869721e-03
2.53400000000000e+00 1.10893306563881e-01 1.10048636081989e-03
2.67880000000000e+00 1.03484306377643e-01 1.05592886023660e-03
2.82360000000000e+00 9.65703160838919e-02 1.01168930460981e-03
2.96840000000000e+00 9.01182630969206e-02 9.68024037956998e-04
3.11320000000000e+00 8.40972844756014e-02 9.25137764281010e-04
3.25800000000000e+00 7.84785792926794e-02 8.83192267087224e-04
3.40280000000000e+00 7.32352708675653e-02 8.42313560017680e-04
3.54760000000000e+00 6.83422782036265e-02 8.02597793634705e-04
3.69240000000000e+00 6.37761960150058e-02 7.64116164974925e-04
3.83720000000000e+00 5.95151827690843e-02 7.26919019686042e-04
3.98200000000000e+00 5.55388562090487e-02 6.91039294723072e-04
4.12680000000000e+00 5.18281958568006e-02 6.56495418309035e-04
4.27160000000000e+00 4.83654520298392e-02 6.23293760169665e-04
4.41640000000000e+00 4.51340609369049e-02 5.91430706871840e-04
4.56120000000000e+00 4.21185654462499e-02 5.60894422986527e-04
4.70600000000000e+00 3.93045411475374e-02 5.31666347731970e-04
4.85080000000000e+00 3.66785273536900e-02 5.03722467990262e-04
4.99560000000000e+00 3.42279627126412e-02 4.77034401589132e-04
5.14040000000000e+00 3.19411251209926e-02 4.51570319100506e-04
5.28520000000000e+00 2.98070756521569e-02 4.27295727828924e-04
5.43000000000000e+00 2.78156062307737e-02 4.04174137920264e-04
5.57480000000000e+00 2.59571908030995e-02 3.82167627442015e-04
5.71960000000000e+00 2.42229397698002e-02 3.61237320737713e-04
5.86440000000000e+00 2.26045574631793e-02 3.41343792237258e-04
6.00920000000000e+00 2.10943024654347e-02 3.22447406130658e-04
6.15400000000000e+00 1.96849505781327e-02 3.04508600821879e-04
6.29880000000000e+00 1.83697602657629e-02 2.87488125821205e-04
6.44360000000000e+00 1.71424404080781e-02 2.71347237668239e-04
6.58840000000000e+00 1.59971202069633e-02 2.56047860570982e-04
6.73320000000000e+00 1.49283211038869e-02 2.41552716672752e-04
6.87800000000000e+00 1.39309305736009e-02 2.27825430196464e-04
7.02280000000000e+00 1.30001776687372e-02 2.14830609147489e-04
7.16760000000000e+00 1.21316101983163e-02 2.02533907767211e-04
7.31240000000000e+00 1.13210734310055e-02 1.90902072507611e-04
7.45720000000000e+00 1.05646902212541e-02 1.79902973932614e-04
7.60200000000000e+00 9.85884246324065e-03 1.69505626636182e-04
7.74680000000000e+00 9.20015378391841e-03 1.59680198993309e-04
7.89160000000000e+00 8.58547339237286e-03 1.50398014322059e-04
8.03640000000000e+00 8.01186100823507e-03 1.41631544827785e-04
8.18120000000000e+00 7.47657279705769e-03 1.33354399520357e-04
8.32600000000000e+00 6.97704824537602e-03 1.25541307137940e-04
8.47080000000000e+00 6.51089791267219e-03 1.18168094973663e-04
8.61560000000000e+00 6.07589200165469e-03 1.11211664381627e-04
8.76040000000000e+00 5.66994969218005e-03 1.04649963633977e-04
8.90520000000000e+00 5.29112918779621e-03 9.84619587091440e-05
9.05000000000000e+00 4.93761842729591e-03 9.26276025112793e-05
9.19480000000000e+00 4.60772641684952e-03 8.71278029508106e-05
9.33960000000000e+00 4.29987514125512e-03 8.19443902547728e-05
9.48440000000000e+00 4.01259201561393e-03 7.70600838219273e-05
9.62920000000000e+00 3.74450284132409e-03 7.24584588908044e-05
9.77400000000000e+00 3.49432523269848e-03 6.81239132478243e-05
9.91880000000000e+00 3.26086248276303e-03 6.40416341668439e-05
1.00636000000000e+01 3.04299783889320e-03 6.01975657402304e-05
1.02084000000000e+01 2.83968916090646e-03 5.65783767343090e-05
1.03532000000000e+01 2.64996393605807e-03 5.31714290782907e-05
1.04980000000000e+01 2.47291462709488e-03 4.99647470751417e-05
1.06428000000000e+01 2.30769433111478e-03 4.69469874049193e-05
1.07876000000000e+01 2.15351272846629e-03 4.41074099755599e-05
1.09324000000000e+01 2.00963230231017e-03 4.14358496626633e-05
1.10772000000000e+01 1.87536481075955e-03 3.89226889682218e-05
1.12220000000000e+01 1.75006799472334e-03 3.65588316182707e-05
1.13668000000000e+01 1.63314250570507e-03 3.43356771108979e-05
1.15116000000000e+01 1.52402903886159e-03 3.22450962187549e-05
1.16564000000000e+01 1.42220565760771e-03 3.02794074440216e-05
1.18012000000000e+01 1.32718529696932e-03 2.84313544185500e-05
1.19460000000000e+01 1.23851343374236e-03 2.66940842375295e-05
1.20908000000000e+01 1.15576591231311e-03 2.50611267113715e-05
1.22356000000000e+01 1.07854691573965e-03 2.35263745175137e-05
1.23804000000000e+01 1.00648707238943e-03 2.20840642314092e-05
1.25252000000000e+01 9.39241689076025e-04 2.07287582140230e-05
1.26700000000000e+01 8.76489102243582e-04 1.94553273316390e-05
1.28148000000000e+01 8.17929139311849e-04 1.82589344826350e-05
1.29596000000000e+01 7.63281682821769e-04 1.71350189050544e-05
1.31044000000000e+01 7.12285330513338e-04 1.60792812382511e-05
1.32492000000000e+01 6.64696144926309e-04 1.50876693115709e-05
1.33940000000000e+01 6.20286486542521e-04 1.41563646329186e-05
1.35388000000000e+01 5.78843924888298e-04 1.32817695501197e-05
1.36836000000000e+01 5.40170222388232e-04 1.24604950581941e-05
1.38284000000000e+01 5.04080386109709e-04 1.16893492259854e-05
1.39732000000000e+01 4.70401782862233e-04 1.09653262160222e-05
1.41180000000000e+01 4.38973313418721e-04 1.02855958720018e-05
1.42628000000000e+01 4.09644641908694e-04 9.64749384887213e-06
1.44076000000000e+01 3.82275476697226e-04 9.04851226112682e-06
1.45524000000000e+01 3.56734899309786e-04 8.48629082560855e-06
1.46972000000000e+01 3.32900738192936e-04 7.95860847583424e-06
1.48420000000000e+01 3.10658984315307e-04 7.46337542559176e-06
1.49868000000000e+01 2.89903245813429e-04 6.99862566031423e-06
1.51316000000000e+01 2.70534239073735e-04 6.56250983550159e-06
1.52764000000000e+01 2.52459313816399e-04 6.15328856222761e-06
1.54212000000000e+01 2.35592009909236e-04 5.76932606053702e-06
1.55660000000000e+01 2.19851643791754e-04 5.40908416229859e-06
1.57108000000000e+01 2.05162922531021e-04 5.07111664583290e-06
1.58556000000000e+01 1.91455583663226e-04 4.75406388537384e-06
1.60004000000000e+01 1.78664059098125e-04 4.45664779914965e-06
1.61452000000000e+01 1.66727161478705e-04 4.17766708057939e-06
1.62900000000000e+01 1.55587791495766e-04 3.91599269777328e-06
1.64348000000000e+01 1.45192664757396e-04 3.67056364719896e-06
1.65796000000000e+01 1.35492056906838e-04 3.44038294802910e-06
1.67244000000000e+01 1.26439565769528e-04 3.22451386431832e-06
1.68692000000000e+01 1.17991889391562e-04 3.02207634276939e-06
1.70140000000000e+01 1.10108618907847e-04 2.83224365443848e-06
1.71588000000000e+01 1.02752045249141e-04 2.65423922929779e-06
1.73036000000000e+01 9.58869787633776e-05 2.48733367312077e-06
1.74484000000000e+01 8.94805808884401e-05 2.33084195668053e-06
1.75932000000000e+01 8.35022070712142e-05 2.18412076775613e-06
1.77380000000000e+01 7.79232601815251e-05 2.04656601692478e-06
1.78828000000000e+01 7.27170537197798e-05 1.91761048858060e-06
1.80276000000000e+01 6.78586841639747e-05 1.79672162906296e-06
1.81724000000000e+01 6.33249118454523e-05 1.68339946420067e-06
1.83172000000000e+01 5.90940497835822e-05 1.57717463898188e-06
1.84620000000000e+01 5.51458599476168e-05 1.47760657244504e-06
1.86068000000000e+01 5.14614564494960e-05 1.38428172125346e-06
1.87516000000000e+01 4.80232152045319e-05 1.29681194576602e-06
1.88964000000000e+01 4.48146896278402e-05 1.21483297274984e-06
1.90412000000000e+01 4.18205319632602e-05 1.13800294919782e-06
1.91860000000000e+01 3.90264198684434e-05 1.06600108201503e-06
1.93308000000000e+01 3.64189879049378e-05 9.98526358625168e-07
1.94756000000000e+01 3.39857636055537e-05 9.35296343819637e-07
1.96204000000000e+01 3.17151078131959e-05 8.76046048430891e-07
1.97652000000000e+01 2.95961590057748e-05 8.20526865656477e-07
1.99100000000000e+01 2.76187813408803e-05 7.68505571092954e-07
2.00548000000000e+01 2.57735161716939e-05 7.19763382759352e-07
2.01996000000000e+01 2.40515368022169e-05 6.74095077598835e-07
2.03444000000000e+01 2.24446062653925e-05 6.31308161145257e-07
2.04892000000000e+01 2.09450379221532e-05 5.91222087228724e-07
2.06340000000000e+01 1.95456586929244e-05 5.53667524771861e-07
2.07788000000000e+01 1.82397747457035e-05 5.18485668896438e-07
2.09236000000000e+01 1.70211394765855e-05 4.85527593718911e-07
2.10684000000000e+01 1.58839236295736e-05 4.54653644363756e-07
2.12132000000000e+01 1.48226874127429e-05 4.25732865865530e-07
2.13580000000000e+01 1.38323544773795e-05 3.98642466764985e-07
2.15028000000000e+01 1.29081876356236e-05 3.73267315331380e-07
2.16476000000000e+01 1.20457662004648e-05 3.49499466463114e-07
2.17924000000000e+01 1.12409648396973e-05 3.27237717431973e-07
2.19372000000000e+01 1.04899338426836e-05 3.06387190743253e-07
2.20820000000000e+01 9.78908070553512e-06 2.86858942484890e-07
2.22268000000000e+01 9.13505294662229e-06 2.68569594634040e-07
2.23716000000000e+01 8.52472207021516e-06 2.51440989879399e-07
2.25164000000000e+01 7.95516860154420e-06 2.35399867602323e-07
2.26612000000000e+01 7.42366812169835e-06 2.20377559739813e-07
2.28060000000000e+01 6.92767823555904e-06 2.06309705327812e-07
2.29508000000000e+01 6.46482641043210e-06 1.93135982594378e-07
2.30956000000000e+01 6.03289862720476e-06 1.80799857539283e-07
2.32404000000000e+01 5.62982878974108e-06 1.69248347999799e-07
2.33852000000000e+01 5.25368884185657e-06 1.58431802261902e-07
2.35300000000000e+01 4.90267954459725e-06 1.48303691332217e-07
2.36748000000000e+01 4.57512186970674e-06 1.38820414038885e-07
2.38196000000000e+01 4.26944896811288e-06 1.29941114179207e-07
2.39644000000000e+01 3.98419867501553e-06 1.21627508978851e-07
2.41092000000000e+01 3.71800651572417e-06 1.13843728171471e-07
2.42540000000000e+01 3.46959917878932e-06 1.06556163049132e-07
2.43988000000000e+01 3.23778842520689e-06 9.97333248730302e-08
2.45436000000000e+01 3.02146540456057e-06 9.33457120707863e-08
2.46884000000000e+01 2.81959535091396e-06 8.73656856812153e-08
2.48332000000000e+01 2.63121263308056e-06 8.17673525400520e-08
2.49780000000000e+01 2.45541613559497e-06 7.65264557307690e-08
2.51228000000000e+01 2.29136494829058e-06 7.16202718534518e-08
2.52676000000000e+01 2.13827434386493e-06 6.70275146918194e-08
2.54124000000000e+01 1.99541202419195e-06 6.27282448839859e-08
2.55572000000000e+01 1.86209461742544e-06 5.87037852265459e-08
2.57020000000000e+01 1.73768440913798e-06 5.49366412641180e-08
2.58468000000000e+01 1.62158629185884e-06 5.14104268376896e-08
2.59916000000000e+01 1.51324491841930e-06 4.81097942850411e-08
2.61364000000000e+01 1.41214204548861e-06 4.50203690052637e-08
2.62812000000000e+01 1.31779405459348e-06 4.21286881170009e-08
2.64260000000000e+01 1.22974963876319e-06 3.94221429565974e-08
2.65708000000000e+01 1.14758764373445e-06 3.68889251778920e-08
2.67156000000000e+01 1.07091505338965e-06 3.45179762300118e-08
2.68604000000000e+01 9.99365109791942e-07 3.22989400032531e-08
2.70052000000000e+01 9.32595558824474e-07 3.02221184460443e-08
2.71500000000000e+01 8.70287013041913e-07 2.82784299681010e-08
2.72948000000000e+01 8.12141423903099e-07 2.64593704562708e-08
2.74396000000000e+01 7.57880656076835e-07 2.47569767402615e-08
2.75844000000000e+01 7.07245157001112e-07 2.31637923554862e-08
2.77292000000000e+01 6.59992715331708e-07 2.16728354596939e-08
2.78740000000000e+01 6.15897302341283e-07 2.02775687689112e-08
2.80188000000000e+01 5.74747990726868e-07 1.89718713865359e-08
2.81636000000000e+01 5.36347945653975e-07 1.77500124072327e-08
2.83084000000000e+01 5.00513483211019e-07 1.66066261846143e-08
2.84532000000000e+01 4.67073191770265e-07 1.55366891585690e-08
2.85980000000000e+01 4.35867112052378e-07 1.45354981445632e-08
2.87428000000000e+01 4.06745971972469e-07 1.35986499933042e-08
2.88876000000000e+01 3.79570472607595e-07 1.27220225348467e-08
2.90324000000000e+01 3.54210621870166e-07 1.19017567265646e-08
2.91772000000000e+01 3.30545112699946e-07 1.11342399294260e-08
2.93220000000000e+01 3.08460742800279e-07 1.04160902417116e-08
2.94668000000000e+01 2.87851873142868e-07 9.74414182373381e-09
2.96116000000000e+01 2.68619922650925e-07 9.11543115125514e-09
2.97564000000000e+01 2.50672896643531e-07 8.52718413919149e-09
2.99012000000000e+01 2.33924946785558e-07 7.97680408083257e-09
3.00460000000000e+01 2.18295960438204e-07 7.46186035123350e-09
3.01908000000000e+01 2.03711177445824e-07 6.98007782664012e-09
3.03356000000000e+01 1.90100832525994e-07 6.52932697482182e-09
3.04804000000000e+01 1.77399821552192e-07 6.10761457400948e-09
3.06252000000000e+01 1.65547390132793e-07 5.71307502078539e-09
3.07700000000000e+01 1.54486842996718e-07 5.34396218975566e-09
3.09148000000000e+01 1.44165272795593e-07 4.99864181016632e-09
3.10596000000000e+01 1.34533307025177e-07 4.67558432680963e-09
3.12044000000000e+01 1.25544871855462e-07 4.37335821461600e-09
3.13492000000000e+01 1.17156971739755e-07 4.09062371824880e-09
3.14940000000000e+01 1.09329483748504e-07 3.82612698982132e-09
3.16388000000000e+01 1.02024965644093e-07 3.57869459954502e-09
3.17836000000000e+01 9.52084767785311e-08 3.34722839570206e-09
3.19284000000000e+01 8.88474109573292e-08 3.13070069182086e-09
3.20732000000000e+01 8.29113404700595e-08 2.92814976032573e-09
3.22180000000000e+01 7.73718705415473e-08 2.73867561323751e-09
3.23628000000000e+01 7.22025035074632e-08 2.56143605172587e-09
3.25076000000000e+01 6.73785120646120e-08 2.39564296746115e-09
3.26524000000000e+01 6.28768209896184e-08 2.24055887978952e-09
3.27972000000000e+01 5.86758967602216e-08 2.09549369376309e-09
3.29420000000000e+01 5.47556445511874e-08 1.95980166500152e-09
3.30868000000000e+01 5.10973121121268e-08 1.83287855824761e-09
3.32316000000000e+01 4.76834000674271e-08 1.71415898730913e-09
3.33764000000000e+01 4.44975782092204e-08 1.60311392485755e-09
3.35212000000000e+01 4.15246073829845e-08 1.49924837128300e-09
3.36660000000000e+01 3.87502665921203e-08 1.40209917248857e-09
3.38108000000000e+01 3.61612849728157e-08 1.31123297714685e-09
3.39556000000000e+01 3.37452783138037e-08 1.22624432454225e-09
3.41004000000000e+01 3.14906898173592e-08 1.14675385468442e-09
3.42452000000000e+01 2.93867348181711e-08 1.07240663290520e-09
3.43900000000000e+01 2.74233491956553e-08 1.00287058164533e-09
3.45348000000000e+01 2.55911412329426e-08 9.37835012599222e-10
3.46796000000000e+01 2.38813466922623e-08 8.77009252820157e-10
3.48244000000000e+01 2.22857868918278e-08 8.20121358793697e-10
3.49692000000000e+01 2.07968295836886e-08 7.66916912867931e-10
3.51140000000000e+01 1.94073524454094e-08 7.17157896785345e-10
3.52588000000000e+01 1.81107090109421e-08 6.70621637395059e-10
3.54036000000000e+01 1.69006968777240e-08 6.27099819936938e-10
3.55484000000000e+01 1.57715280379214e-08 5.86397564582092e-10
3.56932000000000e+01 1.47178011919021e-08 5.48332562188697e-10
3.58380000000000e+01 1.37344759114985e-08 5.12734265489209e-10
3.59828000000000e+01 1.28168485294747e-08 4.79443132165850e-10
3.61276000000000e+01 1.19605296398656e-08 4.48309916496787e-10
3.62724000000000e+01 1.11614231015624e-08 4.19195006466714e-10
3.64172000000000e+01 1.04157064447097e-08 3.91967803433447e-10
3.65620000000000e+01 9.71981258619084e-09 3.66506141627425e-10
3.67068000000000e+01 9.07041276673645e-09 3.42695744934662e-10
3.68516000000000e+01 8.46440062803904e-09 3.20429718576191e-10
3.69964000000000e+01 7.89887735370682e-09 2.99608073449310e-10
3.71412000000000e+01 7.37113780297955e-09 2.80137281038543e-10
3.72860000000000e+01 6.87865757087826e-09 2.61929856937707e-10
3.74308000000000e+01 6.41908091289173e-09 2.44903971149541e-10
3.75756000000000e+01 5.99020947643859e-09 2.28983083446416e-10
3.77204000000000e+01 5.58999178520245e-09 2.14095602185310e-10
3.78652000000000e+01 5.21651342603949e-09 2.00174565072885e-10
3.80100000000000e+01 4.86798789151794e-09 1.87157340472633e-10
3.81548000000000e+01 4.54274803428558e-09 1.74985347936074e-10
3.82996000000000e+01 4.23923809238783e-09 1.63603796724292e-10
3.84444000000000e+01 3.95600624738990e-09 1.52961441164970e-10
3.85892000000000e+01 3.69169767970565e-09 1.43010351764012e-10
3.87340000000000e+01 3.44504808791341e-09 1.33705701059985e-10
3.88788000000000e+01 3.21487764105920e-09 1.25005563274395e-10
3.90236000000000e+01 3.00008533501845e-09 1.16870726871453e-10
3.91684000000000e+01 2.79964372592028e-09 1.09264519197733e-10
3.93132000000000e+01 2.61259401544209e-09 1.02152642425303e-10
3.94580000000000e+01 2.43804146446532e-09 9.55030200716161e-11
3.96028000000000e+01 2.27515111315386e-09 8.92856534160810e-11
3.97476000000000e+01 2.12314378698251e-09 8.34724871767802e-11
3.98924000000000e+01 1.98129236961042e-09 7.80372838516560e-11
4.00372000000000e+01 1.84891832477139e-09 7.29555061666754e-11
4.01820000000000e+01 1.72538845054333e-09 6.82042071092571e-11
4.03268000000000e+01 1.61011185047150e-09 6.37619270587152e-11
4.04716000000000e+01 1.50253710705689e-09 5.96085975568197e-11
4.06164000000000e+01 1.40214964408949e-09 5.57254512909026e-11
4.07612000000000e+01 1.30846926520920e-09 5.20949378893921e-11
4.09060000000000e+01 1.22104785692035e-09 4.87006451553591e-11
4.10508000000000e+01 1.13946724507236e-09 4.55272253877123e-11
4.11956000000000e+01 1.06333719455312e-09 4.25603264621898e-11
4.13404000000000e+01 9.92293542626851e-10 3.97865273653662e-11
4.14852000000000e+01 9.25996456987243e-10 3.71932778946159e-11
4.16300000000000e+01 8.64128810193593e-10 3.47688422554280e-11
4.17748000000000e+01 8.06394662714009e-10 3.25022463047431e-11
4.19196000000000e+01 7.52517847319497e-10 3.03832282051484e-11
4.20644000000000e+01 7.02240648057468e-10 2.84021922698968e-11
4.22092000000000e+01 6.55322567485631e-10 2.65501657928737e-11
4.23540000000000e+01 6.11539176269408e-10 2.48187586708874e-11
4.24988000000000e+01 5.70681039640019e-10 2.32001256380555e-11
4.26436000000000e+01 5.32552715578010e-10 2.16869309436667e-11
4.27884000000000e+01 4.96971819930120e-10 2.02723153157573e-11
4.29332000000000e+01 4.63768153987521e-10 1.89498650627990e-11
4.30780000000000e+01 4.32782890352287e-10 1.77135831754062e-11
4.32228000000000e+01 4.03867813197711e-10 1.65578622988703e-11
4.33676000000000e+01 3.76884609288342e-10 1.54774594556512e-11
4.35124000000000e+01 3.51704206368361e-10 1.44674724047487e-11
4.36572000000000e+01 3.28206155753532e-10 1.35233175321691e-11
4.38020000000000e+01 3.06278056173406e-10 1.26407091735174e-11
4.39468000000000e+01 2.85815016107754e-10 1.18156402761359e-11
4.40916000000000e+01 2.66719152045372e-10 1.10443643141752e-11
4.42364000000000e+01 2.48899120265194e-10 1.03233783755751e-11
4.43812000000000e+01 2.32269679900036e-10 9.64940734516088e-12
4.45260000000000e+01 2.16751285192908e-10 9.01938911294951e-12
4.46708000000000e+01 2.02269704995492e-10 8.43046074134107e-12
4.48156000000000e+01 1.88755667688663e-10 7.87994552914856e-12
4.49604000000000e+01 1.76144529826586e-10 7.36534091442853e-12
4.51052000000000e+01 1.64375966919336e-10 6.88430716182166e-12
4.52500000000000e+01 1.53393684874957e-10 6.43465678361954e-12
4.53948000000000e+01 1.43145150720629e-10 6.01434464705429e-12
4.55396000000000e+01 1.33581341314898e-10 5.62145872337736e-12
4.56844000000000e+01 1.24656508848929e-10 5.25421143716499e-12
