Energy (eV)          EEDF (eV^-(3/2))     First Anisotropy
1.49253731343284e-03 6.14981926400228e-01 3.89419918632013e-08
4.47761194029851e-03 6.14981895253725e-01 1.20428633590490e-07
7.46268656716418e-03 6.14981815038151e-01 2.98874969567968e-07
1.04477611940299e-02 6.14981680942966e-01 5.29188433950956e-07
1.34328358208955e-02 6.14981494005056e-01 7.97378031963748e-07
1.64179104477612e-02 6.14981253883401e-01 1.08544601480494e-06
1.94029850746269e-02 6.14980967601325e-01 1.37506638809295e-06
2.23880597014925e-02 6.14980639824056e-01 1.66821657131298e-06
2.53731343283582e-02 6.14980273348027e-01 1.97078050118015e-06
2.83582089552239e-02 6.14979868596729e-01 2.28595360126603e-06
3.13432835820895e-02 6.14979426262256e-01 2.60330273942361e-06
3.43283582089552e-02 6.14978950031897e-01 2.92462836276799e-06
3.73134328358209e-02 6.14978439197765e-01 3.26161469947898e-06
4.02985074626866e-02 6.14977893088916e-01 3.61677029310263e-06
4.32835820895522e-02 6.14977310208591e-01 3.99349063722736e-06
4.62686567164179e-02 6.14976688936831e-01 4.39125211048593e-06
4.92537313432836e-02 6.14976028104223e-01 4.80464345133829e-06
5.22388059701493e-02 6.14975327774129e-01 5.22088640444321e-06
5.52238805970149e-02 6.14974590341936e-01 5.64313943291506e-06
5.82089552238806e-02 6.14973814723538e-01 6.08345787511211e-06
6.11940298507463e-02 6.14972999915385e-01 6.54187903850723e-06
6.41791044776119e-02 6.14972144891216e-01 7.01924289184520e-06
6.71641791044776e-02 6.14971248496161e-01 7.51620771952243e-06
7.01492537313433e-02 6.14970309606247e-01 8.01981695855329e-06
7.31343283582090e-02 6.14969330311034e-01 8.51804309160230e-06
7.61194029850746e-02 6.14968312267714e-01 9.02255298951932e-06
7.91044776119403e-02 6.14967254552376e-01 9.54397421408579e-06
8.20895522388060e-02 6.14966156266718e-01 1.00824749954047e-05
8.50746268656716e-02 6.14965016496028e-01 1.06384568370359e-05
8.80597014925373e-02 6.14963834297459e-01 1.12120199516547e-05
9.10447761194030e-02 6.14962608777326e-01 1.18030212807345e-05
9.40298507462687e-02 6.14961339063287e-01 1.24116166208414e-05
9.70149253731343e-02 6.14960024264040e-01 1.30380014066366e-05
1.00000000000000e-01 6.14958663499594e-01 1.36673553719925e-05
1.02985074626866e-01 6.14957259016660e-01 1.42825858629665e-05
1.05970149253731e-01 6.14955813380645e-01 1.48953854272620e-05
1.08955223880597e-01 6.14954326227075e-01 1.55197216251314e-05
1.11940298507463e-01 6.14952797186261e-01 1.61556462055713e-05
1.14925373134328e-01 6.14951225882868e-01 1.68032143705976e-05
1.17910447761194e-01 6.14949611936332e-01 1.74624803901185e-05
1.20895522388060e-01 6.14947954961221e-01 1.81334977667132e-05
1.23880597014925e-01 6.14946254567544e-01 1.88163193879504e-05
1.26865671641791e-01 6.14944510361024e-01 1.95109976604698e-05
1.29850746268657e-01 6.14942721943332e-01 2.02175846117683e-05
1.32835820895522e-01 6.14940888912287e-01 2.09361319783390e-05
1.35820895522388e-01 6.14939010862037e-01 2.16666912895635e-05
1.38805970149254e-01 6.14937087383213e-01 2.24093139251398e-05
1.41791044776119e-01 6.14935118063066e-01 2.31640511937148e-05
1.44776119402985e-01 6.14933102485579e-01 2.39309543772700e-05
1.47761194029851e-01 6.14931040231576e-01 2.47100747581609e-05
1.50746268656716e-01 6.14928930878809e-01 2.55014636714781e-05
1.53731343283582e-01 6.14926774002040e-01 2.63051725344501e-05
1.56716417910448e-01 6.14924569173105e-01 2.71212528694788e-05
1.59701492537313e-01 6.14922315960977e-01 2.79497563314190e-05
1.62686567164179e-01 6.14920013931820e-01 2.87907347197211e-05
1.65671641791045e-01 6.14917662649033e-01 2.96442399957539e-05
1.68656716417910e-01 6.14915261673288e-01 3.05103242826096e-05
1.71641791044776e-01 6.14912810562573e-01 3.13890391372940e-05
1.74626865671642e-01 6.14910308872335e-01 3.22804315206324e-05
1.77611940298507e-01 6.14907756156139e-01 3.31845345727785e-05
1.80597014925373e-01 6.14905151967226e-01 3.41013416661726e-05
1.83582089552239e-01 6.14902495863101e-01 3.50307685006413e-05
1.86567164179104e-01 6.14899787412696e-01 3.59726014670603e-05
1.89552238805970e-01 6.14897026208409e-01 3.69264831104928e-05
1.92537313432836e-01 6.14894211874780e-01 3.78919782730930e-05
1.95522388059701e-01 6.14891344069837e-01 3.88686886645528e-05
1.98507462686567e-01 6.14888422476309e-01 3.98563704161617e-05
2.01492537313433e-01 6.14885446785872e-01 4.07911059790233e-05
2.04477611940299e-01 6.14882426693169e-01 4.16704469135042e-05
2.07462686567164e-01 6.14879362104828e-01 4.25560843810700e-05
2.10447761194030e-01 6.14876252975121e-01 4.34476460905528e-05
2.13432835820896e-01 6.14873099257976e-01 4.43450876756723e-05
2.16417910447761e-01 6.14869900906921e-01 4.52483665316618e-05
2.19402985074627e-01 6.14866657875035e-01 4.61574417455478e-05
2.22388059701493e-01 6.14863370114897e-01 4.70722740212210e-05
2.25373134328358e-01 6.14860037578549e-01 4.79928256174018e-05
2.28358208955224e-01 6.14856660217453e-01 4.89190602919090e-05
2.31343283582090e-01 6.14853237982454e-01 4.98509432356475e-05
2.34328358208955e-01 6.14849770823753e-01 5.07884410355091e-05
2.37313432835821e-01 6.14846258690868e-01 5.17315216153650e-05
2.40298507462687e-01 6.14842701532611e-01 5.26801541926703e-05
2.43283582089552e-01 6.14839099297060e-01 5.36343092414432e-05
2.46268656716418e-01 6.14835451931533e-01 5.45939584345988e-05
2.49253731343284e-01 6.14831759382568e-01 5.55590746113375e-05
2.52238805970149e-01 6.14828021595900e-01 5.65296317338127e-05
2.55223880597015e-01 6.14824238516446e-01 5.75056048519533e-05
2.58208955223881e-01 6.14820410088279e-01 5.84869700750431e-05
2.61194029850746e-01 6.14816536254622e-01 5.94737045265533e-05
2.64179104477612e-01 6.14812616957825e-01 6.04657863071607e-05
2.67164179104478e-01 6.14808652139354e-01 6.14631944748281e-05
2.70149253731343e-01 6.14804641739780e-01 6.24659088962408e-05
2.73134328358209e-01 6.14800585698781e-01 6.34739094432508e-05
2.76119402985075e-01 6.14796483955230e-01 6.44871738377430e-05
2.79104477611940e-01 6.14792336447472e-01 6.55056720016295e-05
2.82089552238806e-01 6.14788143114127e-01 6.65293554735170e-05
2.85074626865672e-01 6.14783903895694e-01 6.75581426838651e-05
2.88059701492537e-01 6.14779618737159e-01 6.85919073678195e-05
2.91044776119403e-01 6.14775287590966e-01 6.96304886585696e-05
2.94029850746269e-01 6.14770910418204e-01 7.06737213202704e-05
2.97014925373134e-01 6.14766487187683e-01 7.17214749848984e-05
3.00000000000000e-01 6.14762017872232e-01 7.27678462172799e-05
3.02985074626866e-01 6.14757503437537e-01 7.38423428856255e-05
3.05970149253731e-01 6.14752940503748e-01 7.50205760978486e-05
3.08955223880597e-01 6.14748320557750e-01 7.63396468215020e-05
3.11940298507463e-01 6.14743635574296e-01 7.77933684921139e-05
3.14925373134328e-01 6.14738877992655e-01 7.93757779545144e-05
3.17910447761194e-01 6.14734040694549e-01 8.10811257684357e-05
3.20895522388060e-01 6.14729116983216e-01 8.29038675930414e-05
3.23880597014925e-01 6.14724100563539e-01 8.48386559812871e-05
3.26865671641791e-01 6.14718985523183e-01 8.68803325746066e-05
3.29850746268657e-01 6.14713766314678e-01 8.90239206196350e-05
3.32835820895522e-01 6.14708437738396e-01 9.12646178373854e-05
3.35820895522388e-01 6.14702994926380e-01 9.35977896304161e-05
3.38805970149254e-01 6.14697433326961e-01 9.60189625691084e-05
3.41791044776119e-01 6.14691748690141e-01 9.85238181675735e-05
3.44776119402985e-01 6.14685937053681e-01 1.01108186922806e-04
3.47761194029851e-01 6.14679994729876e-01 1.03768042620753e-04
3.50746268656716e-01 6.14673918292961e-01 1.06499496879716e-04
3.53731343283582e-01 6.14667704567126e-01 1.09298793927120e-04
3.56716417910448e-01 6.14661350615106e-01 1.12162305600328e-04
3.59701492537313e-01 6.14654853727318e-01 1.15086526544085e-04
3.62686567164179e-01 6.14648211411506e-01 1.18068069614245e-04
3.65671641791045e-01 6.14641421382884e-01 1.21103661468235e-04
3.68656716417910e-01 6.14634481554740e-01 1.24190138339182e-04
3.71641791044776e-01 6.14627390029479e-01 1.27324441858241e-04
3.74626865671642e-01 6.14620145090101e-01 1.30503614509198e-04
3.77611940298507e-01 6.14612745192136e-01 1.33724794372440e-04
3.80597014925373e-01 6.14605188956068e-01 1.36985207240041e-04
3.83582089552239e-01 6.14597475160483e-01 1.40282156963666e-04
3.86567164179104e-01 6.14589602735883e-01 1.43613014271202e-04
3.89552238805970e-01 6.14581570759352e-01 1.46975211584096e-04
3.92537313432836e-01 6.14573378449179e-01 1.50366251209445e-04
3.95522388059702e-01 6.14565025158814e-01 1.53783722869532e-04
3.98507462686567e-01 6.14556510369760e-01 1.57225320149119e-04
4.01492537313433e-01 6.14547833683992e-01 1.60625016968303e-04
4.04477611940299e-01 6.14539003091355e-01 1.64061403457822e-04
4.07462686567164e-01 6.14530009665946e-01 1.67674720974171e-04
4.10447761194030e-01 6.14520844930521e-01 1.71457676410806e-04
4.13432835820896e-01 6.14511500900783e-01 1.75402644780380e-04
4.16417910447761e-01 6.14501970063488e-01 1.79502275757304e-04
4.19402985074627e-01 6.14492245355479e-01 1.83749484426868e-04
4.22388059701493e-01 6.14482320143612e-01 1.88137442387926e-04
4.25373134328358e-01 6.14472188205526e-01 1.92659569197897e-04
4.28358208955224e-01 6.14461843711227e-01 1.97309524147359e-04
4.31343283582090e-01 6.14451281205432e-01 2.02081198333271e-04
4.34328358208955e-01 6.14440495590664e-01 2.06968707017050e-04
4.37313432835821e-01 6.14429482111040e-01 2.11966382252421e-04
4.40298507462687e-01 6.14418236336736e-01 2.17068765791116e-04
4.43283582089552e-01 6.14406754149094e-01 2.22270602229132e-04
4.46268656716418e-01 6.14395031726347e-01 2.27566832405815e-04
4.49253731343284e-01 6.14383065529924e-01 2.32952587041891e-04
4.52238805970149e-01 6.14370852291329e-01 2.38423180588658e-04
4.55223880597015e-01 6.14358388999544e-01 2.43974105293688e-04
4.58208955223881e-01 6.14345672888955e-01 2.49601025481435e-04
4.61194029850746e-01 6.14332701427773e-01 2.55299772043244e-04
4.64179104477612e-01 6.14319472306915e-01 2.61066337104575e-04
4.67164179104478e-01 6.14305983429347e-01 2.66896868889351e-04
4.70149253731343e-01 6.14292232899850e-01 2.72787666693825e-04
4.73134328358209e-01 6.14278219015213e-01 2.78735175882114e-04
4.76119402985075e-01 6.14263940254829e-01 2.84735982631541e-04
4.79104477611940e-01 6.14249395271729e-01 2.90786807785451e-04
4.82089552238806e-01 6.14234582884094e-01 2.96884499349242e-04
4.85074626865672e-01 6.14219502067321e-01 3.03026023965402e-04
4.88059701492537e-01 6.14204151946660e-01 3.09208459569921e-04
4.91044776119403e-01 6.14188531790250e-01 3.15428996201287e-04
4.94029850746269e-01 6.14172641001862e-01 3.21684941805090e-04
4.97014925373134e-01 6.14156479113547e-01 3.27973730778407e-04
5.00000000000000e-01 6.14140045777705e-01 3.34247039733923e-04
5.02985074626866e-01 6.14123345815029e-01 3.40463002880262e-04
5.05970149253731e-01 6.14106383517315e-01 3.46678437654987e-04
5.08955223880597e-01 6.14089157557660e-01 3.52942934400368e-04
5.11940298507463e-01 6.14071666812054e-01 3.59252514425032e-04
5.14925373134328e-01 6.14053910350510e-01 3.65603336261850e-04
5.17910447761194e-01 6.14035887428474e-01 3.71991692273317e-04
5.20895522388060e-01 6.14017597478545e-01 3.78414004893214e-04
5.23880597014925e-01 6.13999040102499e-01 3.84866822987937e-04
5.26865671641791e-01 6.13980215063591e-01 3.91346818316035e-04
5.29850746268657e-01 6.13961122279152e-01 3.97850782113259e-04
5.32835820895522e-01 6.13941761813431e-01 4.04375621760496e-04
5.35820895522388e-01 6.13922133870718e-01 4.10918357559031e-04
5.38805970149254e-01 6.13902238788693e-01 4.17476119602008e-04
5.41791044776119e-01 6.13882077032031e-01 4.24046144718963e-04
5.44776119402985e-01 6.13861649186229e-01 4.30625773533631e-04
5.47761194029851e-01 6.13840955951651e-01 4.37212447588439e-04
5.50746268656716e-01 6.13819998137798e-01 4.43803706539441e-04
5.53731343283582e-01 6.13798776657775e-01 4.50397185465223e-04
5.56716417910448e-01 6.13777292522962e-01 4.56990612216578e-04
5.59701492537313e-01 6.13755546837871e-01 4.63581804851112e-04
5.62686567164179e-01 6.13733540795193e-01 4.70168669164574e-04
5.65671641791045e-01 6.13711275671023e-01 4.76749196254049e-04
5.68656716417910e-01 6.13688752820252e-01 4.83321460151487e-04
5.71641791044776e-01 6.13665973672133e-01 4.89883615500153e-04
5.74626865671642e-01 6.13642939726005e-01 4.96433895064937e-04
5.77611940298507e-01 6.13619652547193e-01 5.02970606883923e-04
5.80597014925373e-01 6.13596113763108e-01 5.09492130446761e-04
5.83582089552239e-01 6.13572325059601e-01 5.15996912018008e-04
5.86567164179104e-01 6.13548288177594e-01 5.22483460172442e-04
5.89552238805970e-01 6.13524004909935e-01 5.28950343732943e-04
5.92537313432836e-01 6.13499477098286e-01 5.35396194250720e-04
5.95522388059701e-01 6.13474706629794e-01 5.41819713667366e-04
5.98507462686567e-01 6.13449695433289e-01 5.48219679146647e-04
6.01492537313433e-01 6.13424445475609e-01 5.54711136758635e-04
6.04477611940298e-01 6.13398948128534e-01 5.61628759162955e-04
6.07462686567164e-01 6.13373174842159e-01 5.69285871897273e-04
6.10447761194030e-01 6.13347088674311e-01 5.77759393436086e-04
6.13432835820896e-01 6.13320654489240e-01 5.87015133974133e-04
6.16417910447761e-01 6.13293838890570e-01 5.97020000532431e-04
6.19402985074627e-01 6.13266610156673e-01 6.07741962523778e-04
6.22388059701493e-01 6.13238938178367e-01 6.19150018481433e-04
6.25373134328358e-01 6.13210794398845e-01 6.31214163880485e-04
6.28358208955224e-01 6.13182151755774e-01 6.43905360007539e-04
6.31343283582090e-01 6.13152984625450e-01 6.57195503786584e-04
6.34328358208955e-01 6.13123268768978e-01 6.71057398559450e-04
6.37313432835821e-01 6.13092981280357e-01 6.85464725787123e-04
6.40298507462687e-01 6.13062100536439e-01 7.00392017585530e-04
6.43283582089552e-01 6.13030606148679e-01 7.15814630154505e-04
6.46268656716418e-01 6.12998478916607e-01 7.31708718005996e-04
6.49253731343284e-01 6.12965700782971e-01 7.48051208977997e-04
6.52238805970149e-01 6.12932254790487e-01 7.64819780038542e-04
6.55223880597015e-01 6.12898125040136e-01 7.81992833807830e-04
6.58208955223881e-01 6.12863296650958e-01 7.99549475824363e-04
6.61194029850746e-01 6.12827755721284e-01 8.17469492475777e-04
6.64179104477612e-01 6.12791489291365e-01 8.35733329633460e-04
6.67164179104478e-01 6.12754485307332e-01 8.54322071924736e-04
6.70149253731343e-01 6.12716732586458e-01 8.73217422611171e-04
6.73134328358209e-01 6.12678220783666e-01 8.92401683993103e-04
6.76119402985075e-01 6.12638940359250e-01 9.11857738169547e-04
6.79104477611940e-01 6.12598882547782e-01 9.31569027916048e-04
6.82089552238806e-01 6.12558039328189e-01 9.51519537258514e-04
6.85074626865672e-01 6.12516403395011e-01 9.71693772212651e-04
6.88059701492537e-01 6.12473968130790e-01 9.92076741541060e-04
6.91044776119403e-01 6.12430727579604e-01 1.01265394638602e-03
6.94029850746269e-01 6.12386676420855e-01 1.03341136964508e-03
6.97014925373134e-01 6.12341809944256e-01 1.05433546235437e-03
7.00000000000000e-01 6.12296124025347e-01 1.07536580465423e-03
7.02985074626866e-01 6.12249619638724e-01 1.09659828883595e-03
7.05970149253731e-01 6.12202284968579e-01 1.11860101660985e-03
7.08955223880597e-01 6.12154072064941e-01 1.14199246168506e-03
7.11940298507463e-01 6.12104916206534e-01 1.16694064718629e-03
7.14925373134328e-01 6.12054755731277e-01 1.19338242623267e-03
7.17910447761194e-01 6.12003531940386e-01 1.22125633160600e-03
7.20895522388060e-01 6.11951189005305e-01 1.25050253343282e-03
7.23880597014925e-01 6.11897673877393e-01 1.28106279796522e-03
7.26865671641791e-01 6.11842936200274e-01 1.31288044739779e-03
7.29850746268657e-01 6.11786928224779e-01 1.34590032073523e-03
7.32835820895522e-01 6.11729604726392e-01 1.38006873560293e-03
7.35820895522388e-01 6.11670922925139e-01 1.41533345092765e-03
7.38805970149254e-01 6.11610842407845e-01 1.45164363051155e-03
7.41791044776119e-01 6.11549325052686e-01 1.48894980746666e-03
7.44776119402985e-01 6.11486334955982e-01 1.52720384943856e-03
7.47761194029851e-01 6.11421838361161e-01 1.56635892467269e-03
7.50746268656716e-01 6.11355803589829e-01 1.60636946886492e-03
7.53731343283582e-01 6.11288200974893e-01 1.64719115275509e-03
7.56716417910448e-01 6.11219002795676e-01 1.68878085049204e-03
7.59701492537313e-01 6.11148183214965e-01 1.73109660871140e-03
7.62686567164179e-01 6.11075718217945e-01 1.77409761634101e-03
7.65671641791045e-01 6.11001585552956e-01 1.81774417509761e-03
7.68656716417910e-01 6.10925764674028e-01 1.86199767064615e-03
7.71641791044776e-01 6.10848236685145e-01 1.90682054439352e-03
7.74626865671642e-01 6.10768984286192e-01 1.95217626576156e-03
7.77611940298507e-01 6.10687991720541e-01 1.99802930474256e-03
7.80597014925373e-01 6.10605244724266e-01 2.04434510414644e-03
7.83582089552239e-01 6.10520730476991e-01 2.09109005165754e-03
7.86567164179104e-01 6.10434437554343e-01 2.13823145317239e-03
7.89552238805970e-01 6.10346355881882e-01 2.18573750827738e-03
7.92537313432836e-01 6.10256476690419e-01 2.23357729163961e-03
7.95522388059702e-01 6.10164792472244e-01 2.28172074054427e-03
7.98507462686567e-01 6.10071296938150e-01 2.33013863730331e-03
8.01492537313433e-01 6.09975984975871e-01 2.37877157865292e-03
8.04477611940299e-01 6.09878855119160e-01 2.42737102323458e-03
8.07462686567164e-01 6.09779922324583e-01 2.47557060599317e-03
8.10447761194030e-01 6.09679214569347e-01 2.52320883168788e-03
8.13432835820896e-01 6.09576759574213e-01 2.57028837976899e-03
8.16417910447761e-01 6.09472584803679e-01 2.61681198482185e-03
8.19402985074627e-01 6.09366717466069e-01 2.66278243840676e-03
8.22388059701493e-01 6.09259184513539e-01 2.70820259062035e-03
8.25373134328358e-01 6.09150012642006e-01 2.75307535143443e-03
8.28358208955224e-01 6.09039228291011e-01 2.79740369189737e-03
8.31343283582090e-01 6.08926857643526e-01 2.84119064512621e-03
8.34328358208955e-01 6.08812926625704e-01 2.88443930718473e-03
8.37313432835821e-01 6.08697460906592e-01 2.92715283783313e-03
8.40298507462687e-01 6.08580485897796e-01 2.96933446112265e-03
8.43283582089552e-01 6.08462026753117e-01 3.01098746591852e-03
8.46268656716418e-01 6.08342108368151e-01 3.05211520629704e-03
8.49253731343284e-01 6.08220755379870e-01 3.09272110184176e-03
8.52238805970149e-01 6.08097992166175e-01 3.13280863784891e-03
8.55223880597015e-01 6.07973842845440e-01 3.17238136544082e-03
8.58208955223881e-01 6.07848331276032e-01 3.21144290162299e-03
8.61194029850746e-01 6.07721481055831e-01 3.24999692921047e-03
8.64179104477612e-01 6.07593315521731e-01 3.28804719673116e-03
8.67164179104478e-01 6.07463857749151e-01 3.32559751826175e-03
8.70149253731343e-01 6.07333130551531e-01 3.36265177315554e-03
8.73134328358209e-01 6.07201156479837e-01 3.39921390564168e-03
8.76119402985075e-01 6.07067957822077e-01 3.43528792412483e-03
8.79104477611940e-01 6.06933556602841e-01 3.47087790013107e-03
8.82089552238806e-01 6.06797974582886e-01 3.50598796589249e-03
8.85074626865672e-01 6.06661233258868e-01 3.54062231283254e-03
8.88059701492537e-01 6.06523353863025e-01 3.57478519252369e-03
8.91044776119403e-01 6.06384357362788e-01 3.60848091648104e-03
8.94029850746269e-01 6.06244264460462e-01 3.64171386374712e-03
8.97014925373134e-01 6.06103095592140e-01 3.67448848344720e-03
9.00000000000000e-01 6.05960870927144e-01 3.70681096693411e-03
9.02985074626866e-01 6.05817610238654e-01 3.73886597207006e-03
9.05970149253731e-01 6.05673319312017e-01 3.77099733548659e-03
9.08955223880597e-01 6.05527991391410e-01 3.80335276054774e-03
9.11940298507463e-01 6.05381620923481e-01 3.83591203422009e-03
9.14925373134328e-01 6.05234202737480e-01 3.86866565130637e-03
9.17910447761194e-01 6.05085732037288e-01 3.90160425876943e-03
9.20895522388060e-01 6.04936204393507e-01 3.93471865583395e-03
9.23880597014925e-01 6.04785615735612e-01 3.96799979410923e-03
9.26865671641791e-01 6.04633962344159e-01 4.00143877760265e-03
9.29850746268657e-01 6.04481240843065e-01 4.03502686268741e-03
9.32835820895522e-01 6.04327448191948e-01 4.06875545803772e-03
9.35820895522388e-01 6.04172581678530e-01 4.10261612442478e-03
9.38805970149254e-01 6.04016638911119e-01 4.13660057447392e-03
9.41791044776119e-01 6.03859617811147e-01 4.17070067237113e-03
