Energy (eV)          EEDF (eV^-(3/2))     First Anisotropy
7.50000000000000e-02 6.68700087157038e-02 6.41531970767651e-05
2.25000000000000e-01 6.53509008019375e-02 1.05085156439294e-04
3.75000000000000e-01 6.38663029607587e-02 1.36490578406173e-04
5.25000000000000e-01 6.24154312155209e-02 1.59032371454505e-04
6.75000000000000e-01 6.09975193994421e-02 1.76772512710011e-04
8.25000000000000e-01 5.96118187510036e-02 1.91285562220084e-04
9.75000000000000e-01 5.82575975185481e-02 2.03405627998785e-04
1.12500000000000e+00 5.69341405738611e-02 2.13647747107083e-04
1.27500000000000e+00 5.56407490345298e-02 2.22360852121611e-04
1.42500000000000e+00 5.43767398948829e-02 2.29796623145667e-04
1.57500000000000e+00 5.31414456653125e-02 2.36144997903559e-04
1.72500000000000e+00 5.19342140197912e-02 2.41554310480433e-04
1.87500000000000e+00 5.07544074513957e-02 2.46143546758583e-04
2.02500000000000e+00 4.96014029356568e-02 2.50010221311224e-04
2.17500000000000e+00 4.84745916015561e-02 2.53235666373580e-04
2.32500000000000e+00 4.73733784099980e-02 2.55888712824903e-04
2.47500000000000e+00 4.62971818395851e-02 2.58028330075406e-04
2.62500000000000e+00 4.52454335795322e-02 2.59705568207039e-04
2.77500000000000e+00 4.42175782295566e-02 2.60965018513111e-04
2.92500000000000e+00 4.32130730065859e-02 2.61845933070138e-04
3.07500000000000e+00 4.22313874581287e-02 2.62383097494936e-04
3.22500000000000e+00 4.12720031821569e-02 2.62607521515635e-04
3.37500000000000e+00 4.03344135533512e-02 2.62546992707724e-04
3.52500000000000e+00 3.94181234555657e-02 2.62226525848666e-04
3.67500000000000e+00 3.85226490203703e-02 2.61668731526574e-04
3.82500000000000e+00 3.76475173715330e-02 2.60894121490929e-04
3.97500000000000e+00 3.67922663753058e-02 2.59921363871559e-04
4.12500000000000e+00 3.59564443963848e-02 2.58767498247912e-04
4.27500000000000e+00 3.51396100594134e-02 2.57448118250778e-04
4.42500000000000e+00 3.43413320159037e-02 2.55977527673967e-04
4.57500000000000e+00 3.35611887164526e-02 2.54368874794267e-04
4.72500000000000e+00 3.27987681881333e-02 2.52634268627367e-04
4.87500000000000e+00 3.20536678169429e-02 2.50784880103178e-04
5.02500000000000e+00 3.13254941351930e-02 2.48831030567597e-04
5.17500000000000e+00 3.06138626137293e-02 2.46782269567539e-04
5.32500000000000e+00 2.99183974588729e-02 2.44647443521272e-04
5.47500000000000e+00 2.92387314139727e-02 2.42434756594332e-04
5.62500000000000e+00 2.85745055654675e-02 2.40151824875953e-04
5.77500000000000e+00 2.79253691533532e-02 2.37805724769295e-04
5.92500000000000e+00 2.72909793859558e-02 2.35403036361509e-04
6.07500000000000e+00 2.66710012589119e-02 2.32949882419579e-04
6.22500000000000e+00 2.60651073782623e-02 2.30451963559237e-04
6.37500000000000e+00 2.54729777875636e-02 2.27914590052869e-04
6.52500000000000e+00 2.48942997989279e-02 2.25342710674842e-04
6.67500000000000e+00 2.43287678279005e-02 2.22740938926380e-04
6.82500000000000e+00 2.37760832320890e-02 2.20113576935013e-04
6.97500000000000e+00 2.32359541534581e-02 2.17464637283887e-04
7.12500000000000e+00 2.27080953642074e-02 2.14797862992732e-04
7.27500000000000e+00 2.21922281161496e-02 2.12116745843843e-04
7.42500000000000e+00 2.16880799935117e-02 2.09424543222169e-04
7.57500000000000e+00 2.11953847690788e-02 2.06724293617895e-04
7.72500000000000e+00 2.07138822636074e-02 2.04018830922099e-04
7.87500000000000e+00 2.02433182084307e-02 2.01310797630807e-04
8.02500000000000e+00 1.97834441111869e-02 1.98602657059433e-04
8.17500000000000e+00 1.93340171245965e-02 1.95896704658213e-04
8.32500000000000e+00 1.88947999182214e-02 1.93195078509256e-04
8.47500000000000e+00 1.84655605531367e-02 1.90499769077099e-04
8.62500000000000e+00 1.80460723594503e-02 1.87812628277080e-04
8.77500000000000e+00 1.76361138166041e-02 1.85135377919180e-04
8.92500000000000e+00 1.72354684363956e-02 1.82469617579131e-04
9.07500000000000e+00 1.68439246486553e-02 1.79816831943400e-04
9.22500000000000e+00 1.64612756895228e-02 1.77178397670093e-04
9.37500000000000e+00 1.60873194922603e-02 1.74555589803835e-04
9.52500000000000e+00 1.57218585805460e-02 1.71949587779040e-04
9.67500000000000e+00 1.53646999641927e-02 1.69361481042802e-04
9.82500000000000e+00 1.50156550372344e-02 1.66792274325833e-04
9.97500000000000e+00 1.46745394783288e-02 1.64242892587286e-04
1.01250000000000e+01 1.43411731534219e-02 1.61714185657072e-04
1.02750000000000e+01 1.40153800206242e-02 1.59206932597193e-04
1.04250000000000e+01 1.36969880372472e-02 1.56721845801833e-04
1.05750000000000e+01 1.33858290689530e-02 1.54259574854242e-04
1.07250000000000e+01 1.30817388009662e-02 1.51820710157024e-04
1.08750000000000e+01 1.27845566513042e-02 1.49405786351045e-04
1.10250000000000e+01 1.24941256859779e-02 1.47015285536988e-04
1.11750000000000e+01 1.22102925361193e-02 1.44649640312476e-04
1.13250000000000e+01 1.19329073169910e-02 1.42309236636674e-04
1.14750000000000e+01 1.16618235488364e-02 1.39994416533398e-04
1.16250000000000e+01 1.13968980795275e-02 1.37705480642889e-04
1.17750000000000e+01 1.11379910089703e-02 1.35442690631716e-04
1.19250000000000e+01 1.08849656152270e-02 1.33206271469512e-04
1.20750000000000e+01 1.06376882823168e-02 1.30996413580669e-04
1.22250000000000e+01 1.03960284296572e-02 1.28813274878548e-04
1.23750000000000e+01 1.01598584431074e-02 1.26656982689173e-04
1.25250000000000e+01 9.92905360757885e-03 1.24527635570949e-04
1.26750000000000e+01 9.70349204117673e-03 1.22425305036484e-04
1.28250000000000e+01 9.48305463083706e-03 1.20350037182174e-04
1.29750000000000e+01 9.26762496942645e-03 1.18301854230838e-04
1.31250000000000e+01 9.05708929427050e-03 1.16280755992351e-04
1.32750000000000e+01 8.85133642707880e-03 1.14286721246886e-04
1.34250000000000e+01 8.65025771523459e-03 1.12319709055085e-04
1.35750000000000e+01 8.45374697441826e-03 1.10379659999215e-04
1.37250000000000e+01 8.26170043253420e-03 1.08466497359101e-04
1.38750000000000e+01 8.07401667491152e-03 1.06580128226382e-04
1.40250000000000e+01 7.89059659074964e-03 1.04720444560439e-04
1.41750000000000e+01 7.71134332078057e-03 1.02887324189127e-04
1.43250000000000e+01 7.53616220612004e-03 1.01080631757258e-04
1.44750000000000e+01 7.36496073828071e-03 9.93002196255967e-05
1.46250000000000e+01 7.19764851032086e-03 9.75459287229918e-05
1.47750000000000e+01 7.03413716910295e-03 9.58175893540914e-05
1.49250000000000e+01 6.87434036863657e-03 9.41150219649406e-05
1.50750000000000e+01 6.71817372448154e-03 9.24380378686595e-05
1.52250000000000e+01 6.56555476918666e-03 9.07864399332559e-05
1.53750000000000e+01 6.41640290874084e-03 8.91600232334988e-05
1.55250000000000e+01 6.27063938001360e-03 8.75585756686970e-05
1.56750000000000e+01 6.12818720916229e-03 8.59818785481128e-05
1.58250000000000e+01 5.98897117098430e-03 8.44297071456306e-05
1.59750000000000e+01 5.85291774919260e-03 8.29018312252439e-05
1.61250000000000e+01 5.71995509759377e-03 8.13980155388170e-05
1.62750000000000e+01 5.59001300214792e-03 7.99180202974977e-05
1.64250000000000e+01 5.46302284389052e-03 7.84616016181021e-05
1.65750000000000e+01 5.33891756269657e-03 7.70285119457041e-05
1.67250000000000e+01 5.21763162186789e-03 7.56185004536079e-05
1.68750000000000e+01 5.09910097352499e-03 7.42313134218168e-05
1.70250000000000e+01 4.98326302478505e-03 7.28666945950564e-05
1.71750000000000e+01 4.87005660470828e-03 7.15243855213483e-05
1.73250000000000e+01 4.75942193199522e-03 7.02041258720944e-05
1.74750000000000e+01 4.65130058341775e-03 6.89056537445644e-05
1.76250000000000e+01 4.54563546296740e-03 6.76287059476463e-05
1.77750000000000e+01 4.44237077170445e-03 6.63730182716805e-05
1.79250000000000e+01 4.34145197829198e-03 6.51383257431370e-05
1.80750000000000e+01 4.24282579019933e-03 6.39243628648809e-05
1.82250000000000e+01 4.14644012555973e-03 6.27308638427220e-05
1.83750000000000e+01 4.05224408566728e-03 6.15575627989039e-05
1.85250000000000e+01 3.96018792809863e-03 6.04041939731775e-05
1.86750000000000e+01 3.87022304044541e-03 5.92704919120514e-05
1.88250000000000e+01 3.78230191464324e-03 5.81561916467869e-05
1.89750000000000e+01 3.69637812188403e-03 5.70610288606892e-05
1.91250000000000e+01 3.61240628809816e-03 5.59847400462073e-05
1.92750000000000e+01 3.53034206999359e-03 5.49270626523367e-05
1.94250000000000e+01 3.45014213163942e-03 5.38877352227970e-05
1.95750000000000e+01 3.37176412158129e-03 5.28664975254240e-05
1.97250000000000e+01 3.29516665047671e-03 5.18630906732067e-05
1.98750000000000e+01 3.22030926923846e-03 5.08772572373757e-05
2.00250000000000e+01 3.14715244767449e-03 4.99087413529281e-05
2.01750000000000e+01 3.07565755361310e-03 4.89572888169550e-05
2.03250000000000e+01 3.00578683250229e-03 4.80226471801257e-05
2.04750000000000e+01 2.93750338747259e-03 4.71045658316623e-05
2.06250000000000e+01 2.87077115985282e-03 4.62027960781234e-05
2.07750000000000e+01 2.80555491012846e-03 4.53170912163018e-05
2.09250000000000e+01 2.74182019933259e-03 4.44472066005250e-05
2.10750000000000e+01 2.67953337085960e-03 4.35928997046368e-05
2.12250000000000e+01 2.61866153269201e-03 4.27539301789237e-05
2.13750000000000e+01 2.55917254003111e-03 4.19300599022370e-05
2.15250000000000e+01 2.50103497832210e-03 4.11210530295519e-05
2.16750000000000e+01 2.44421814666493e-03 4.03266760351925e-05
2.18250000000000e+01 2.38869204160197e-03 3.95466977519396e-05
2.19750000000000e+01 2.33442734127396e-03 3.87808894062342e-05
2.21250000000000e+01 2.28139538993595e-03 3.80290246496732e-05
2.22750000000000e+01 2.22956818282491e-03 3.72908795869862e-05
2.24250000000000e+01 2.17891835137124e-03 3.65662328006750e-05
2.25750000000000e+01 2.12941914874609e-03 3.58548653724936e-05
2.27250000000000e+01 2.08104443573707e-03 3.51565609019297e-05
2.28750000000000e+01 2.03376866694487e-03 3.44711055218415e-05
2.30250000000000e+01 1.98756687729339e-03 3.37982879114093e-05
2.31750000000000e+01 1.94241466884635e-03 3.31378993065412e-05
2.33250000000000e+01 1.89828819792338e-03 3.24897335078676e-05
2.34750000000000e+01 1.85516416250883e-03 3.18535868864603e-05
2.36250000000000e+01 1.81301978994656e-03 3.12292583873959e-05
2.37750000000000e+01 1.77183282491435e-03 3.06165495312864e-05
2.39250000000000e+01 1.73158151767140e-03 3.00152644138914e-05
2.40750000000000e+01 1.69224461257293e-03 2.94252097039166e-05
2.42250000000000e+01 1.65380133684562e-03 2.88461946391044e-05
2.43750000000000e+01 1.61623138961801e-03 2.82780310207156e-05
2.45250000000000e+01 1.57951493120024e-03 2.77205332064977e-05
2.46750000000000e+01 1.54363257260716e-03 2.71735181022272e-05
2.48250000000000e+01 1.50856536531957e-03 2.66368051519127e-05
2.49750000000000e+01 1.47429479127798e-03 2.61102163267418e-05
2.51250000000000e+01 1.44080275310374e-03 2.55935761128485e-05
2.52750000000000e+01 1.40807156454227e-03 2.50867114979760e-05
2.54250000000000e+01 1.37608394112346e-03 2.45894519571072e-05
2.55750000000000e+01 1.34482299103415e-03 2.41016294371288e-05
2.57250000000000e+01 1.31427220619805e-03 2.36230783405940e-05
2.58750000000000e+01 1.28441545355825e-03 2.31536355086467e-05
2.60250000000000e+01 1.25523696655779e-03 2.26931402031629e-05
2.61750000000000e+01 1.22672133681373e-03 2.22414340881698e-05
2.63250000000000e+01 1.19885350598045e-03 2.17983612105920e-05
2.64750000000000e+01 1.17161875779769e-03 2.13637679803762e-05
2.66250000000000e+01 1.14500271031928e-03 2.09375031500442e-05
2.67750000000000e+01 1.11899130831848e-03 2.05194177937192e-05
2.69250000000000e+01 1.09357081586571e-03 2.01093652856673e-05
2.70750000000000e+01 1.06872780907501e-03 1.97072012784015e-05
2.72250000000000e+01 1.04444916901525e-03 1.93127836803826e-05
2.73750000000000e+01 1.02072207478236e-03 1.89259726333536e-05
2.75250000000000e+01 9.97533996728943e-04 1.85466304893509e-05
2.76750000000000e+01 9.74872689847713e-04 1.81746217874189e-05
2.78250000000000e+01 9.52726187305232e-04 1.78098132300635e-05
2.79750000000000e+01 9.31082794122539e-04 1.74520736594753e-05
2.81250000000000e+01 9.09931080999344e-04 1.71012740335510e-05
2.82750000000000e+01 8.89259878278523e-04 1.67572874017422e-05
2.84250000000000e+01 8.69058270047712e-04 1.64199888807571e-05
2.85750000000000e+01 8.49315588374905e-04 1.60892556301365e-05
2.87250000000000e+01 8.30021407675012e-04 1.57649668277351e-05
2.88750000000000e+01 8.11165539204371e-04 1.54470036451260e-05
2.90250000000000e+01 7.92738025680355e-04 1.51352492229474e-05
2.91750000000000e+01 7.74729136023190e-04 1.48295886462186e-05
2.93250000000000e+01 7.57129360217231e-04 1.45299089196365e-05
2.94750000000000e+01 7.39929404288979e-04 1.42360989428764e-05
2.96250000000000e+01 7.23120185399174e-04 1.39480494859113e-05
2.97750000000000e+01 7.06692827046399e-04 1.36656531643668e-05
2.99250000000000e+01 6.90638654379626e-04 1.33888044149255e-05
3.00750000000000e+01 6.74949189617264e-04 1.31173994707978e-05
3.02250000000000e+01 6.59616147570266e-04 1.28513363372686e-05
3.03750000000000e+01 6.44631431266942e-04 1.25905147673365e-05
3.05250000000000e+01 6.29987127677160e-04 1.23348362374554e-05
3.06750000000000e+01 6.15675503533691e-04 1.20842039233891e-05
3.08250000000000e+01 6.01689001248471e-04 1.18385226761913e-05
3.09750000000000e+01 5.88020234921645e-04 1.15976989983194e-05
3.11250000000000e+01 5.74661986441264e-04 1.13616410198919e-05
3.12750000000000e+01 5.61607201671597e-04 1.11302584750973e-05
3.14250000000000e+01 5.48848986728024e-04 1.09034626787639e-05
3.15750000000000e+01 5.36380604336566e-04 1.06811665030964e-05
3.17250000000000e+01 5.24195470276104e-04 1.04632843545877e-05
3.18750000000000e+01 5.12287149901430e-04 1.02497321511114e-05
3.20250000000000e+01 5.00649354745280e-04 1.00404272992008e-05
3.21750000000000e+01 4.89275939197564e-04 9.83528867152139e-06
3.23250000000000e+01 4.78160897260030e-04 9.63423658454030e-06
3.24750000000000e+01 4.67298359374660e-04 9.43719277639826e-06
3.26250000000000e+01 4.56682589324106e-04 9.24408038498826e-06
3.27750000000000e+01 4.46307981202555e-04 9.05482392624454e-06
3.29250000000000e+01 4.36169056455390e-04 8.86934927264602e-06
3.30750000000000e+01 4.26260460986120e-04 8.68758363193681e-06
3.32250000000000e+01 4.16576962329015e-04 8.50945552606728e-06
3.33750000000000e+01 4.07113446885989e-04 8.33489477035789e-06
3.35250000000000e+01 3.97864917226237e-04 8.16383245288782e-06
3.36750000000000e+01 3.88826489447229e-04 7.99620091411139e-06
3.38250000000000e+01 3.79993390595653e-04 7.83193372670332e-06
3.39750000000000e+01 3.71360956146938e-04 7.67096567563441e-06
3.41250000000000e+01 3.62924627542050e-04 7.51323273847865e-06
3.42750000000000e+01 3.54679949780234e-04 7.35867206595354e-06
3.44250000000000e+01 3.46622569066449e-04 7.20722196269434e-06
3.45750000000000e+01 3.38748230512242e-04 7.05882186826178e-06
3.47250000000000e+01 3.31052775888857e-04 6.91341233838530e-06
3.48750000000000e+01 3.23532141431384e-04 6.77093502644108e-06
3.50250000000000e+01 3.16182355692793e-04 6.63133266516468e-06
3.51750000000000e+01 3.08999537446718e-04 6.49454904859918e-06
3.53250000000000e+01 3.01979893637885e-04 6.36052901427775e-06
3.54750000000000e+01 2.95119717379102e-04 6.22921842564094e-06
3.56250000000000e+01 2.88415385993745e-04 6.10056415468764e-06
3.57750000000000e+01 2.81863359102727e-04 5.97451406485874e-06
3.59250000000000e+01 2.75460176754911e-04 5.85101699415428e-06
3.60750000000000e+01 2.69202457600004e-04 5.73002273848110e-06
3.62250000000000e+01 2.63086897102959e-04 5.61148203523127e-06
3.63750000000000e+01 2.57110265798932e-04 5.49534654709038e-06
3.65250000000000e+01 2.51269407587893e-04 5.38156884607379e-06
3.66750000000000e+01 2.45561238067971e-04 5.27010239778949e-06
3.68250000000000e+01 2.39982742906662e-04 5.16090154592696e-06
3.69750000000000e+01 2.34530976249044e-04 5.05392149697004e-06
3.71250000000000e+01 2.29203059162145e-04 4.94911830513206e-06
3.72750000000000e+01 2.23996178114660e-04 4.84644885751225e-06
3.74250000000000e+01 2.18907583491194e-04 4.74587085947144e-06
3.75750000000000e+01 2.13934588140269e-04 4.64734282022540e-06
3.77250000000000e+01 2.09074565955307e-04 4.55082403865372e-06
3.78750000000000e+01 2.04324950487855e-04 4.45627458932296e-06
3.80250000000000e+01 1.99683233592309e-04 4.36365530872175e-06
3.81750000000000e+01 1.95146964101435e-04 4.27292778170615e-06
3.83250000000000e+01 1.90713746531964e-04 4.18405432815335e-06
3.84750000000000e+01 1.86381239819610e-04 4.09699798982163e-06
3.86250000000000e+01 1.82147156082808e-04 4.01172251741408e-06
3.87750000000000e+01 1.78009259414553e-04 3.92819235784498e-06
3.89250000000000e+01 1.73965364701670e-04 3.84637264170625e-06
3.90750000000000e+01 1.70013336470916e-04 3.76622917093157e-06
3.92250000000000e+01 1.66151087761295e-04 3.68772840665653e-06
3.93750000000000e+01 1.62376579021988e-04 3.61083745727247e-06
3.95250000000000e+01 1.58687817035322e-04 3.53552406667190e-06
3.96750000000000e+01 1.55082853864200e-04 3.46175660268290e-06
3.98250000000000e+01 1.51559785823454e-04 3.38950404569121e-06
3.99750000000000e+01 1.48116752474554e-04 3.31873597744698e-06
4.01250000000000e+01 1.44751935643164e-04 3.24942257005414e-06
4.02750000000000e+01 1.41463558459010e-04 3.18153457514067e-06
4.04250000000000e+01 1.38249884417561e-04 3.11504331320689e-06
4.05750000000000e+01 1.35109216463031e-04 3.04992066314978e-06
4.07250000000000e+01 1.32039896092206e-04 2.98613905196146e-06
4.08750000000000e+01 1.29040302478632e-04 2.92367144459924e-06
4.10250000000000e+01 1.26108851616703e-04 2.86249133402486e-06
4.11750000000000e+01 1.23243995485186e-04 2.80257273141115e-06
4.13250000000000e+01 1.20444221229755e-04 2.74389015651356e-06
4.14750000000000e+01 1.17708050364092e-04 2.68641862820472e-06
4.16250000000000e+01 1.15034037989137e-04 2.63013365516931e-06
4.17750000000000e+01 1.12420772030075e-04 2.57501122675753e-06
4.19250000000000e+01 1.09866872490658e-04 2.52102780399473e-06
4.20750000000000e+01 1.07370990724467e-04 2.46816031074496e-06
4.22250000000000e+01 1.04931808722723e-04 2.41638612502668e-06
4.23750000000000e+01 1.02548038418287e-04 2.36568307047810e-06
4.25250000000000e+01 1.00218421005462e-04 2.31602940797002e-06
4.26750000000000e+01 9.79417262752530e-05 2.26740382736426e-06
4.28250000000000e+01 9.57167519657269e-05 2.21978543941562e-06
4.29750000000000e+01 9.35423231271285e-05 2.17315376781493e-06
4.31250000000000e+01 9.14172915014215e-05 2.12748874137124e-06
4.32750000000000e+01 8.93405349159240e-05 2.08277068633142e-06
4.34250000000000e+01 8.73109566907189e-05 2.03898031883488e-06
4.35750000000000e+01 8.53274850595262e-05 1.99609873750108e-06
4.37250000000000e+01 8.33890726037323e-05 1.95410741614847e-06
4.38750000000000e+01 8.14946956992750e-05 1.91298819664225e-06
4.40250000000000e+01 7.96433539760962e-05 1.87272328186935e-06
4.41750000000000e+01 7.78340697898722e-05 1.83329522883862e-06
4.43250000000000e+01 7.60658877057457e-05 1.79468694190426e-06
4.44750000000000e+01 7.43378739937866e-05 1.75688166611036e-06
4.46250000000000e+01 7.26491161359137e-05 1.71986298065507e-06
4.47750000000000e+01 7.09987223440184e-05 1.68361479247233e-06
4.49250000000000e+01 6.93858210890348e-05 1.64812132992907e-06
4.50750000000000e+01 6.78095606407085e-05 1.61336713663640e-06
4.52250000000000e+01 6.62691086178207e-05 1.57933706537286e-06
4.53750000000000e+01 6.47636515486297e-05 1.54601627211782e-06
4.55250000000000e+01 6.32923944412979e-05 1.51339021019337e-06
4.56750000000000e+01 6.18545603640781e-05 1.48144462451290e-06
4.58250000000000e+01 6.04493900350364e-05 1.45016554593473e-06
4.59750000000000e+01 5.90761414210954e-05 1.41953928571890e-06
4.61250000000000e+01 5.77340893461864e-05 1.38955243008550e-06
4.62750000000000e+01 5.64225251083033e-05 1.36019183487308e-06
4.64250000000000e+01 5.51407561052559e-05 1.33144462029508e-06
4.65750000000000e+01 5.38881054689250e-05 1.30329816579306e-06
4.67250000000000e+01 5.26639117078263e-05 1.27574010498476e-06
4.68750000000000e+01 5.14675283577947e-05 1.24875832070577e-06
4.70250000000000e+01 5.02983236406032e-05 1.22234094014290e-06
4.71750000000000e+01 4.91556801303381e-05 1.19647633005794e-06
4.73250000000000e+01 4.80389944273526e-05 1.17115309210016e-06
