Energy (eV)          EEDF (eV^-(3/2))     First Anisotropy
3.08490566037736e-02 3.85986296345006e-02 1.98930107710151e-05
9.25471698113208e-02 3.83479448928320e-02 3.28527880990057e-05
1.54245283018868e-01 3.80988882623965e-02 4.33794001072264e-05
2.15943396226415e-01 3.78514491672967e-02 5.13826398529398e-05
2.77641509433962e-01 3.76056171039564e-02 5.80624854704006e-05
3.39339622641509e-01 3.73613816350264e-02 6.38723785158598e-05
4.01037735849057e-01 3.71187323910611e-02 6.90468502973420e-05
4.62735849056604e-01 3.68776590700469e-02 7.37274536284693e-05
5.24433962264151e-01 3.66381514364165e-02 7.80080203537473e-05
5.86132075471698e-01 3.64001993220998e-02 8.19548348278288e-05
6.47830188679245e-01 3.61637926245060e-02 8.56169391196753e-05
7.09528301886793e-01 3.59289213066645e-02 8.90319218796619e-05
7.71226415094340e-01 3.56955753968042e-02 9.22294079421764e-05
8.32924528301887e-01 3.54637449876379e-02 9.52332796969270e-05
8.94622641509434e-01 3.52334202368155e-02 9.80631544193514e-05
9.56320754716981e-01 3.50045913655943e-02 1.00735402469606e-04
1.01801886792453e+00 3.47772486587449e-02 1.03263870091277e-04
1.07971698113208e+00 3.45513824649585e-02 1.05660406466094e-04
1.14141509433962e+00 3.43269831925324e-02 1.07935254930115e-04
1.20311320754717e+00 3.41040413163693e-02 1.10097350644608e-04
1.26481132075472e+00 3.38825473710810e-02 1.12154550816281e-04
1.32650943396226e+00 3.36624919511386e-02 1.14113812879738e-04
1.38820754716981e+00 3.34438657155447e-02 1.15981337658172e-04
1.44990566037736e+00 3.32266593821596e-02 1.17762684322481e-04
1.51160377358491e+00 3.30108637277339e-02 1.19462861897003e-04
1.57330188679245e+00 3.27964695918803e-02 1.21086405900010e-04
1.63500000000000e+00 3.25834678721544e-02 1.22637441717309e-04
1.69669811320755e+00 3.23718495240080e-02 1.24119735767242e-04
1.75839622641509e+00 3.21616055642159e-02 1.25536740022032e-04
1.82009433962264e+00 3.19527270665488e-02 1.26891629661030e-04
1.88179245283019e+00 3.17452051616648e-02 1.28187333567042e-04
1.94349056603774e+00 3.15390310401053e-02 1.29426561896182e-04
2.00518867924528e+00 3.13341959484433e-02 1.30611829817652e-04
2.06688679245283e+00 3.11306911891263e-02 1.31745476603831e-04
2.12858490566038e+00 3.09285081231241e-02 1.32829683608196e-04
2.19028301886792e+00 3.07276381664636e-02 1.33866489976099e-04
2.25198113207547e+00 3.05280727900388e-02 1.34857805058049e-04
2.31367924528302e+00 3.03298035219672e-02 1.35805420646717e-04
2.37537735849057e+00 3.01328219444479e-02 1.36711021804088e-04
2.43707547169811e+00 2.99371196935463e-02 1.37576195175053e-04
2.49877358490566e+00 2.97426884613068e-02 1.38402437625252e-04
2.56047169811321e+00 2.95495199928822e-02 1.39191163832343e-04
2.62216981132075e+00 2.93576060870390e-02 1.39943712513145e-04
2.68386792452830e+00 2.91669385951067e-02 1.40661352050199e-04
2.74556603773585e+00 2.89775094227786e-02 1.41345286038752e-04
2.80726415094340e+00 2.87893105275796e-02 1.41996658434168e-04
2.86896226415094e+00 2.86023339186243e-02 1.42616557090402e-04
2.93066037735849e+00 2.84165716582479e-02 1.43206018056429e-04
2.99235849056604e+00 2.82320158596605e-02 1.43766029490540e-04
3.05405660377359e+00 2.80486586867009e-02 1.44297534160673e-04
3.11575471698113e+00 2.78664923553206e-02 1.44801432765522e-04
3.17745283018868e+00 2.76855091314007e-02 1.45278586978715e-04
3.23915094339623e+00 2.75057013305042e-02 1.45729821222329e-04
3.30084905660377e+00 2.73270613192299e-02 1.46155925288627e-04
3.36254716981132e+00 2.71495815131747e-02 1.46557656755761e-04
3.42424528301887e+00 2.69732543766843e-02 1.46935742242692e-04
3.48594339622642e+00 2.67980724240925e-02 1.47290879518005e-04
3.54764150943396e+00 2.66240282178144e-02 1.47623739452634e-04
3.60933962264151e+00 2.64511143680946e-02 1.47934966898652e-04
3.67103773584906e+00 2.62793235341456e-02 1.48225182414224e-04
3.73273584905660e+00 2.61086484223585e-02 1.48494983868899e-04
3.79443396226415e+00 2.59390817860494e-02 1.48744947045610e-04
3.85613207547170e+00 2.57706164265079e-02 1.48975627073664e-04
3.91783018867925e+00 2.56032451913140e-02 1.49187559768535e-04
3.97952830188679e+00 2.54369609740831e-02 1.49381262027877e-04
4.04122641509434e+00 2.52717567154346e-02 1.49557233038861e-04
4.10292452830189e+00 2.51076254014038e-02 1.49715955322589e-04
4.16462264150943e+00 2.49445600635798e-02 1.49857895332939e-04
4.22632075471698e+00 2.47825537784297e-02 1.49983504040069e-04
4.28801886792453e+00 2.46215996681586e-02 1.50093217812587e-04
4.34971698113208e+00 2.44616908992483e-02 1.50187459339380e-04
4.41141509433962e+00 2.43028206822052e-02 1.50266637726760e-04
4.47311320754717e+00 2.41449822723573e-02 1.50331149345634e-04
4.53481132075472e+00 2.39881689684676e-02 1.50381378632542e-04
4.59650943396226e+00 2.38323741124857e-02 1.50417698104730e-04
4.65820754716981e+00 2.36775910902869e-02 1.50440469102378e-04
4.71990566037736e+00 2.35238133303548e-02 1.50450042491683e-04
4.78160377358491e+00 2.33710343035365e-02 1.50446758617042e-04
4.84330188679245e+00 2.32192475237286e-02 1.50430947957534e-04
4.90500000000000e+00 2.30684465466245e-02 1.50402931749674e-04
4.96669811320755e+00 2.29186249694722e-02 1.50363021891359e-04
5.02839622641509e+00 2.27697764317128e-02 1.50311521527378e-04
5.09009433962264e+00 2.26218946137869e-02 1.50248725605762e-04
5.15179245283019e+00 2.24749732368955e-02 1.50174920744780e-04
5.21349056603774e+00 2.23290060635948e-02 1.50090385758976e-04
5.27518867924528e+00 2.21839868966579e-02 1.49995392160191e-04
5.33688679245283e+00 2.20399095788387e-02 1.49890203996280e-04
5.39858490566038e+00 2.18967679934258e-02 1.49775078326975e-04
5.46028301886792e+00 2.17545560631570e-02 1.49650265678277e-04
5.52198113207547e+00 2.16132677499849e-02 1.49516009859638e-04
5.58367924528302e+00 2.14728970555947e-02 1.49372548397211e-04
5.64537735849057e+00 2.13334380203663e-02 1.49220112948530e-04
5.70707547169811e+00 2.11948847231431e-02 1.49058929103541e-04
5.76877358490566e+00 2.10572312817156e-02 1.48889216781285e-04
5.83047169811321e+00 2.09204718518285e-02 1.48711190548023e-04
5.89216981132075e+00 2.07846006271830e-02 1.48525059656635e-04
5.95386792452830e+00 2.06496118389656e-02 1.48331028098992e-04
6.01556603773585e+00 2.05154997562846e-02 1.48129294894243e-04
6.07726415094340e+00 2.03822586852380e-02 1.47920054429235e-04
6.13896226415094e+00 2.02498829686896e-02 1.47703496239634e-04
6.20066037735849e+00 2.01183669866783e-02 1.47479805338330e-04
6.26235849056604e+00 1.99877051555226e-02 1.47249162531069e-04
6.32405660377359e+00 1.98578919276018e-02 1.47011744192247e-04
6.38575471698113e+00 1.97289217917381e-02 1.46767722570614e-04
6.44745283018868e+00 1.96007892723373e-02 1.46517266083100e-04
6.50915094339623e+00 1.94734889291736e-02 1.46260539087326e-04
6.57084905660377e+00 1.93470153577472e-02 1.45997702167271e-04
6.63254716981132e+00 1.92213631884590e-02 1.45728912407750e-04
6.69424528301887e+00 1.90965270863984e-02 1.45454323165253e-04
6.75594339622642e+00 1.89725017516791e-02 1.45174084335668e-04
6.81764150943396e+00 1.88492819186452e-02 1.44888342611764e-04
6.87933962264151e+00 1.87268623556627e-02 1.44597241253620e-04
6.94103773584906e+00 1.86052378654337e-02 1.44300920340127e-04
7.00273584905660e+00 1.84844032842336e-02 1.43999517011361e-04
7.06443396226415e+00 1.83643534817052e-02 1.43693165239640e-04
7.12613207547170e+00 1.82450833611538e-02 1.43381996066463e-04
7.18783018867925e+00 1.81265878588127e-02 1.43066137831252e-04
7.24952830188679e+00 1.80088619436407e-02 1.42745715943821e-04
7.31122641509434e+00 1.78919006175993e-02 1.42420853108226e-04
7.37292452830189e+00 1.77756989149446e-02 1.42091669491976e-04
7.43462264150943e+00 1.76602519021839e-02 1.41758282689686e-04
7.49632075471698e+00 1.75455546777139e-02 1.41420807698690e-04
7.55801886792453e+00 1.74316023720724e-02 1.41079357076658e-04
7.61971698113208e+00 1.73183901472678e-02 1.40734041142401e-04
7.68141509433962e+00 1.72059131965839e-02 1.40384967755675e-04
7.74311320754717e+00 1.70941667448168e-02 1.40032242514194e-04
7.80481132075472e+00 1.69831460476270e-02 1.39675968944387e-04
7.86650943396226e+00 1.68728463913489e-02 1.39316248284224e-04
7.92820754716981e+00 1.67632630932120e-02 1.38953179670835e-04
7.98990566037736e+00 1.66543915007164e-02 1.38586860322032e-04
8.05160377358491e+00 1.65462269914452e-02 1.38217385322467e-04
8.11330188679245e+00 1.64387649732726e-02 1.37844847802586e-04
8.17500000000000e+00 1.63320008837602e-02 1.37469339111667e-04
8.23669811320755e+00 1.62259301899736e-02 1.37090948607570e-04
8.29839622641510e+00 1.61205483886769e-02 1.36709763827620e-04
8.36009433962264e+00 1.60158510057502e-02 1.36325870653872e-04
8.42179245283019e+00 1.59118335960088e-02 1.35939353106640e-04
8.48349056603774e+00 1.58084917433863e-02 1.35550293507842e-04
8.54518867924528e+00 1.57058210603716e-02 1.35158772639117e-04
8.60688679245283e+00 1.56038171878311e-02 1.34764869539244e-04
8.66858490566038e+00 1.55024757951807e-02 1.34368661660458e-04
8.73028301886792e+00 1.54017925798414e-02 1.33970225019961e-04
8.79198113207547e+00 1.53017632670648e-02 1.33569634001319e-04
8.85367924528302e+00 1.52023836100945e-02 1.33166961504208e-04
8.91537735849057e+00 1.51036493896396e-02 1.32762279089768e-04
8.97707547169811e+00 1.50055564137033e-02 1.32355656786051e-04
9.03877358490566e+00 1.49081005177341e-02 1.31947163231624e-04
9.10047169811321e+00 1.48112775641171e-02 1.31536865779752e-04
9.16216981132076e+00 1.47150834421096e-02 1.31124830449824e-04
9.22386792452830e+00 1.46195140675641e-02 1.30711121887893e-04
9.28556603773585e+00 1.45245653830657e-02 1.30295803465084e-04
9.34726415094340e+00 1.44302333574463e-02 1.29878937409390e-04
9.40896226415094e+00 1.43365139856200e-02 1.29460584621675e-04
9.47066037735849e+00 1.42434032887121e-02 1.29040804806137e-04
9.53235849056604e+00 1.41508973135888e-02 1.28619656597076e-04
9.59405660377359e+00 1.40589921326951e-02 1.28197197378920e-04
9.65575471698113e+00 1.39676838441766e-02 1.27773483411845e-04
9.71745283018868e+00 1.38769685714226e-02 1.27348569953765e-04
9.77915094339623e+00 1.37868424629087e-02 1.26922511084374e-04
9.84084905660377e+00 1.36973016923093e-02 1.26495359826212e-04
9.90254716981132e+00 1.36083424580563e-02 1.26067168262165e-04
9.96424528301887e+00 1.35199609831832e-02 1.25637987363467e-04
1.00259433962264e+01 1.34321535154320e-02 1.25207867260035e-04
1.00876415094340e+01 1.33449163263910e-02 1.24776856829639e-04
1.01493396226415e+01 1.32582457128209e-02 1.24345003993300e-04
1.02110377358491e+01 1.31721379950071e-02 1.23912356079361e-04
1.02727358490566e+01 1.30865895171337e-02 1.23478959307308e-04
1.03344339622642e+01 1.30015966471276e-02 1.23044858995496e-04
1.03961320754717e+01 1.29171557765046e-02 1.22610099578274e-04
1.04578301886792e+01 1.28332633202173e-02 1.22174724623421e-04
1.05195283018868e+01 1.27499157165017e-02 1.21738777132485e-04
1.05812264150943e+01 1.26671094259468e-02 1.21302298701910e-04
1.06429245283019e+01 1.25848409336987e-02 1.20865330111757e-04
1.07046226415094e+01 1.25031067469408e-02 1.20427911919252e-04
1.07663207547170e+01 1.24219033955414e-02 1.19990083603109e-04
1.08280188679245e+01 1.23412274319053e-02 1.19551883869984e-04
1.08897169811321e+01 1.22610754308291e-02 1.19113350668960e-04
1.09514150943396e+01 1.21814439893549e-02 1.18674521471887e-04
1.10131132075472e+01 1.21023297259100e-02 1.18235432485973e-04
1.10748113207547e+01 1.20237292823253e-02 1.17796119204018e-04
1.11365094339623e+01 1.19456393215163e-02 1.17356616959297e-04
1.11982075471698e+01 1.18680565280717e-02 1.16916960122384e-04
1.12599056603774e+01 1.17909776081126e-02 1.16477182387589e-04
1.13216037735849e+01 1.17143992891523e-02 1.16037316785019e-04
1.13833018867925e+01 1.16383183199587e-02 1.15597395692983e-04
1.14450000000000e+01 1.15627314704149e-02 1.15157451096718e-04
1.15066981132075e+01 1.14876355307327e-02 1.14717513856328e-04
1.15683962264151e+01 1.14130273132789e-02 1.14277614216257e-04
1.16300943396226e+01 1.13389036504645e-02 1.13837782319125e-04
1.16917924528302e+01 1.12652613952727e-02 1.13398047459347e-04
1.17534905660377e+01 1.11920974211251e-02 1.12958438347541e-04
1.18151886792453e+01 1.11194086217499e-02 1.12518983120913e-04
1.18768867924528e+01 1.10471919110493e-02 1.12079709353911e-04
1.19385849056604e+01 1.09754442229691e-02 1.11640644297254e-04
1.20002830188679e+01 1.09041625107764e-02 1.11201814197037e-04
1.20619811320755e+01 1.08333437487162e-02 1.10763244766988e-04
1.21236792452830e+01 1.07629849300857e-02 1.10324961664989e-04
1.21853773584906e+01 1.06930830677097e-02 1.09886989798790e-04
1.22470754716981e+01 1.06236351938132e-02 1.09449353570633e-04
1.23087735849057e+01 1.05546383598965e-02 1.09012076886237e-04
1.23704716981132e+01 1.04860896366092e-02 1.08575183378961e-04
1.24321698113208e+01 1.04179861130807e-02 1.08138695769527e-04
1.24938679245283e+01 1.03503248984433e-02 1.07702636308788e-04
1.25555660377358e+01 1.02831031200523e-02 1.07267027224590e-04
1.26172641509434e+01 1.02163179239196e-02 1.06831890069121e-04
1.26789622641509e+01 1.01499664745927e-02 1.06397245948200e-04
1.27406603773585e+01 1.00840459550344e-02 1.05963115528884e-04
1.28023584905660e+01 1.00185535665035e-02 1.05529519047332e-04
1.28640566037736e+01 9.95348652843554e-03 1.05096476516443e-04
1.29257547169811e+01 9.88884207782716e-03 1.04664007129527e-04
1.29874528301887e+01 9.82461747062158e-03 1.04232129671658e-04
1.30491509433962e+01 9.76080998007971e-03 1.03800862934842e-04
1.31108490566038e+01 9.69741689717170e-03 1.03370225110262e-04
1.31725471698113e+01 9.63443553046151e-03 1.02940234000796e-04
1.32342452830189e+01 9.57186320599350e-03 1.02510907027672e-04
1.32959433962264e+01 9.50969726717852e-03 1.02082261425566e-04
1.33576415094340e+01 9.44793507422045e-03 1.01654313681312e-04
1.34193396226415e+01 9.38657400539447e-03 1.01227079920175e-04
1.34810377358491e+01 9.32561145553678e-03 1.00800576295796e-04
1.35427358490566e+01 9.26504483640327e-03 1.00374818418221e-04
1.36044339622642e+01 9.20487157655940e-03 9.99498215535648e-05
1.36661320754717e+01 9.14508912127123e-03 9.95256006296815e-05
1.37278301886792e+01 9.08569493239715e-03 9.91021702420698e-05
1.37895283018868e+01 9.02668648827994e-03 9.86795448349513e-05
1.38512264150943e+01 8.96806128321826e-03 9.82577381779325e-05
1.39129245283019e+01 8.90981682863228e-03 9.78367637254395e-05
1.39746226415094e+01 8.85195065167820e-03 9.74166349796618e-05
1.40363207547170e+01 8.79446029557250e-03 9.69973649572754e-05
1.40980188679245e+01 8.73734331948735e-03 9.65789663748754e-05
1.41597169811321e+01 8.68059729844753e-03 9.61614516540144e-05
1.42214150943396e+01 8.62421982322726e-03 9.57448330914608e-05
1.42831132075472e+01 8.56820849985726e-03 9.53291223662705e-05
1.43448113207547e+01 8.51256095070205e-03 9.49143308777614e-05
1.44065094339623e+01 8.45727481317286e-03 9.45004700868073e-05
1.44682075471698e+01 8.40234774002515e-03 9.40875510135133e-05
1.45299056603774e+01 8.34777739925886e-03 9.36755844117152e-05
1.45916037735849e+01 8.29356147401931e-03 9.32645807732480e-05
1.46533018867925e+01 8.23969766249930e-03 9.28545503324217e-05
1.47150000000000e+01 8.18618367784104e-03 9.24455032244440e-05
1.47766981132075e+01 8.13301724768088e-03 9.20374490252763e-05
1.48383962264151e+01 8.08019611513399e-03 9.16303970666053e-05
1.49000943396226e+01 8.02771803761087e-03 9.12243567539083e-05
1.49617924528302e+01 7.97558078708686e-03 9.08193370976740e-05
1.50234905660377e+01 7.92378215000736e-03 9.04153468756943e-05
1.50851886792453e+01 7.87231992719419e-03 9.00123946369006e-05
1.51468867924528e+01 7.82119193375218e-03 8.96104887053553e-05
1.52085849056604e+01 7.77039599897632e-03 8.92096373276985e-05
1.52702830188679e+01 7.71992996593063e-03 8.88098482434708e-05
1.53319811320755e+01 7.66979169234932e-03 8.84111289787935e-05
1.53936792452830e+01 7.61997904954715e-03 8.80134871430355e-05
1.54553773584906e+01 7.57048992266398e-03 8.76169299910167e-05
1.55170754716981e+01 7.52132221057476e-03 8.72214645741796e-05
1.55787735849057e+01 7.47247382580078e-03 8.68270977440147e-05
1.56404716981132e+01 7.42394269442078e-03 8.64338362910441e-05
1.57021698113208e+01 7.37572675567717e-03 8.60416865395322e-05
1.57638679245283e+01 7.32782396281121e-03 8.56506546241204e-05
1.58255660377359e+01 7.28023228204793e-03 8.52607467692484e-05
1.58872641509434e+01 7.23294969282106e-03 8.48719688763016e-05
1.59489622641509e+01 7.18597418768709e-03 8.44843266660426e-05
1.60106603773585e+01 7.13930377224021e-03 8.40978256815427e-05
1.60723584905660e+01 7.09293646502770e-03 8.37124712912803e-05
1.61340566037736e+01 7.04687029746571e-03 8.33282688186408e-05
1.61957547169811e+01 7.00110331347437e-03 8.29452231631283e-05
1.62574528301887e+01 6.95563357024358e-03 8.25633390586060e-05
1.63191509433962e+01 6.91045913729667e-03 8.21826213341940e-05
1.63808490566038e+01 6.86557809669481e-03 8.18030745284260e-05
1.64425471698113e+01 6.82098854295529e-03 8.14247030219925e-05
1.65042452830189e+01 6.77668858297109e-03 8.10475110403972e-05
1.65659433962264e+01 6.73267633593029e-03 8.06715027761409e-05
1.66276415094340e+01 6.68894993297432e-03 8.02966820312055e-05
1.66893396226415e+01 6.64550751790879e-03 7.99230524605003e-05
1.67510377358491e+01 6.60234724632993e-03 7.95506178178272e-05
1.68127358490566e+01 6.55946728581273e-03 7.91793815917199e-05
1.68744339622642e+01 6.51686581583308e-03 7.88093471306831e-05
1.69361320754717e+01 6.47454102769054e-03 7.84405176454823e-05
1.69978301886792e+01 6.43249112443167e-03 7.80728962115344e-05
1.70595283018868e+01 6.39071432077363e-03 7.77064858828918e-05
1.71212264150943e+01 6.34920884278708e-03 7.73412893578506e-05
1.71829245283019e+01 6.30797292854897e-03 7.69773092064320e-05
1.72446226415094e+01 6.26700482733538e-03 7.66145481002432e-05
1.73063207547170e+01 6.22630279979276e-03 7.62530084718737e-05
1.73680188679245e+01 6.18586511786394e-03 7.58926926317688e-05
1.74297169811321e+01 6.14569006471499e-03 7.55336027702853e-05
1.74914150943396e+01 6.10577593466228e-03 7.51757410652582e-05
1.75531132075472e+01 6.06612103287505e-03 7.48191093662421e-05
1.76148113207547e+01 6.02672367598220e-03 7.44637094091099e-05
1.76765094339623e+01 5.98758219131817e-03 7.41095430329228e-05
1.77382075471698e+01 5.94869491708079e-03 7.37566118582813e-05
1.77999056603774e+01 5.91006020226068e-03 7.34049173976630e-05
1.78616037735849e+01 5.87167640657116e-03 7.30544610571949e-05
1.79233018867925e+01 5.83354190037876e-03 7.27052441385218e-05
1.79850000000000e+01 5.79565506463392e-03 7.23572679393290e-05
1.80466981132075e+01 5.75801429059463e-03 7.20105334577137e-05
1.81083962264151e+01 5.72061798038455e-03 7.16650415929039e-05
1.81700943396226e+01 5.68346454629516e-03 7.13207933481213e-05
1.82317924528302e+01 5.64655241092958e-03 7.09777895295139e-05
1.82934905660377e+01 5.60988000713545e-03 7.06360308492051e-05
1.83551886792453e+01 5.57344577793865e-03 7.02955179269100e-05
1.84168867924528e+01 5.53724817647708e-03 6.99562512916662e-05
1.84785849056604e+01 5.50128566593497e-03 6.96182314757284e-05
1.85402830188679e+01 5.46555671928592e-03 6.92814587377536e-05
1.86019811320755e+01 5.43005981980654e-03 6.89459332506209e-05
1.86636792452830e+01 5.39479346043028e-03 6.86116552912643e-05
1.87253773584906e+01 5.35975614387844e-03 6.82786249587071e-05
1.87870754716981e+01 5.32494638259654e-03 6.79468422704272e-05
1.88487735849057e+01 5.29036269869140e-03 6.76163071638431e-05
1.89104716981132e+01 5.25600362386821e-03 6.72870195850617e-05
1.89721698113208e+01 5.22186769918916e-03 6.69589792272243e-05
1.90338679245283e+01 5.18795347555179e-03 6.66321857078858e-05
1.90955660377358e+01 5.15425951308411e-03 6.63066387482927e-05
1.91572641509434e+01 5.12078438126558e-03 6.59823379069136e-05
1.92189622641509e+01 5.08752665886635e-03 6.56592826704733e-05
1.92806603773585e+01 5.05448493388700e-03 6.53374724552207e-05
1.93423584905660e+01 5.02165780349860e-03 6.50169066082717e-05
1.94040566037736e+01 4.98904387398313e-03 6.46975844906155e-05
1.94657547169811e+01 4.95664176050862e-03 6.43795052319440e-05
