Energy (eV)          EEDF (eV^-(3/2))     First Anisotropy
4.80000000000000e-01 7.87358423069023e-02 1.92641390066142e-04
1.44000000000000e+00 6.62340575181520e-02 2.93838889916507e-04
2.40000000000000e+00 5.57173232264170e-02 3.28518066571447e-04
3.36000000000000e+00 4.68704503973085e-02 3.29481324844063e-04
4.32000000000000e+00 3.94282961426436e-02 3.15245349221254e-04
5.28000000000000e+00 3.31678173248634e-02 2.93632977681705e-04
6.24000000000000e+00 2.79013859010178e-02 2.68765974836769e-04
7.20000000000000e+00 2.34711656655785e-02 2.42995552051029e-04
8.16000000000000e+00 1.97443818617245e-02 2.17694281342640e-04
9.12000000000000e+00 1.66093418902204e-02 1.93651568035887e-04
1.00800000000000e+01 1.39720878555848e-02 1.71295049002704e-04
1.10400000000000e+01 1.17535806255590e-02 1.50823681083319e-04
1.20000000000000e+01 9.88733100946670e-03 1.32291482434387e-04
1.29600000000000e+01 8.31740706131515e-03 1.15661781670222e-04
1.39200000000000e+01 6.99675778603741e-03 1.00842979938684e-04
1.48800000000000e+01 5.88580300995084e-03 8.77123227868368e-05
1.58400000000000e+01 4.95124715351424e-03 7.61317054332442e-05
1.68000000000000e+01 4.16508135486982e-03 6.59580963202351e-05
1.77600000000000e+01 3.50374403757470e-03 5.70502867144154e-05
1.87200000000000e+01 2.94741476453680e-03 4.92731189070666e-05
1.96800000000000e+01 2.47942021478911e-03 4.24999833135348e-05
2.06400000000000e+01 2.08573448008461e-03 3.66141326116327e-05
2.16000000000000e+01 1.75455870508172e-03 3.15091960156988e-05
2.25600000000000e+01 1.47596747283632e-03 2.70891625659350e-05
2.35200000000000e+01 1.24161133768924e-03 2.32680223289191e-05
2.44800000000000e+01 1.04446659038904e-03 1.99691978959927e-05
2.54400000000000e+01 8.78624755850883e-04 1.71248583927878e-05
2.64000000000000e+01 7.39115514749477e-04 1.46751795443621e-05
2.73600000000000e+01 6.21757741863694e-04 1.25675928514595e-05
2.83200000000000e+01 5.23034196756744e-04 1.07560523034391e-05
2.92800000000000e+01 4.39986111241611e-04 9.20033664291448e-06
3.02400000000000e+01 3.70124514392986e-04 7.86539783642004e-06
3.12000000000000e+01 3.11355637495150e-04 6.72076125317200e-06
3.21600000000000e+01 2.61918163294315e-04 5.73997950120870e-06
3.31200000000000e+01 2.20330438900552e-04 4.90013947383202e-06
3.40800000000000e+01 1.85346070297384e-04 4.18142059587304e-06
3.50400000000000e+01 1.55916567615918e-04 3.56670129221567e-06
3.60000000000000e+01 1.31159921643465e-04 3.04121015693376e-06
3.69600000000000e+01 1.10334169797127e-04 2.59221805350040e-06
3.79200000000000e+01 9.28151593282677e-05 2.20876733217942e-06
3.88800000000000e+01 7.80778413158097e-05 1.88143444250247e-06
3.98400000000000e+01 6.56805348248767e-05 1.60212239789867e-06
4.08000000000000e+01 5.52516896238565e-05 1.36387978107660e-06
4.17600000000000e+01 4.64787507353661e-05 1.16074323782182e-06
4.27200000000000e+01 3.90987910890517e-05 9.87600676117533e-07
4.36800000000000e+01 3.28906315345971e-05 8.40072655067667e-07
4.46400000000000e+01 2.76682120498491e-05 7.14409706160621e-07
4.56000000000000e+01 2.32750154775887e-05 6.07403573029026e-07
4.65600000000000e+01 1.95793766690084e-05 5.16310582195711e-07
4.75200000000000e+01 1.64705364478076e-05 4.38785564989540e-07
4.84800000000000e+01 1.38553221312688e-05 3.72824939537436e-07
4.94400000000000e+01 1.16553551227397e-05 3.16717731859704e-07
5.04000000000000e+01 9.80470188640322e-06 2.69003467439223e-07
5.13600000000000e+01 8.24789790348678e-06 2.28436000305593e-07
5.23200000000000e+01 6.93828538740989e-06 1.93952466930189e-07
5.32800000000000e+01 5.83661493879484e-06 1.64646658388985e-07
5.42400000000000e+01 4.90986923160856e-06 1.39746197640687e-07
5.52000000000000e+01 4.13027347602857e-06 1.18592990672864e-07
5.61600000000000e+01 3.47446300136923e-06 1.00626491906989e-07
5.71200000000000e+01 2.92278301133012e-06 8.53693867617884e-08
5.80800000000000e+01 2.45869952506428e-06 7.24153486998885e-08
5.90400000000000e+01 2.06830384982983e-06 6.14185753799693e-08
6.00000000000000e+01 1.73989573415201e-06 5.20848495680161e-08
6.09600000000000e+01 1.46363270849659e-06 4.41639060012274e-08
6.19200000000000e+01 1.23123510411107e-06 3.74429161378131e-08
6.28800000000000e+01 1.03573790937792e-06 3.17409292791182e-08
6.38400000000000e+01 8.71282026755605e-07 2.69041314601002e-08
6.48000000000000e+01 7.32938674228216e-07 2.28018032485238e-08
6.57600000000000e+01 6.16561668533189e-07 1.93228745924726e-08
6.67200000000000e+01 5.18663163060302e-07 1.63729894779329e-08
6.76800000000000e+01 4.36309116257097e-07 1.38720057247963e-08
6.86400000000000e+01 3.67031357703953e-07 1.17518660409676e-08
6.96000000000000e+01 3.08753616458079e-07 9.95478571418762e-09
7.05600000000000e+01 2.59729294718286e-07 8.43171026148467e-09
7.15200000000000e+01 2.18489121872415e-07 7.14100316044619e-09
7.24800000000000e+01 1.83797120106753e-07 6.04732961373149e-09
7.34400000000000e+01 1.54613561856240e-07 5.12070728584804e-09
7.44000000000000e+01 1.30063808921427e-07 4.33569921786427e-09
7.53600000000000e+01 1.09412099353086e-07 3.67072777378356e-09
7.63200000000000e+01 9.20394964911528e-08 3.10749158994636e-09
7.72800000000000e+01 7.74253392854394e-08 2.63047016196915e-09
7.82400000000000e+01 6.51316379598149e-08 2.22650297765168e-09
7.92000000000000e+01 5.47899473541754e-08 1.88443204508160e-09
8.01600000000000e+01 4.60903245351431e-08 1.59479832100018e-09
8.11200000000000e+01 3.87720397324478e-08 1.34958395668693e-09
8.20800000000000e+01 3.26157622055426e-08 1.14199348260261e-09
8.30400000000000e+01 2.74369868490110e-08 9.66268079158200e-10
8.40000000000000e+01 2.30805045305633e-08 8.17527955245909e-10
8.49600000000000e+01 1.94157504363332e-08 6.91638600827853e-10
8.59200000000000e+01 1.63328910122734e-08 5.85097313958325e-10
8.68800000000000e+01 1.37395322263516e-08 4.94936942389279e-10
8.78400000000000e+01 1.15579504973798e-08 4.18644239279943e-10
8.88000000000000e+01 9.72276330075278e-09 3.54090623378073e-10
8.97600000000000e+01 8.17896963859603e-09 2.99473466503418e-10
9.07200000000000e+01 6.88030164674442e-09 2.53266313898898e-10
9.16800000000000e+01 5.78783793582096e-09 2.14176683406053e-10
9.26400000000000e+01 4.86883710791651e-09 1.81110293766411e-10
9.36000000000000e+01 4.09575648908737e-09 1.53140746018520e-10
9.45600000000000e+01 3.44542666884985e-09 1.29483829527685e-10
9.55200000000000e+01 2.89835710742337e-09 1.09475749550499e-10
9.64800000000000e+01 2.43815199960584e-09 9.25546797200822e-11
9.74400000000000e+01 2.05101888858226e-09 7.82451332679251e-11
9.84000000000000e+01 1.72535530270519e-09 6.61447235818199e-11
9.93600000000000e+01 1.45140102665297e-09 5.59129498848055e-11
1.00320000000000e+02 1.22094558544921e-09 4.72616991506255e-11
1.01280000000000e+02 1.02708217457004e-09 3.99472023293892e-11
1.02240000000000e+02 8.64000661365593e-10 3.37632228039193e-11
1.03200000000000e+02 7.26813453999125e-10 2.85352888047144e-11
1.04160000000000e+02 6.11409019154225e-10 2.41158101908989e-11
1.05120000000000e+02 5.14328658400950e-10 2.03799443304974e-11
1.06080000000000e+02 4.32662850179176e-10 1.72220964440111e-11
1.07040000000000e+02 3.63964050743672e-10 1.45529572697036e-11
1.08000000000000e+02 3.06173340694454e-10 1.22969957421596e-11
1.08960000000000e+02 2.57558718671427e-10 1.03903369508844e-11
1.09920000000000e+02 2.16663192860634e-10 8.77896630544971e-12
1.10880000000000e+02 1.82261114602183e-10 7.41720986869688e-12
1.11840000000000e+02 1.53321445407655e-10 6.26644847658928e-12
1.12800000000000e+02 1.28976856490765e-10 5.29402975191422e-12
1.13760000000000e+02 1.08497734716822e-10 4.47234761690877e-12
1.14720000000000e+02 9.12703159231104e-11 3.77806356783195e-12
1.15680000000000e+02 7.67782902605877e-11 3.19144792045566e-12
1.16640000000000e+02 6.45873282645932e-11 2.69582257791548e-12
1.17600000000000e+02 5.43320638972299e-11 2.27708970338038e-12
1.18560000000000e+02 4.57051444400890e-11 1.92333307761186e-12
1.19520000000000e+02 3.84480190599920e-11 1.62448095185938e-12
1.20480000000000e+02 3.23431899788704e-11 1.37202092578136e-12
1.21440000000000e+02 2.72076940134954e-11 1.15875883574589e-12
1.22400000000000e+02 2.28876191252501e-11 9.78614871260321e-13
1.23360000000000e+02 1.92534916396326e-11 8.26451180567352e-13
1.24320000000000e+02 1.61963958893585e-11 6.97926109574996e-13
1.25280000000000e+02 1.36247099858420e-11 5.89370965789707e-13
1.26240000000000e+02 1.14613598893485e-11 4.97685831577674e-13
1.27200000000000e+02 9.64150948164558e-12 4.20251486495538e-13
1.28160000000000e+02 8.11061741207969e-12 3.54854951522030e-13
1.29120000000000e+02 6.82280248029199e-12 2.99626551418529e-13
1.30080000000000e+02 5.73946856570346e-12 2.52986715847463e-13
1.31040000000000e+02 4.82814789257806e-12 2.13601014342824e-13
1.32000000000000e+02 4.06152796304214e-12 1.80342152428494e-13
1.32960000000000e+02 3.41663299501063e-12 1.52257852613322e-13
1.33920000000000e+02 2.87413533251948e-12 1.28543710156333e-13
1.34880000000000e+02 2.41777619126785e-12 1.08520254046848e-13
1.35840000000000e+02 2.03387837897576e-12 9.16135625236672e-14
1.36800000000000e+02 1.71093638667020e-12 7.73388830006921e-14
1.37760000000000e+02 1.43927156583780e-12 6.52867912967652e-14
1.38720000000000e+02 1.21074205702102e-12 5.51114969746606e-14
1.39680000000000e+02 1.01849877634885e-12 4.65209624000661e-14
1.40640000000000e+02 8.56780146860048e-13 3.92685545472160e-14
1.41600000000000e+02 7.20739422667794e-13 3.31459920513652e-14
1.42560000000000e+02 6.06299430829782e-13 2.79773867645151e-14
1.43520000000000e+02 5.10030377502957e-13 2.36142101460852e-14
1.44480000000000e+02 4.29047056204215e-13 1.99310410913033e-14
1.45440000000000e+02 3.60922377484144e-13 1.68219740086168e-14
1.46400000000000e+02 3.03614628477498e-13 1.41975847307554e-14
1.47360000000000e+02 2.55406282281787e-13 1.19823677128132e-14
1.48320000000000e+02 2.14852523266476e-13 1.01125713836552e-14
1.49280000000000e+02 1.80737945604023e-13 8.53436985363538e-15
1.50240000000000e+02 1.52040127267428e-13 7.20231876301089e-15
1.51200000000000e+02 1.27898987798282e-13 6.07805115298117e-15
1.52160000000000e+02 1.07591011490357e-13 5.12917608447754e-15
1.53120000000000e+02 9.05075634513628e-14 4.32834851274858e-15
1.54080000000000e+02 7.61366486701044e-14 3.65248381250355e-15
1.55040000000000e+02 6.40475674039109e-14 3.08209447761521e-15
1.56000000000000e+02 5.38780070046507e-14 2.60073000842168e-15
1.56960000000000e+02 4.53231833222746e-14 2.19450394764713e-15
1.57920000000000e+02 3.81267062511646e-14 1.85169451669291e-15
1.58880000000000e+02 3.20728956575340e-14 1.56240740837718e-15
1.59840000000000e+02 2.69803173943891e-14 1.31829107000253e-15
1.60800000000000e+02 2.26963456768825e-14 1.11229631251970e-15
1.61760000000000e+02 1.90925888511479e-14 9.38473350307796e-16
1.62720000000000e+02 1.60610414658192e-14 7.91800447859131e-16
1.63680000000000e+02 1.35108473229001e-14 6.68039254992325e-16
1.64640000000000e+02 1.13655764958456e-14 5.63612676939989e-16
1.65600000000000e+02 9.56093470643930e-15 4.75501771584524e-16
1.66560000000000e+02 8.04283640994443e-15 4.01158711684141e-16
1.67520000000000e+02 6.76578383843170e-15 3.38433310718818e-16
1.68480000000000e+02 5.69150342182577e-15 2.85511000155318e-16
1.69440000000000e+02 4.78779871988390e-15 2.40860474602532e-16
1.70400000000000e+02 4.02758548720480e-15 2.03189498899247e-16
1.71360000000000e+02 3.38807995193584e-15 1.71407605583957e-16
1.72320000000000e+02 2.85011598069795e-15 1.44594609146758e-16
1.73280000000000e+02 2.39757066499820e-15 1.21974030621803e-16
1.74240000000000e+02 2.01688111381776e-15 1.02890667231130e-16
1.75200000000000e+02 1.69663797053416e-15 8.67916609793390e-17
1.76160000000000e+02 1.42724347178272e-15 7.32105207384442e-17
1.77120000000000e+02 1.20062380020004e-15 6.17536373375857e-17
1.78080000000000e+02 1.00998711019239e-15 5.20889029192988e-17
1.79040000000000e+02 8.49619974703825e-16 4.39361064004568e-17
1.80000000000000e+02 7.14716152444982e-16 3.70588280195971e-17
1.80960000000000e+02 6.01232543695584e-16 3.12575991308865e-17
1.81920000000000e+02 5.05768017641785e-16 2.63641298579872e-17
1.82880000000000e+02 4.25461479674690e-16 2.22364379953588e-17
1.83840000000000e+02 3.57906123702714e-16 1.87547385240653e-17
1.84800000000000e+02 3.01077299599121e-16 1.58179750404451e-17
1.85760000000000e+02 2.53271833954965e-16 1.33408929094177e-17
1.86720000000000e+02 2.13056985565905e-16 1.12515695820146e-17
1.87680000000000e+02 1.79227505836680e-16 9.48933070840023e-18
1.88640000000000e+02 1.50769517193327e-16 8.00299181267609e-18
1.89600000000000e+02 1.26830126930533e-16 6.74937469457268e-18
1.90560000000000e+02 1.06691865813888e-16 5.69205565625904e-18
1.91520000000000e+02 8.97511853558529e-17 5.21427414012098e-18
