Energy (eV)          EEDF (eV^-(3/2))     First Anisotropy
3.70000000000000e-02 3.20683265698983e-02 1.70163325572766e-05
1.11000000000000e-01 3.18475763629121e-02 2.80965441863526e-05
1.85000000000000e-01 3.16283457441263e-02 3.70846424920812e-05
2.59000000000000e-01 3.14106242531582e-02 4.39093339132411e-05
3.33000000000000e-01 3.11944015015704e-02 4.95982028754883e-05
4.07000000000000e-01 3.09796671724271e-02 5.45397683202170e-05
4.81000000000000e-01 3.07664110198088e-02 5.89350903564045e-05
5.55000000000000e-01 3.05546228683252e-02 6.29055838598647e-05
6.29000000000000e-01 3.03442926126305e-02 6.65317736301196e-05
7.03000000000000e-01 3.01354102169410e-02 6.98705731019354e-05
7.77000000000000e-01 2.99279657145569e-02 7.29641126521909e-05
8.51000000000000e-01 2.97219492073865e-02 7.58446999971141e-05
9.25000000000000e-01 2.95173508654738e-02 7.85378108669976e-05
9.99000000000000e-01 2.93141609265299e-02 8.10639932727523e-05
1.07300000000000e+00 2.91123696954669e-02 8.34401340986634e-05
1.14700000000000e+00 2.89119675439353e-02 8.56803322192558e-05
1.22100000000000e+00 2.87129449098650e-02 8.77965186242795e-05
1.29500000000000e+00 2.85152922970085e-02 8.97989081679271e-05
1.36900000000000e+00 2.83190002744880e-02 9.16963359159537e-05
1.44300000000000e+00 2.81240594763456e-02 9.34965123676227e-05
1.51700000000000e+00 2.79304606010962e-02 9.52062203737779e-05
1.59100000000000e+00 2.77381944112840e-02 9.68314693293089e-05
1.66500000000000e+00 2.75472517330410e-02 9.83776175105234e-05
1.73900000000000e+00 2.73576234556502e-02 9.98494702929516e-05
1.81300000000000e+00 2.71693005311104e-02 1.01251359851454e-04
1.88700000000000e+00 2.69822739737042e-02 1.02587210463795e-04
1.96100000000000e+00 2.67965348595701e-02 1.03860592493346e-04
2.03500000000000e+00 2.66120743262758e-02 1.05074767376224e-04
2.10900000000000e+00 2.64288835723958e-02 1.06232725391974e-04
2.18300000000000e+00 2.62469538570916e-02 1.07337217593951e-04
2.25700000000000e+00 2.60662764996942e-02 1.08390782974548e-04
2.33100000000000e+00 2.58868428792902e-02 1.09395771713232e-04
2.40500000000000e+00 2.57086444343102e-02 1.10354365181790e-04
2.47900000000000e+00 2.55316726621208e-02 1.11268593247640e-04
2.55300000000000e+00 2.53559191186183e-02 1.12140349312076e-04
2.62700000000000e+00 2.51813754178261e-02 1.12971403438821e-04
2.70100000000000e+00 2.50080332314947e-02 1.13763413863992e-04
2.77500000000000e+00 2.48358842887038e-02 1.14517937127181e-04
2.84900000000000e+00 2.46649203754684e-02 1.15236437022405e-04
2.92300000000000e+00 2.44951333343463e-02 1.15920292534440e-04
2.99700000000000e+00 2.43265150640491e-02 1.16570804899162e-04
3.07100000000000e+00 2.41590575190555e-02 1.17189203904618e-04
3.14500000000000e+00 2.39927527092277e-02 1.17776653531450e-04
3.21900000000000e+00 2.38275926994298e-02 1.18334257016416e-04
3.29300000000000e+00 2.36635696091495e-02 1.18863061410431e-04
3.36700000000000e+00 2.35006756121219e-02 1.19364061692288e-04
3.44100000000000e+00 2.33389029359561e-02 1.19838204490555e-04
3.51500000000000e+00 2.31782438617644e-02 1.20286391458971e-04
3.58900000000000e+00 2.30186907237939e-02 1.20709482344542e-04
3.66300000000000e+00 2.28602359090607e-02 1.21108297782305e-04
3.73700000000000e+00 2.27028718569871e-02 1.21483621846467e-04
3.81100000000000e+00 2.25465910590401e-02 1.21836204383765e-04
3.88500000000000e+00 2.23913860583738e-02 1.22166763151698e-04
3.95900000000000e+00 2.22372494494732e-02 1.22475985781546e-04
4.03300000000000e+00 2.20841738778009e-02 1.22764531583734e-04
4.10700000000000e+00 2.19321520394465e-02 1.23033033211024e-04
4.18100000000000e+00 2.17811766807777e-02 1.23282098193185e-04
4.25500000000000e+00 2.16312405980945e-02 1.23512310355345e-04
4.32900000000000e+00 2.14823366372850e-02 1.23724231130839e-04
4.40300000000000e+00 2.13344576934849e-02 1.23918400778102e-04
4.47700000000000e+00 2.11875967107375e-02 1.24095339510289e-04
4.55100000000000e+00 2.10417466816578e-02 1.24255548545316e-04
4.62500000000000e+00 2.08969006470978e-02 1.24399511083158e-04
4.69900000000000e+00 2.07530516958144e-02 1.24527693216625e-04
4.77300000000000e+00 2.06101929641398e-02 1.24640544781203e-04
4.84700000000000e+00 2.04683176356541e-02 1.24738500148991e-04
4.92100000000000e+00 2.03274189408597e-02 1.24821978971247e-04
4.99500000000000e+00 2.01874901568586e-02 1.24891386873647e-04
5.06900000000000e+00 2.00485246070314e-02 1.24947116107987e-04
5.14300000000000e+00 1.99105156607190e-02 1.24989546163708e-04
5.21700000000000e+00 1.97734567329059e-02 1.25019044342276e-04
5.29100000000000e+00 1.96373412839065e-02 1.25035966297262e-04
5.36500000000000e+00 1.95021628190523e-02 1.25040656542591e-04
5.43900000000000e+00 1.93679148883828e-02 1.25033448931341e-04
5.51300000000000e+00 1.92345910863372e-02 1.25014667107192e-04
5.58700000000000e+00 1.91021850514490e-02 1.24984624930434e-04
5.66100000000000e+00 1.89706904660423e-02 1.24943626880355e-04
5.73500000000000e+00 1.88401010559308e-02 1.24891968435631e-04
5.80900000000000e+00 1.87104105901178e-02 1.24829936434201e-04
5.88300000000000e+00 1.85816128804993e-02 1.24757809413997e-04
5.95700000000000e+00 1.84537017815687e-02 1.24675857935799e-04
6.03100000000000e+00 1.83266711901233e-02 1.24584344889404e-04
6.10500000000000e+00 1.82005150449735e-02 1.24483525784167e-04
6.17900000000000e+00 1.80752273266533e-02 1.24373649024928e-04
6.25300000000000e+00 1.79508020571332e-02 1.24254956174200e-04
6.32700000000000e+00 1.78272332995350e-02 1.24127682201500e-04
6.40100000000000e+00 1.77045151578483e-02 1.23992055720642e-04
6.47500000000000e+00 1.75826417766494e-02 1.23848299215654e-04
6.54900000000000e+00 1.74616073408219e-02 1.23696629256064e-04
6.62300000000000e+00 1.73414060752792e-02 1.23537256702118e-04
6.69700000000000e+00 1.72220322446889e-02 1.23370386900568e-04
6.77100000000000e+00 1.71034801531990e-02 1.23196219871570e-04
6.84500000000000e+00 1.69857441441666e-02 1.23014950487164e-04
6.91900000000000e+00 1.68688185998875e-02 1.22826768641855e-04
6.99300000000000e+00 1.67526979413284e-02 1.22631859415698e-04
7.06700000000000e+00 1.66373766278606e-02 1.22430403230309e-04
7.14100000000000e+00 1.65228491569957e-02 1.22222575998211e-04
7.21500000000000e+00 1.64091100641231e-02 1.22008549265850e-04
7.28900000000000e+00 1.62961539222491e-02 1.21788490350595e-04
7.36300000000000e+00 1.61839753417382e-02 1.21562562472114e-04
7.43700000000000e+00 1.60725689700555e-02 1.21330924878341e-04
7.51100000000000e+00 1.59619294915117e-02 1.21093732966330e-04
7.58500000000000e+00 1.58520516270097e-02 1.20851138398323e-04
7.65900000000000e+00 1.57429301337918e-02 1.20603289213187e-04
7.73300000000000e+00 1.56345598051904e-02 1.20350329933447e-04
7.80700000000000e+00 1.55269354703794e-02 1.20092401668228e-04
7.88100000000000e+00 1.54200519941271e-02 1.19829642212240e-04
7.95500000000000e+00 1.53139042765515e-02 1.19562186140983e-04
8.02900000000000e+00 1.52084872528771e-02 1.19290164902387e-04
8.10300000000000e+00 1.51037958931926e-02 1.19013706905034e-04
8.17700000000000e+00 1.49998252022118e-02 1.18732937603142e-04
8.25100000000000e+00 1.48965702190345e-02 1.18447979578464e-04
8.32500000000000e+00 1.47940260169101e-02 1.18158952619209e-04
8.39900000000000e+00 1.46921877030026e-02 1.17865973796150e-04
8.47300000000000e+00 1.45910504181569e-02 1.17569157536043e-04
8.54700000000000e+00 1.44906093366672e-02 1.17268615692477e-04
8.62100000000000e+00 1.43908596660467e-02 1.16964457614261e-04
8.69500000000000e+00 1.42917966467986e-02 1.16656790211466e-04
8.76900000000000e+00 1.41934155521895e-02 1.16345718019198e-04
8.84300000000000e+00 1.40957116880235e-02 1.16031343259240e-04
8.91700000000000e+00 1.39986803924185e-02 1.15713765899646e-04
8.99100000000000e+00 1.39023170355834e-02 1.15393083712325e-04
9.06500000000000e+00 1.38066170195977e-02 1.15069392328760e-04
9.13900000000000e+00 1.37115757781915e-02 1.14742785293911e-04
9.21300000000000e+00 1.36171887765281e-02 1.14413354118372e-04
9.28700000000000e+00 1.35234515109874e-02 1.14081188328874e-04
9.36100000000000e+00 1.34303595089513e-02 1.13746375517179e-04
9.43500000000000e+00 1.33379083285896e-02 1.13409001387426e-04
9.50900000000000e+00 1.32460935586491e-02 1.13069149802050e-04
9.58300000000000e+00 1.31549108182421e-02 1.12726902826235e-04
9.65700000000000e+00 1.30643557566380e-02 1.12382340771018e-04
9.73100000000000e+00 1.29744240530555e-02 1.12035542235087e-04
9.80500000000000e+00 1.28851114164565e-02 1.11686584145338e-04
9.87900000000000e+00 1.27964135853412e-02 1.11335541796200e-04
9.95300000000000e+00 1.27083263275450e-02 1.10982488887792e-04
1.00270000000000e+01 1.26208454400365e-02 1.10627497562973e-04
1.01010000000000e+01 1.25339667487166e-02 1.10270638443310e-04
1.01750000000000e+01 1.24476861082200e-02 1.09911980664006e-04
1.02490000000000e+01 1.23619994017168e-02 1.09551591907810e-04
1.03230000000000e+01 1.22769025407164e-02 1.09189538437983e-04
1.03970000000000e+01 1.21923914648723e-02 1.08825885130317e-04
1.04710000000000e+01 1.21084621417885e-02 1.08460695504267e-04
1.05450000000000e+01 1.20251105668269e-02 1.08094031753205e-04
1.06190000000000e+01 1.19423327629162e-02 1.07725954773846e-04
1.06930000000000e+01 1.18601247803624e-02 1.07356524194881e-04
1.07670000000000e+01 1.17784826966602e-02 1.06985798404788e-04
1.08410000000000e+01 1.16974026163057e-02 1.06613834578934e-04
1.09150000000000e+01 1.16168806706108e-02 1.06240688705935e-04
1.09890000000000e+01 1.15369130175184e-02 1.05866415613310e-04
1.10630000000000e+01 1.14574958414191e-02 1.05491068992460e-04
1.11370000000000e+01 1.13786253529693e-02 1.05114701422980e-04
1.12110000000000e+01 1.13002977889102e-02 1.04737364396359e-04
1.12850000000000e+01 1.12225094118882e-02 1.04359108339041e-04
1.13590000000000e+01 1.11452565102770e-02 1.03979982634911e-04
1.14330000000000e+01 1.10685353979999e-02 1.03600035647208e-04
1.15070000000000e+01 1.09923424143544e-02 1.03219314739861e-04
1.15810000000000e+01 1.09166739238371e-02 1.02837866298287e-04
1.16550000000000e+01 1.08415263159709e-02 1.02455735749685e-04
1.17290000000000e+01 1.07668960051318e-02 1.02072967582846e-04
1.18030000000000e+01 1.06927794303788e-02 1.01689605367417e-04
1.18770000000000e+01 1.06191730552832e-02 1.01305691772713e-04
1.19510000000000e+01 1.05460733677602e-02 1.00921268586102e-04
1.20250000000000e+01 1.04734768799015e-02 1.00536376730883e-04
1.20990000000000e+01 1.04013801278085e-02 1.00151056283793e-04
1.21730000000000e+01 1.03297796714272e-02 9.97653464920607e-05
1.22470000000000e+01 1.02586720943841e-02 9.93792857900441e-05
1.23210000000000e+01 1.01880540038232e-02 9.89929118155109e-05
1.23950000000000e+01 1.01179220302440e-02 9.86062614255029e-05
1.24690000000000e+01 1.00482728273407e-02 9.82193707118337e-05
1.25430000000000e+01 9.97910307184281e-03 9.78322750162351e-05
1.26170000000000e+01 9.91040946335622e-03 9.74450089451464e-05
1.26910000000000e+01 9.84218872420597e-03 9.70576063841674e-05
1.27650000000000e+01 9.77443759927978e-03 9.66701005121817e-05
1.28390000000000e+01 9.70715285587272e-03 9.62825238151338e-05
1.29130000000000e+01 9.64033128353298e-03 9.58949080995316e-05
1.29870000000000e+01 9.57396969390869e-03 9.55072845056338e-05
1.30610000000000e+01 9.50806492059579e-03 9.51196835203135e-05
1.31350000000000e+01 9.44261381898693e-03 9.47321349896695e-05
1.32090000000000e+01 9.37761326612144e-03 9.43446681313505e-05
1.32830000000000e+01 9.31306016053631e-03 9.39573115465842e-05
1.33570000000000e+01 9.24895142211822e-03 9.35700932319694e-05
1.34310000000000e+01 9.18528399195657e-03 9.31830405910072e-05
1.35050000000000e+01 9.12205483219751e-03 9.27961804453682e-05
1.35790000000000e+01 9.05926092589903e-03 9.24095390459180e-05
1.36530000000000e+01 8.99689927688695e-03 9.20231420835231e-05
1.37270000000000e+01 8.93496690961201e-03 9.16370146996101e-05
1.38010000000000e+01 8.87346086900788e-03 9.12511814964980e-05
1.38750000000000e+01 8.81237822035014e-03 9.08656665475170e-05
1.39490000000000e+01 8.75171604911627e-03 9.04804934069152e-05
1.40230000000000e+01 8.69147146084659e-03 9.00956851195633e-05
1.40970000000000e+01 8.63164158100613e-03 8.97112642304322e-05
1.41710000000000e+01 8.57222355484752e-03 8.93272527939043e-05
1.42450000000000e+01 8.51321454727471e-03 8.89436723828700e-05
1.43190000000000e+01 8.45461174270775e-03 8.85605440976449e-05
1.43930000000000e+01 8.39641234494840e-03 8.81778885746933e-05
1.44670000000000e+01 8.33861357704677e-03 8.77957259951981e-05
1.45410000000000e+01 8.28121268116878e-03 8.74140760934393e-05
1.46150000000000e+01 8.22420691846456e-03 8.70329581649878e-05
1.46890000000000e+01 8.16759356893781e-03 8.66523910747739e-05
1.47630000000000e+01 8.11136993131598e-03 8.62723932649467e-05
1.48370000000000e+01 8.05553332292139e-03 8.58929827626112e-05
1.49110000000000e+01 8.00008107954325e-03 8.55141771874090e-05
1.49850000000000e+01 7.94501055531050e-03 8.51359937589218e-05
1.50590000000000e+01 7.89031912256559e-03 8.47584493039506e-05
1.51330000000000e+01 7.83600417173910e-03 8.43815602636479e-05
1.52070000000000e+01 7.78206311122521e-03 8.40053427005088e-05
1.52810000000000e+01 7.72849336725808e-03 8.36298123052303e-05
1.53550000000000e+01 7.67529238378899e-03 8.32549844034261e-05
1.54290000000000e+01 7.62245762236443e-03 8.28808739622084e-05
1.55030000000000e+01 7.56998656200494e-03 8.25074955966621e-05
1.55770000000000e+01 7.51787669908487e-03 8.21348635761878e-05
1.56510000000000e+01 7.46612554721287e-03 8.17629918307122e-05
1.57250000000000e+01 7.41473063711329e-03 8.13918939567859e-05
1.57990000000000e+01 7.36368951650832e-03 8.10215832235608e-05
1.58730000000000e+01 7.31299975000104e-03 8.06520725786635e-05
1.59470000000000e+01 7.26265891895917e-03 8.02833746539616e-05
1.60210000000000e+01 7.21266462139967e-03 7.99155017712031e-05
1.60950000000000e+01 7.16301447187415e-03 7.95484659475540e-05
1.61690000000000e+01 7.11370610135505e-03 7.91822789010456e-05
1.62430000000000e+01 7.06473715712256e-03 7.88169520559111e-05
1.63170000000000e+01 7.01610530265245e-03 7.84524965478203e-05
1.63910000000000e+01 6.96780821750447e-03 7.80889232290326e-05
1.64650000000000e+01 6.91984359721174e-03 7.77262426734275e-05
1.65390000000000e+01 6.87220915317070e-03 7.73644651814634e-05
1.66130000000000e+01 6.82490261253200e-03 7.70036007850467e-05
1.66870000000000e+01 6.77792171809196e-03 7.66436592522942e-05
1.67610000000000e+01 6.73126422818495e-03 7.62846500922237e-05
1.68350000000000e+01 6.68492791657639e-03 7.59265825593559e-05
1.69090000000000e+01 6.63891057235653e-03 7.55694656582357e-05
1.69830000000000e+01 6.59320999983495e-03 7.52133081478554e-05
1.70570000000000e+01 6.54782401843581e-03 7.48581185460219e-05
1.71310000000000e+01 6.50275046259382e-03 7.45039051336314e-05
1.72050000000000e+01 6.45798718165087e-03 7.41506759588630e-05
1.72790000000000e+01 6.41353203975343e-03 7.37984388413122e-05
1.73530000000000e+01 6.36938291575066e-03 7.34472013760419e-05
1.74270000000000e+01 6.32553770309317e-03 7.30969709375559e-05
1.75010000000000e+01 6.28199430973253e-03 7.27477546837124e-05
1.75750000000000e+01 6.23875065802143e-03 7.23995595595630e-05
1.76490000000000e+01 6.19580468461455e-03 7.20523923011225e-05
1.77230000000000e+01 6.15315434037015e-03 7.17062594390789e-05
1.77970000000000e+01 6.11079759025222e-03 7.13611673024307e-05
1.78710000000000e+01 6.06873241323343e-03 7.10171220220645e-05
1.79450000000000e+01 6.02695680219871e-03 7.06741295342655e-05
1.80190000000000e+01 5.98546876384943e-03 7.03321955841710e-05
1.80930000000000e+01 5.94426631860835e-03 6.99913257291746e-05
1.81670000000000e+01 5.90334750052510e-03 6.96515253422448e-05
1.82410000000000e+01 5.86271035718246e-03 6.93127996152002e-05
1.83150000000000e+01 5.82235294960310e-03 6.89751535619447e-05
1.83890000000000e+01 5.78227335215717e-03 6.86385920216171e-05
1.84630000000000e+01 5.74246965247032e-03 6.83031196617042e-05
1.85370000000000e+01 5.70293995133254e-03 6.79687409811049e-05
1.86110000000000e+01 5.66368236260746e-03 6.76354603131236e-05
1.86850000000000e+01 5.62469501314243e-03 6.73032818284212e-05
1.87590000000000e+01 5.58597604267907e-03 6.69722095379261e-05
1.88330000000000e+01 5.54752360376458e-03 6.66422472956851e-05
1.89070000000000e+01 5.50933586166353e-03 6.63133988016585e-05
1.89810000000000e+01 5.47141099427036e-03 6.59856676044845e-05
1.90550000000000e+01 5.43374719202241e-03 6.56590571041921e-05
1.91290000000000e+01 5.39634265781359e-03 6.53335705548555e-05
1.92030000000000e+01 5.35919560690864e-03 6.50092110672160e-05
1.92770000000000e+01 5.32230426685796e-03 6.46859816112655e-05
1.93510000000000e+01 5.28566687741303e-03 6.43638850187692e-05
1.94250000000000e+01 5.24928169044244e-03 6.40429239857516e-05
1.94990000000000e+01 5.21314696984849e-03 6.37231010749564e-05
1.95730000000000e+01 5.17726099148431e-03 6.34044187182408e-05
1.96470000000000e+01 5.14162204307164e-03 6.30868792189480e-05
1.97210000000000e+01 5.10622842411910e-03 6.27704847542414e-05
1.97950000000000e+01 5.07107844584105e-03 6.24552373773786e-05
1.98690000000000e+01 5.03617043107703e-03 6.21411390199704e-05
1.99430000000000e+01 5.00150271421172e-03 6.18281914941893e-05
2.00170000000000e+01 4.96707364109549e-03 6.15163964949447e-05
2.00910000000000e+01 4.93288156896544e-03 6.12057556020294e-05
2.01650000000000e+01 4.89892486636703e-03 6.08962702822224e-05
2.02390000000000e+01 4.86520191307625e-03 6.05879418913580e-05
2.03130000000000e+01 4.83171110002229e-03 6.02807716763638e-05
2.03870000000000e+01 4.79845082921079e-03 5.99747607772574e-05
2.04610000000000e+01 4.76541951364755e-03 5.96699102291185e-05
2.05350000000000e+01 4.73261557726286e-03 5.93662209640347e-05
2.06090000000000e+01 4.70003745483626e-03 5.90636938129975e-05
2.06830000000000e+01 4.66768359192187e-03 5.87623295077756e-05
2.07570000000000e+01 4.63555244477423e-03 5.84621286827656e-05
2.08310000000000e+01 4.60364248027462e-03 5.81630918768022e-05
2.09050000000000e+01 4.57195217585791e-03 5.78652195349421e-05
2.09790000000000e+01 4.54048001943996e-03 5.75685120102213e-05
2.10530000000000e+01 4.50922450934539e-03 5.72729695653802e-05
2.11270000000000e+01 4.47818415423600e-03 5.69785923745623e-05
2.12010000000000e+01 4.44735747303956e-03 5.66853805249811e-05
2.12750000000000e+01 4.41674299487919e-03 5.63933340185678e-05
2.13490000000000e+01 4.38633925900314e-03 5.61024527735922e-05
2.14230000000000e+01 4.35614481471509e-03 5.58127366262495e-05
2.14970000000000e+01 4.32615822130497e-03 5.55241853322214e-05
2.15710000000000e+01 4.29637804798017e-03 5.52367985682196e-05
2.16450000000000e+01 4.26680287379732e-03 5.49505759335029e-05
2.17190000000000e+01 4.23743128759442e-03 5.46655169513668e-05
2.17930000000000e+01 4.20826188792360e-03 5.43816210706072e-05
2.18670000000000e+01 4.17929328298416e-03 5.40988876669655e-05
2.19410000000000e+01 4.15052409055623e-03 5.38173160445500e-05
2.20150000000000e+01 4.12195293793476e-03 5.35369054372264e-05
2.20890000000000e+01 4.09357846186409e-03 5.32576550099989e-05
2.21630000000000e+01 4.06539930847285e-03 5.29795638603608e-05
2.22370000000000e+01 4.03741413320935e-03 5.27026310196232e-05
2.23110000000000e+01 4.00962160077750e-03 5.24268554542237e-05
2.23850000000000e+01 3.98202038507301e-03 5.21522360670162e-05
2.24590000000000e+01 3.95460916912017e-03 5.18787716985397e-05
2.25330000000000e+01 3.92738664500899e-03 5.16064611282638e-05
2.26070000000000e+01 3.90035151383282e-03 5.13353030758135e-05
2.26810000000000e+01 3.87350248562632e-03 5.10652962021825e-05
2.27550000000000e+01 3.84683827930398e-03 5.07964391109175e-05
2.28290000000000e+01 3.82035762259892e-03 5.05287303492829e-05
2.29030000000000e+01 3.79405925200224e-03 5.02621684094230e-05
2.29770000000000e+01 3.76794191270273e-03 4.99967517294888e-05
2.30510000000000e+01 3.74200435852696e-03 4.97324786947483e-05
2.31250000000000e+01 3.71624535187984e-03 4.94693476386836e-05
2.31990000000000e+01 3.69066366368558e-03 4.92073568440726e-05
2.32730000000000e+01 3.66525807332903e-03 4.89465045440512e-05
2.33470000000000e+01 3.64002736859745e-03 4.86867889231541e-05
