Energy (eV)          EEDF (eV^-(3/2))     First Anisotropy
1.91428571428571e-02 1.47291562151280e-01 9.31570763941685e-05
5.74285714285714e-02 1.45842782718367e-01 1.53588605605704e-04
9.57142857142857e-02 1.44408253672929e-01 2.02119014584356e-04
1.34000000000000e-01 1.42987834844836e-01 2.38603554091819e-04
1.72285714285714e-01 1.41581387449050e-01 2.68715664248939e-04
2.10571428571429e-01 1.40188774058845e-01 2.94609885806176e-04
2.48857142857143e-01 1.38809858594884e-01 3.17405877753863e-04
2.87142857142857e-01 1.37444506329110e-01 3.37782536333249e-04
3.25428571428571e-01 1.36092583851296e-01 3.56191933538354e-04
3.63714285714286e-01 1.34753959060182e-01 3.72954857888904e-04
4.02000000000000e-01 1.33428501162154e-01 3.88309711124113e-04
4.40285714285714e-01 1.32116080645572e-01 4.02440025864502e-04
4.78571428571429e-01 1.30816569272788e-01 4.15491081572607e-04
5.16857142857143e-01 1.29529840065125e-01 4.27580501239076e-04
5.55142857142857e-01 1.28255767298182e-01 4.38805311304160e-04
5.93428571428571e-01 1.26994226481338e-01 4.49246816272710e-04
6.31714285714286e-01 1.25745094346574e-01 4.58974064714711e-04
6.70000000000000e-01 1.24508248842561e-01 4.68046379681833e-04
7.08285714285714e-01 1.23283569116259e-01 4.76515245611472e-04
7.46571428571429e-01 1.22070935503374e-01 4.84425741720007e-04
7.84857142857143e-01 1.20870229515151e-01 4.91817649806356e-04
8.23142857142857e-01 1.19681333831484e-01 4.98726323649070e-04
8.61428571428571e-01 1.18504132284566e-01 5.05183380118575e-04
8.99714285714286e-01 1.17338509847966e-01 5.11217253687223e-04
9.38000000000000e-01 1.16184352629370e-01 5.16853648365761e-04
9.76285714285714e-01 1.15041547855316e-01 5.22115908536669e-04
1.01457142857143e+00 1.13909983861604e-01 5.27025325985045e-04
1.05285714285714e+00 1.12789550076926e-01 5.31601393781277e-04
1.09114285714286e+00 1.11680137032977e-01 5.35862024096515e-04
1.12942857142857e+00 1.10581636327646e-01 5.39823733014527e-04
1.16771428571429e+00 1.09493940616171e-01 5.43501789572172e-04
1.20600000000000e+00 1.08416943628526e-01 5.46910353781030e-04
1.24428571428571e+00 1.07350540121742e-01 5.50062590560138e-04
1.28257142857143e+00 1.06294625905623e-01 5.52970769082326e-04
1.32085714285714e+00 1.05249097797803e-01 5.55646349761259e-04
1.35914285714286e+00 1.04213853647249e-01 5.58100058874338e-04
1.39742857142857e+00 1.03188792299194e-01 5.60341959419872e-04
1.43571428571429e+00 1.02173813587030e-01 5.62381503716165e-04
1.47400000000000e+00 1.01168818343673e-01 5.64227589449113e-04
1.51228571428571e+00 1.00173708363614e-01 5.65888605039913e-04
1.55057142857143e+00 9.91883864207304e-02 5.67372470639185e-04
1.58885714285714e+00 9.82127562321985e-02 5.68686675175366e-04
1.62714285714286e+00 9.72467224748874e-02 5.69838308359558e-04
1.66542857142857e+00 9.62901907567580e-02 5.70834094001818e-04
1.70371428571429e+00 9.53430676088407e-02 5.71680411576338e-04
1.74200000000000e+00 9.44052604927317e-02 5.72383323901492e-04
1.78028571428571e+00 9.34766777693553e-02 5.72948598399014e-04
1.81857142857143e+00 9.25572287116052e-02 5.73381726908511e-04
1.85685714285714e+00 9.16468234744629e-02 5.73687944059026e-04
1.89514285714286e+00 9.07453731066782e-02 5.73872242991958e-04
1.93342857142857e+00 8.98527895267768e-02 5.73939393656681e-04
1.97171428571429e+00 8.89689855153107e-02 5.73893952209006e-04
2.01000000000000e+00 8.80938747197422e-02 5.73740276768348e-04
2.04828571428571e+00 8.72273716281218e-02 5.73482538557013e-04
2.08657142857143e+00 8.63693915781748e-02 5.73124732608674e-04
2.12485714285714e+00 8.55198507320157e-02 5.72670687928422e-04
2.16314285714286e+00 8.46786660845548e-02 5.72124075981069e-04
2.20142857142857e+00 8.38457554429714e-02 5.71488421970601e-04
2.23971428571429e+00 8.30210374193182e-02 5.70767108843146e-04
2.27800000000000e+00 8.22044314335801e-02 5.69963387266961e-04
2.31628571428571e+00 8.13958576911171e-02 5.69080381956703e-04
2.35457142857143e+00 8.05952371892136e-02 5.68121097960354e-04
2.39285714285714e+00 7.98024916953404e-02 5.67088426758458e-04
2.43114285714286e+00 7.90175437532117e-02 5.65985151167535e-04
2.46942857142857e+00 7.82403166649655e-02 5.64813952933504e-04
2.50771428571429e+00 7.74707344841562e-02 5.63577414139372e-04
2.54600000000000e+00 7.67087220175092e-02 5.62278024061744e-04
2.58428571428571e+00 7.59542048053414e-02 5.60918182980542e-04
2.62257142857143e+00 7.52071091262541e-02 5.59500206112582e-04
2.66085714285714e+00 7.44673619782178e-02 5.58026327514402e-04
2.69914285714286e+00 7.37348910829015e-02 5.56498703057458e-04
2.73742857142857e+00 7.30096248700329e-02 5.54919415895420e-04
2.77571428571429e+00 7.22914924707868e-02 5.53290476560364e-04
2.81400000000000e+00 7.15804237185950e-02 5.51613827975697e-04
2.85228571428571e+00 7.08763491319805e-02 5.49891347855113e-04
2.89057142857143e+00 7.01791999178675e-02 5.48124851290374e-04
2.92885714285714e+00 6.94889079549664e-02 5.46316093379127e-04
2.96714285714286e+00 6.88054057968099e-02 5.44466771094982e-04
3.00542857142857e+00 6.81286266579097e-02 5.42578527431325e-04
3.04371428571429e+00 6.74585044075349e-02 5.40652950821361e-04
3.08200000000000e+00 6.67949735698316e-02 5.38691578981543e-04
3.12028571428571e+00 6.61379693086545e-02 5.36695900473101e-04
3.15857142857143e+00 6.54874274298311e-02 5.34667356474602e-04
3.19685714285714e+00 6.48432843664572e-02 5.32607342625798e-04
3.23514285714286e+00 6.42054771809542e-02 5.30517210231907e-04
3.27342857142857e+00 6.35739435527315e-02 5.28398269529980e-04
3.31171428571429e+00 6.29486217723434e-02 5.26251788765437e-04
3.35000000000000e+00 6.23294507411035e-02 5.24078997247848e-04
3.38828571428571e+00 6.17163699575936e-02 5.21881086392520e-04
3.42657142857143e+00 6.11093195191320e-02 5.19659210975121e-04
3.46485714285714e+00 6.05082401086790e-02 5.17414490470126e-04
3.50314285714286e+00 5.99130729961472e-02 5.15148009837841e-04
3.54142857142857e+00 5.93237600273443e-02 5.12860822177392e-04
3.57971428571429e+00 5.87402436184931e-02 5.10553947641353e-04
3.61800000000000e+00 5.81624667554771e-02 5.08228375933880e-04
3.65628571428571e+00 5.75903729817778e-02 5.05885067017419e-04
3.69457142857143e+00 5.70239063993327e-02 5.03524952025148e-04
3.73285714285714e+00 5.64630116568144e-02 5.01148934260238e-04
3.77114285714286e+00 5.59076339503686e-02 4.98757889712891e-04
3.80942857142857e+00 5.53577190136583e-02 4.96352669265386e-04
3.84771428571429e+00 5.48132131127302e-02 4.93934097546539e-04
3.88600000000000e+00 5.42740630449931e-02 4.91502975018379e-04
3.92428571428571e+00 5.37402161283852e-02 4.89060078460526e-04
3.96257142857143e+00 5.32116202017618e-02 4.86606161648876e-04
4.00085714285714e+00 5.26882236143602e-02 4.84141956119525e-04
4.03914285714286e+00 5.21699752260966e-02 4.81668171506427e-04
4.07742857142857e+00 5.16568243985693e-02 4.79185497407230e-04
4.11571428571429e+00 5.11487209902515e-02 4.76694602235531e-04
4.15400000000000e+00 5.06456153552812e-02 4.74196134992986e-04
4.19228571428571e+00 5.01474583336954e-02 4.71690725602499e-04
4.23057142857143e+00 4.96542012514578e-02 4.69178985422721e-04
4.26885714285714e+00 4.91657959109540e-02 4.66661507843723e-04
4.30714285714286e+00 4.86821945909504e-02 4.64138868503238e-04
4.34542857142857e+00 4.82033500384368e-02 4.61611626887598e-04
4.38371428571429e+00 4.77292154641284e-02 4.59080325214401e-04
4.42200000000000e+00 4.72597445411257e-02 4.56545489957457e-04
4.46028571428571e+00 4.67948913960827e-02 4.54007632075065e-04
4.49857142857143e+00 4.63346106089585e-02 4.51467247406200e-04
4.53685714285714e+00 4.58788572044153e-02 4.48924817142887e-04
4.57514285714286e+00 4.54275866515192e-02 4.46380807962940e-04
4.61342857142857e+00 4.49807548563235e-02 4.43835673418867e-04
4.65171428571429e+00 4.45383181576612e-02 4.41289852869022e-04
4.69000000000000e+00 4.41002333257213e-02 4.38743772803420e-04
4.72828571428571e+00 4.36664575540389e-02 4.36197846998122e-04
4.76657142857143e+00 4.32369484590369e-02 4.33652476824429e-04
4.80485714285714e+00 4.28116640722204e-02 4.31108051628862e-04
4.84314285714286e+00 4.23905628396812e-02 4.28564948807857e-04
4.88142857142857e+00 4.19736036153388e-02 4.26023535023302e-04
4.91971428571429e+00 4.15607456570068e-02 4.23484165191471e-04
4.95800000000000e+00 4.11519486249190e-02 4.20947183645391e-04
4.99628571428571e+00 4.07471725744482e-02 4.18412924236396e-04
5.03457142857143e+00 4.03463779554902e-02 4.15881710578153e-04
5.07285714285714e+00 3.99495256053640e-02 4.13353856356122e-04
5.11114285714286e+00 3.95565767481695e-02 4.10829665361608e-04
5.14942857142857e+00 3.91674929886149e-02 4.08309432563182e-04
5.18771428571429e+00 3.87822363083400e-02 4.05793443157297e-04
5.22600000000000e+00 3.84007690644199e-02 4.03281973594227e-04
5.26428571428571e+00 3.80230539827320e-02 4.00775291641634e-04
5.30257142857143e+00 3.76490541572226e-02 3.98273656578929e-04
5.34085714285714e+00 3.72787330434372e-02 3.95777319451919e-04
5.37914285714286e+00 3.69120544577693e-02 3.93286523078410e-04
5.41742857142857e+00 3.65489825718139e-02 3.90801502998117e-04
5.45571428571429e+00 3.61894819089315e-02 3.88322486585638e-04
5.49400000000000e+00 3.58335173427497e-02 3.85849693960991e-04
5.53228571428571e+00 3.54810540911096e-02 3.83383338025676e-04
5.57057142857143e+00 3.51320577152487e-02 3.80923624618692e-04
5.60885714285714e+00 3.47864941138936e-02 3.78470752727953e-04
5.64714285714286e+00 3.44443295224316e-02 3.76024914476057e-04
5.68542857142857e+00 3.41055305077372e-02 3.73586295966402e-04
5.72371428571429e+00 3.37700639649614e-02 3.71155076457413e-04
5.76200000000000e+00 3.34378971160479e-02 3.68731429174405e-04
5.80028571428571e+00 3.31089975041980e-02 3.66315521325536e-04
5.83857142857143e+00 3.27833329929968e-02 3.63907514227908e-04
5.87685714285714e+00 3.24608717610101e-02 3.61507563484463e-04
5.91514285714286e+00 3.21415823009041e-02 3.59115818955998e-04
5.95342857142857e+00 3.18254334146981e-02 3.56732425517916e-04
5.99171428571429e+00 3.15123942107652e-02 3.54357522293287e-04
6.03000000000000e+00 3.12024341023745e-02 3.51991243379493e-04
6.06828571428571e+00 3.08955228026238e-02 3.49633717849673e-04
6.10657142857143e+00 3.05916303235279e-02 3.47285069855117e-04
6.14485714285714e+00 3.02907269710714e-02 3.44945418774272e-04
6.18314285714286e+00 2.99927833442946e-02 3.42614879175398e-04
6.22142857142857e+00 2.96977703309328e-02 3.40293561495674e-04
6.25971428571429e+00 2.94056591046144e-02 3.37981571330215e-04
6.29800000000000e+00 2.91164211234383e-02 3.35679010084523e-04
6.33628571428571e+00 2.88300281253284e-02 3.33385974965365e-04
6.37457142857143e+00 2.85464521271016e-02 3.31102559064307e-04
6.41285714285714e+00 2.82656654199306e-02 3.28828851484001e-04
6.45114285714286e+00 2.79876405684136e-02 3.26564937294630e-04
6.48942857142857e+00 2.77123504065628e-02 3.24310898145113e-04
6.52771428571429e+00 2.74397680351880e-02 3.22066811604782e-04
6.56600000000000e+00 2.71698668205154e-02 3.19832751750838e-04
6.60428571428571e+00 2.69026203899241e-02 3.17608789151716e-04
6.64257142857143e+00 2.66380026310064e-02 3.15394990935377e-04
6.68085714285714e+00 2.63759876874027e-02 3.13191420896876e-04
6.71914285714286e+00 2.61165499578655e-02 3.10998139451004e-04
6.75742857142857e+00 2.58596640925674e-02 3.08815204183693e-04
6.79571428571429e+00 2.56053049906567e-02 3.06642669242994e-04
6.83400000000000e+00 2.53534477989234e-02 3.04480585869278e-04
6.87228571428571e+00 2.51040679078812e-02 3.02329002373268e-04
6.91057142857143e+00 2.48571409508312e-02 3.00187964192072e-04
6.94885714285714e+00 2.46126428000337e-02 2.98057513981135e-04
6.98714285714286e+00 2.43705495657773e-02 2.95937691564788e-04
7.02542857142857e+00 2.41308375929767e-02 2.93828534434800e-04
7.06371428571429e+00 2.38934834588905e-02 2.91730077187272e-04
7.10200000000000e+00 2.36584639718361e-02 2.89642352002156e-04
7.14028571428571e+00 2.34257561675870e-02 2.87565388617669e-04
7.17857142857143e+00 2.31953373084472e-02 2.85499214376260e-04
7.21685714285714e+00 2.29671848797295e-02 2.83443854303555e-04
7.25514285714286e+00 2.27412765888372e-02 2.81399331058065e-04
7.29342857142857e+00 2.25175903621265e-02 2.79365665382728e-04
7.33171428571428e+00 2.22961043427756e-02 2.77342875584538e-04
7.37000000000000e+00 2.20767968895512e-02 2.75330977969011e-04
7.40828571428571e+00 2.18596465734926e-02 2.73329986812153e-04
7.44657142857143e+00 2.16446321770025e-02 2.71339914398255e-04
7.48485714285714e+00 2.14317326906052e-02 2.69360771087883e-04
7.52314285714286e+00 2.12209273120467e-02 2.67392565267592e-04
7.56142857142857e+00 2.10121954433986e-02 2.65435303759612e-04
7.59971428571429e+00 2.08055166890689e-02 2.63488991341094e-04
7.63800000000000e+00 2.06008708546214e-02 2.61553631138342e-04
7.67628571428571e+00 2.03982379437202e-02 2.59629224597372e-04
7.71457142857143e+00 2.01975981572436e-02 2.57715771514893e-04
7.75285714285714e+00 1.99989318902965e-02 2.55813270096989e-04
7.79114285714286e+00 1.98022197313328e-02 2.53921716909633e-04
7.82942857142857e+00 1.96074424594822e-02 2.52041107250908e-04
7.86771428571429e+00 1.94145810426918e-02 2.50171434706818e-04
7.90600000000000e+00 1.92236166365990e-02 2.48312691509581e-04
7.94428571428571e+00 1.90345305817151e-02 2.46464868507473e-04
7.98257142857143e+00 1.88473044025638e-02 2.44627955190197e-04
8.02085714285714e+00 1.86619198049272e-02 2.42801939739719e-04
8.05914285714286e+00 1.84783586749943e-02 2.40986808981885e-04
8.09742857142857e+00 1.82966030768902e-02 2.39182548725066e-04
8.13571428571429e+00 1.81166352509419e-02 2.37389143349880e-04
8.17400000000000e+00 1.79384376126035e-02 2.35606576135169e-04
8.21228571428571e+00 1.77619927498585e-02 2.33834829227681e-04
8.25057142857143e+00 1.75872834223858e-02 2.32073883662767e-04
8.28885714285714e+00 1.74142925590198e-02 2.30323719408453e-04
8.32714285714286e+00 1.72430032569260e-02 2.28584315318601e-04
8.36542857142857e+00 1.70733987793180e-02 2.26855649441331e-04
8.40371428571429e+00 1.69054625538376e-02 2.25137698640032e-04
8.44200000000000e+00 1.67391781715328e-02 2.23430438890320e-04
8.48028571428571e+00 1.65745293844593e-02 2.21733845249901e-04
8.51857142857143e+00 1.64115001048773e-02 2.20047891875394e-04
8.55685714285714e+00 1.62500744029059e-02 2.18372552060659e-04
8.59514285714286e+00 1.60902365057296e-02 2.16707798191670e-04
8.63342857142857e+00 1.59319707954863e-02 2.15053602027700e-04
8.67171428571429e+00 1.57752618077548e-02 2.13409934351211e-04
8.71000000000000e+00 1.56200942305842e-02 2.11776765238648e-04
8.74828571428571e+00 1.54664529022789e-02 2.10154064030823e-04
8.78657142857143e+00 1.53143228106261e-02 2.08541799346512e-04
8.82485714285714e+00 1.51636890907293e-02 2.06939939115787e-04
8.86314285714286e+00 1.50145370242462e-02 2.05348450536747e-04
8.90142857142857e+00 1.48668520374341e-02 2.03767300332128e-04
8.93971428571428e+00 1.47206196997381e-02 2.02196454425880e-04
8.97800000000000e+00 1.45758257228700e-02 2.00635878190298e-04
9.01628571428571e+00 1.44324559587619e-02 1.99085536417139e-04
9.05457142857143e+00 1.42904963988250e-02 1.97545393328514e-04
9.09285714285714e+00 1.41499331719481e-02 1.96015412605908e-04
9.13114285714286e+00 1.40107525437668e-02 1.94495557348888e-04
9.16942857142857e+00 1.38729409148540e-02 1.92985790309459e-04
9.20771428571429e+00 1.37364848194021e-02 1.91486073593247e-04
9.24600000000000e+00 1.36013709243504e-02 1.89996368885236e-04
9.28428571428571e+00 1.34675860274924e-02 1.88516637421774e-04
9.32257142857143e+00 1.33351170567680e-02 1.87046839999207e-04
9.36085714285714e+00 1.32039510684116e-02 1.85586936999176e-04
9.39914285714286e+00 1.30740752462544e-02 1.84136888349295e-04
9.43742857142857e+00 1.29454769000477e-02 1.82696653737377e-04
9.47571428571429e+00 1.28181434642336e-02 1.81266192335306e-04
9.51400000000000e+00 1.26920624971180e-02 1.79845463005395e-04
9.55228571428571e+00 1.25672216791209e-02 1.78434424273390e-04
9.59057142857143e+00 1.24436088121002e-02 1.77033034335201e-04
9.62885714285714e+00 1.23212118176389e-02 1.75641251078969e-04
9.66714285714286e+00 1.22000187363787e-02 1.74259032047728e-04
9.70542857142857e+00 1.20800177264674e-02 1.72886334635367e-04
9.74371428571428e+00 1.19611970624102e-02 1.71523115831431e-04
9.78200000000000e+00 1.18435451342890e-02 1.70169332409877e-04
9.82028571428571e+00 1.17270504461425e-02 1.68824940903167e-04
9.85857142857143e+00 1.16117016153219e-02 1.67489897607410e-04
9.89685714285714e+00 1.14974873709061e-02 1.66164158601615e-04
9.93514285714286e+00 1.13843965530667e-02 1.64847679712299e-04
9.97342857142857e+00 1.12724181116286e-02 1.63540416692857e-04
1.00117142857143e+01 1.11615411049985e-02 1.62242324831548e-04
1.00500000000000e+01 1.10517546998583e-02 1.60953359905535e-04
1.00882857142857e+01 1.09430481675073e-02 1.59673476866647e-04
1.01265714285714e+01 1.08354108872508e-02 1.58402630189849e-04
1.01648571428571e+01 1.07288323417787e-02 1.57140775126404e-04
1.02031428571429e+01 1.06233021172303e-02 1.55887866390657e-04
1.02414285714286e+01 1.05188099021766e-02 1.54643858572661e-04
1.02797142857143e+01 1.04153454866140e-02 1.53408706147693e-04
1.03180000000000e+01 1.03128987609659e-02 1.52182363842265e-04
1.03562857142857e+01 1.02114597141253e-02 1.50964785566463e-04
1.03945714285714e+01 1.01110184354092e-02 1.49755925143921e-04
1.04328571428571e+01 1.00115651106334e-02 1.48555737054317e-04
1.04711428571429e+01 9.91309002214760e-03 1.47364175335652e-04
1.05094285714286e+01 9.81558354788503e-03 1.46181193963485e-04
1.05477142857143e+01 9.71903616042359e-03 1.45006746858934e-04
1.05860000000000e+01 9.62343842605425e-03 1.43840788225128e-04
1.06242857142857e+01 9.52878100297739e-03 1.42683271562865e-04
1.06625714285714e+01 9.43505464305694e-03 1.41534150342350e-04
1.07008571428571e+01 9.34225018822821e-03 1.40393378686550e-04
1.07391428571429e+01 9.25035857050654e-03 1.39260910359236e-04
1.07774285714286e+01 9.15937081110060e-03 1.38136699113653e-04
1.08157142857143e+01 9.06927801953637e-03 1.37020698699216e-04
1.08540000000000e+01 8.98007139278780e-03 1.35912863170908e-04
1.08922857142857e+01 8.89174221361396e-03 1.34813145981509e-04
1.09305714285714e+01 8.80428185213456e-03 1.33721500599974e-04
1.09688571428571e+01 8.71768176253991e-03 1.32637881140577e-04
1.10071428571429e+01 8.63193348307808e-03 1.31562241429706e-04
1.10454285714286e+01 8.54702863522759e-03 1.30494535326600e-04
1.10837142857143e+01 8.46295892287985e-03 1.29434716728921e-04
1.11220000000000e+01 8.37971613152794e-03 1.28382739857359e-04
1.11602857142857e+01 8.29729212673303e-03 1.27338558418249e-04
1.11985714285714e+01 8.21567885553992e-03 1.26302126173037e-04
1.12368571428571e+01 8.13486834346209e-03 1.25273397517684e-04
1.12751428571429e+01 8.05485269445117e-03 1.24252326621877e-04
1.13134285714286e+01 7.97562409012494e-03 1.23238867724153e-04
1.13517142857143e+01 7.89717478900441e-03 1.22232975136503e-04
1.13900000000000e+01 7.81949712575685e-03 1.21234603506285e-04
1.14282857142857e+01 7.74258350978072e-03 1.20243707043553e-04
1.14665714285714e+01 7.66642642647814e-03 1.19260240045637e-04
1.15048571428571e+01 7.59101843449040e-03 1.18284157430940e-04
1.15431428571429e+01 7.51635216565302e-03 1.17315413944717e-04
1.15814285714286e+01 7.44242032427540e-03 1.16353964430718e-04
1.16197142857143e+01 7.36921568642881e-03 1.15399763834964e-04
1.16580000000000e+01 7.29673109924012e-03 1.14452767446864e-04
1.16962857142857e+01 7.22495947958554e-03 1.13512930186079e-04
1.17345714285714e+01 7.15389381523484e-03 1.12580207085889e-04
1.17728571428571e+01 7.08352716231530e-03 1.11654553785114e-04
1.18111428571429e+01 7.01385264525509e-03 1.10735925795147e-04
1.18494285714286e+01 6.94486345611108e-03 1.09824278750065e-04
1.18877142857143e+01 6.87655285390442e-03 1.08919568409685e-04
1.19260000000000e+01 6.80891416396147e-03 1.08021750881596e-04
1.19642857142857e+01 6.74194077670763e-03 1.07130781962813e-04
1.20025714285714e+01 6.67562614869655e-03 1.06246617585320e-04
1.20408571428571e+01 6.60996380028247e-03 1.05369214269527e-04
1.20791428571429e+01 6.54494731555432e-03 1.04498528447638e-04
