Energy (eV)          EEDF (eV^-(3/2))     First Anisotropy
3.63333333333333e-02 2.00218601205032e-01 1.92272846203394e-04
1.09000000000000e-01 1.95641282944976e-01 3.14926593418640e-04
1.81666666666667e-01 1.91168609530561e-01 4.08984185520696e-04
2.54333333333333e-01 1.86798188594579e-01 4.76458695218897e-04
3.27000000000000e-01 1.82527682482848e-01 5.29529717250818e-04
3.99666666666667e-01 1.78354806997431e-01 5.72919593194454e-04
4.72333333333333e-01 1.74277330133182e-01 6.09130476711914e-04
5.45000000000000e-01 1.70293070925057e-01 6.39707676370456e-04
6.17666666666667e-01 1.66399898275715e-01 6.65698310713326e-04
6.90333333333333e-01 1.62595729793497e-01 6.87857771699830e-04
7.63000000000000e-01 1.58878530700624e-01 7.06756216773259e-04
8.35666666666667e-01 1.55246312742417e-01 7.22838971161555e-04
9.08333333333333e-01 1.51697133109286e-01 7.36463287531827e-04
9.81000000000000e-01 1.48229093412094e-01 7.47921973964690e-04
1.05366666666667e+00 1.44840338674687e-01 7.57459264690665e-04
1.12633333333333e+00 1.41529056293812e-01 7.65281861920149e-04
1.19900000000000e+00 1.38293475127970e-01 7.71566854345736e-04
1.27166666666667e+00 1.35131864553106e-01 7.76467553490357e-04
1.34433333333333e+00 1.32042533457337e-01 7.80117873010019e-04
1.41700000000000e+00 1.29023829416448e-01 7.82635684594919e-04
1.48966666666667e+00 1.26074137803996e-01 7.84125446870998e-04
1.56233333333333e+00 1.23191880864982e-01 7.84680274513186e-04
1.63500000000000e+00 1.20375516935078e-01 7.84383596916971e-04
1.70766666666667e+00 1.17623539611578e-01 7.83310515268721e-04
1.78033333333333e+00 1.14934476897035e-01 7.81528905951654e-04
1.85300000000000e+00 1.12306890462949e-01 7.79100334237977e-04
1.92566666666667e+00 1.09739374877042e-01 7.76080827640487e-04
1.99833333333333e+00 1.07230556809897e-01 7.72521518856873e-04
2.07100000000000e+00 1.04779094342390e-01 7.68469191376861e-04
2.14366666666667e+00 1.02383676245263e-01 7.63966754456784e-04
2.21633333333333e+00 1.00043021243058e-01 7.59053643971700e-04
2.28900000000000e+00 9.77558773638370e-02 7.53766169144108e-04
2.36166666666667e+00 9.55210212673997e-02 7.48137821849900e-04
2.43433333333333e+00 9.33372575616533e-02 7.42199540170102e-04
2.50700000000000e+00 9.12034181928074e-02 7.35979939861417e-04
2.57966666666667e+00 8.91183618188670e-02 7.29505525436265e-04
2.65233333333333e+00 8.70809731742166e-02 7.22800870986071e-04
2.72500000000000e+00 8.50901624982868e-02 7.15888780973412e-04
2.79766666666667e+00 8.31448649512268e-02 7.08790439875398e-04
2.87033333333333e+00 8.12440400229486e-02 7.01525540630872e-04
2.94300000000000e+00 7.93866709982084e-02 6.94112400029396e-04
3.01566666666667e+00 7.75717644115855e-02 6.86568068184511e-04
3.08833333333333e+00 7.57983494976211e-02 6.78908422426900e-04
3.16100000000000e+00 7.40654776902603e-02 6.71148252370730e-04
3.23366666666667e+00 7.23722221144702e-02 6.63301342120897e-04
3.30633333333333e+00 7.07176770744275e-02 6.55380540563798e-04
3.37900000000000e+00 6.91009575853110e-02 6.47397825504758e-04
3.45166666666667e+00 6.75211988990784e-02 6.39364366768361e-04
3.52433333333333e+00 6.59775560279296e-02 6.31290579882416e-04
3.59700000000000e+00 6.44692033065050e-02 6.23186175357388e-04
3.66966666666667e+00 6.29953339495156e-02 6.15060208024885e-04
3.74233333333333e+00 6.15551596079409e-02 6.06921118735240e-04
3.81500000000000e+00 6.01479099597729e-02 5.98776772829500e-04
3.88766666666667e+00 5.87728322973488e-02 5.90634499327335e-04
3.96033333333333e+00 5.74291911139534e-02 5.82501123779926e-04
4.03300000000000e+00 5.61162677213327e-02 5.74382998713356e-04
4.10566666666667e+00 5.48333598647300e-02 5.66286035172867e-04
4.17833333333333e+00 5.35797813377425e-02 5.58215728922632e-04
4.25100000000000e+00 5.23548616249229e-02 5.50177184814165e-04
4.32366666666667e+00 5.11579455426528e-02 5.42175142469425e-04
4.39633333333333e+00 4.99883928802723e-02 5.34213997391112e-04
4.46900000000000e+00 4.88455780661758e-02 5.26297820659797e-04
4.54166666666667e+00 4.77288898327863e-02 5.18430380050566e-04
4.61433333333333e+00 4.66377308821232e-02 5.10615157192192e-04
4.68700000000000e+00 4.55715175738917e-02 5.02855363621179e-04
4.75966666666667e+00 4.45296796129367e-02 4.95153958290440e-04
4.83233333333333e+00 4.35116597375521e-02 4.87513661620985e-04
4.90500000000000e+00 4.25169134281491e-02 4.79936968679249e-04
4.97766666666667e+00 4.15449086156786e-02 4.72426163799657e-04
5.05033333333333e+00 4.05951253911097e-02 4.64983332164227e-04
5.12300000000000e+00 3.96670557333457e-02 4.57610370683273e-04
5.19566666666667e+00 3.87602032372077e-02 4.50309000283899e-04
5.26833333333333e+00 3.78740828426213e-02 4.43080775503117e-04
5.34100000000000e+00 3.70082205805324e-02 4.35927093517161e-04
5.41366666666667e+00 3.61621533191371e-02 4.28849204524036e-04
5.48633333333333e+00 3.53354285114229e-02 4.21848219726064e-04
5.55900000000000e+00 3.45276039579108e-02 4.14925118853938e-04
5.63166666666667e+00 3.37382475699072e-02 4.08080758979516e-04
5.70433333333333e+00 3.29669371341404e-02 4.01315881182245e-04
5.77700000000000e+00 3.22132600912307e-02 3.94631116840127e-04
5.84966666666667e+00 3.14768133148202e-02 3.88026995139764e-04
5.92233333333333e+00 3.07572028921361e-02 3.81503948659808e-04
5.99500000000000e+00 3.00540439171575e-02 3.75062318645011e-04
6.06766666666667e+00 2.93669602845587e-02 3.68702361427807e-04
6.14033333333333e+00 2.86955844851105e-02 3.62424253115143e-04
6.21300000000000e+00 2.80395574125797e-02 3.56228094018981e-04
6.28566666666667e+00 2.73985281714913e-02 3.50113914162990e-04
6.35833333333333e+00 2.67721538863559e-02 3.44081677223008e-04
6.43100000000000e+00 2.61600995213994e-02 3.38131284254195e-04
6.50366666666667e+00 2.55620377012165e-02 3.32262578424603e-04
6.57633333333333e+00 2.49776485328829e-02 3.26475348331467e-04
6.64900000000000e+00 2.44066194376695e-02 3.20769331139168e-04
6.72166666666667e+00 2.38486449837229e-02 3.15144216656423e-04
6.79433333333333e+00 2.33034267201861e-02 3.09599650128402e-04
6.86700000000000e+00 2.27706730201063e-02 3.04135234879243e-04
6.93966666666667e+00 2.22500989243357e-02 2.98750535829589e-04
7.01233333333333e+00 2.17414259868447e-02 2.93445081846916e-04
7.08500000000000e+00 2.12443821280849e-02 2.88218367969996e-04
7.15766666666667e+00 2.07587014893560e-02 2.83069858447515e-04
7.23033333333333e+00 2.02841242885536e-02 2.77998988714883e-04
7.30300000000000e+00 1.98203966832942e-02 2.73005167264896e-04
7.37566666666667e+00 1.93672706350480e-02 2.68087778275173e-04
7.44833333333333e+00 1.89245037746123e-02 2.63246183268342e-04
7.52100000000000e+00 1.84918592743536e-02 2.58479722682532e-04
7.59366666666667e+00 1.80691057214502e-02 2.53787718144744e-04
7.66633333333333e+00 1.76560169924328e-02 2.49169473862070e-04
7.73900000000000e+00 1.72523721339398e-02 2.44624277936987e-04
7.81166666666667e+00 1.68579552444582e-02 2.40151404335057e-04
7.88433333333333e+00 1.64725553573183e-02 2.35750114047240e-04
7.95700000000000e+00 1.60959663293969e-02 2.31419656187859e-04
8.02966666666667e+00 1.57279867307871e-02 2.27159269697837e-04
8.10233333333333e+00 1.53684197356751e-02 2.22968184311923e-04
8.17500000000000e+00 1.50170730184634e-02 2.18845621471315e-04
8.24766666666667e+00 1.46737586508386e-02 2.14790795797657e-04
8.32033333333333e+00 1.43382929999964e-02 2.10802915893807e-04
8.39300000000000e+00 1.40104966316932e-02 2.06881185098290e-04
8.46566666666667e+00 1.36901942142145e-02 2.03024802760212e-04
8.53833333333333e+00 1.33772144234528e-02 1.99232964897923e-04
8.61100000000000e+00 1.30713898524262e-02 1.95504864818379e-04
8.68366666666667e+00 1.27725569216856e-02 1.91839694218960e-04
8.75633333333333e+00 1.24805557907819e-02 1.88236643724756e-04
8.82900000000000e+00 1.21952302738222e-02 1.84694903392543e-04
8.90166666666667e+00 1.19164277558835e-02 1.81213663661886e-04
8.97433333333333e+00 1.16439991104380e-02 1.77792115788786e-04
9.04700000000000e+00 1.13777986205457e-02 1.74429452251081e-04
9.11966666666667e+00 1.11176839008716e-02 1.71124867568239e-04
9.19233333333333e+00 1.08635158206674e-02 1.67877558646523e-04
9.26500000000000e+00 1.06151584302244e-02 1.64686725100237e-04
9.33766666666667e+00 1.03724788881194e-02 1.61551569957009e-04
9.41033333333333e+00 1.01353473893776e-02 1.58471299927466e-04
9.48300000000000e+00 9.90363709683585e-03 1.55445125654737e-04
9.55566666666667e+00 9.67722407326667e-03 1.52472262319802e-04
9.62833333333333e+00 9.45598721437240e-03 1.49551929846855e-04
9.70100000000000e+00 9.23980818473282e-03 1.46683353091711e-04
9.77366666666667e+00 9.02857135447892e-03 1.43865762359901e-04
9.84633333333333e+00 8.82216373679384e-03 1.41098393557363e-04
9.91900000000000e+00 8.62047492813847e-03 1.38380488326886e-04
9.99166666666667e+00 8.42339704917067e-03 1.35711294490053e-04
1.00643333333333e+01 8.23082468644881e-03 1.33090066244919e-04
1.01370000000000e+01 8.04265483609951e-03 1.30516063792676e-04
1.02096666666667e+01 7.85878685144270e-03 1.27988554544052e-04
1.02823333333333e+01 7.67912238314380e-03 1.25506812832423e-04
1.03550000000000e+01 7.50356533210744e-03 1.23070119027369e-04
1.04276666666667e+01 7.33202179784377e-03 1.20677761497720e-04
1.05003333333333e+01 7.16440002329167e-03 1.18329035834630e-04
1.05730000000000e+01 7.00061035076198e-03 1.16023244102654e-04
1.06456666666667e+01 6.84056517376982e-03 1.13759696625767e-04
1.07183333333333e+01 6.68417888565162e-03 1.11537711244675e-04
1.07910000000000e+01 6.53136783836475e-03 1.09356612600820e-04
1.08636666666667e+01 6.38205029755314e-03 1.07215733761872e-04
1.09363333333333e+01 6.23614639469360e-03 1.05114415512945e-04
1.10090000000000e+01 6.09357808857079e-03 1.03052005673221e-04
1.10816666666667e+01 5.95426912335863e-03 1.01027860575786e-04
1.11543333333333e+01 5.81814498405075e-03 9.90413443921933e-05
1.12270000000000e+01 5.68513286044020e-03 9.70918284811877e-05
1.12996666666667e+01 5.55516160801431e-03 9.51786927362973e-05
1.13723333333333e+01 5.42816170644106e-03 9.33013249430346e-05
1.14450000000000e+01 5.30406522589379e-03 9.14591201590033e-05
1.15176666666667e+01 5.18280579057036e-03 8.96514819413841e-05
1.15903333333333e+01 5.06431854002375e-03 8.78778217359028e-05
1.16630000000000e+01 4.94854009768158e-03 8.61375582875058e-05
1.17356666666667e+01 4.83540853681345e-03 8.44301187586980e-05
1.18083333333333e+01 4.72486334450873e-03 8.27549381493213e-05
1.18810000000000e+01 4.61684539225020e-03 8.11114587368753e-05
1.19536666666667e+01 4.51129690416515e-03 7.94991310956201e-05
1.20263333333333e+01 4.40816142346733e-03 7.79174135461381e-05
1.20990000000000e+01 4.30738378495267e-03 7.63657716243157e-05
1.21716666666667e+01 4.20891008538085e-03 7.48436790101885e-05
1.22443333333333e+01 4.11268765221115e-03 7.33506170062031e-05
1.23170000000000e+01 4.01866501789662e-03 7.18860740338232e-05
1.23896666666667e+01 3.92679189225287e-03 7.04495464802566e-05
1.24623333333333e+01 3.83701913332984e-03 6.90405382043054e-05
1.25350000000000e+01 3.74929872338816e-03 6.76585600595296e-05
1.26076666666667e+01 3.66358374312197e-03 6.63031306662306e-05
1.26803333333333e+01 3.57982834451923e-03 6.49737759437667e-05
1.27530000000000e+01 3.49798772841176e-03 6.36700286591950e-05
1.28256666666667e+01 3.41801812042746e-03 6.23914291312006e-05
1.28983333333333e+01 3.33987674570244e-03 6.11375247877467e-05
1.29710000000000e+01 3.26352180790274e-03 5.99078697391104e-05
1.30436666666667e+01 3.18891246678999e-03 5.87020254198340e-05
1.31163333333333e+01 3.11600881465793e-03 5.75195601705878e-05
1.31890000000000e+01 3.04477185673048e-03 5.63600488345176e-05
1.32616666666667e+01 2.97516349023250e-03 5.52230733427392e-05
1.33343333333333e+01 2.90714648243227e-03 5.41082223193006e-05
1.34070000000000e+01 2.84068445232654e-03 5.30150906997817e-05
1.34796666666667e+01 2.77574185111542e-03 5.19432802653417e-05
1.35523333333333e+01 2.71228394174050e-03 5.08923992696906e-05
1.36250000000000e+01 2.65027678177335e-03 4.98620620788974e-05
1.36976666666667e+01 2.58968720520019e-03 4.88518896585487e-05
1.37703333333333e+01 2.53048280335318e-03 4.78615092216689e-05
1.38430000000000e+01 2.47263190892399e-03 4.68905538887156e-05
1.39156666666667e+01 2.41610357897034e-03 4.59386631319873e-05
1.39883333333333e+01 2.36086757714507e-03 4.50054824434646e-05
1.40610000000000e+01 2.30689435876133e-03 4.40906630139949e-05
1.41336666666667e+01 2.25415505493922e-03 4.31938621387268e-05
1.42063333333333e+01 2.20262145604354e-03 4.23147429038664e-05
1.42790000000000e+01 2.15226599773222e-03 4.14529738840905e-05
1.43516666666667e+01 2.10306174616636e-03 4.06082295124400e-05
1.44243333333333e+01 2.05498238257408e-03 3.97801897850196e-05
1.44970000000000e+01 2.00800219021798e-03 3.89685399757153e-05
1.45696666666667e+01 1.96209604059718e-03 3.81729709736638e-05
1.46423333333333e+01 1.91723937906035e-03 3.73931790049708e-05
1.47150000000000e+01 1.87340821263202e-03 3.66288653638335e-05
1.47876666666667e+01 1.83057909714016e-03 3.58797367204342e-05
1.48603333333333e+01 1.78872912380663e-03 3.51455048587778e-05
1.49330000000000e+01 1.74783590787623e-03 3.44258864233577e-05
1.50056666666667e+01 1.70787757660764e-03 3.37206032000689e-05
1.50783333333333e+01 1.66883275677460e-03 3.30293818693031e-05
1.51510000000000e+01 1.63068056404510e-03 3.23519537673338e-05
1.52236666666667e+01 1.59340059177781e-03 3.16880551426064e-05
1.52963333333333e+01 1.55697289937179e-03 3.10374269232740e-05
1.53690000000000e+01 1.52137800234663e-03 3.03998144925081e-05
1.54416666666667e+01 1.48659686189042e-03 2.97749679223190e-05
1.55143333333333e+01 1.45261087400003e-03 2.91626417547431e-05
1.55870000000000e+01 1.41940186021632e-03 2.85625947903246e-05
1.56596666666667e+01 1.38695205787312e-03 2.79745903014317e-05
1.57323333333333e+01 1.35524410997426e-03 2.73983958263425e-05
1.58050000000000e+01 1.32426105654084e-03 2.68337829701766e-05
1.58776666666667e+01 1.29398632551420e-03 2.62805275994946e-05
1.59503333333333e+01 1.26440372331945e-03 2.57384096485697e-05
1.60230000000000e+01 1.23549742678469e-03 2.52072129320801e-05
1.60956666666667e+01 1.20725197465400e-03 2.46867253226232e-05
1.61683333333333e+01 1.17965225879084e-03 2.41767385684955e-05
1.62410000000000e+01 1.15268351663145e-03 2.36770481174862e-05
1.63136666666667e+01 1.12633132326715e-03 2.31874532787981e-05
1.63863333333333e+01 1.10058158324385e-03 2.27077570516849e-05
1.64590000000000e+01 1.07542052351470e-03 2.22377659597269e-05
1.65316666666667e+01 1.05083468605329e-03 2.17772901985154e-05
1.66043333333333e+01 1.02681092020893e-03 2.13261434745311e-05
1.66770000000000e+01 1.00333637612552e-03 2.08841428493105e-05
1.67496666666667e+01 9.80398497850191e-04 2.04511088741330e-05
1.68223333333333e+01 9.57985016206402e-04 2.00268654385591e-05
1.68950000000000e+01 9.36083942648446e-04 1.96112396239214e-05
1.69676666666667e+01 9.14683562832243e-04 1.92040618261488e-05
1.70403333333333e+01 8.93772429971094e-04 1.88051656134076e-05
1.71130000000000e+01 8.73339359097086e-04 1.84143875883871e-05
1.71856666666667e+01 8.53373421063053e-04 1.80315675002918e-05
1.72583333333333e+01 8.33863936348178e-04 1.76565481110623e-05
1.73310000000000e+01 8.14800469699493e-04 1.72891750659468e-05
1.74036666666667e+01 7.96172824536073e-04 1.69292969956057e-05
1.74763333333333e+01 7.77971037173940e-04 1.65767653904162e-05
1.75490000000000e+01 7.60185371822579e-04 1.62314344788510e-05
1.76216666666667e+01 7.42806315364396e-04 1.58931613205547e-05
1.76943333333333e+01 7.25824571970441e-04 1.55618056882605e-05
1.77670000000000e+01 7.09231058428526e-04 1.52372299535248e-05
1.78396666666667e+01 6.93016899272775e-04 1.49192991715617e-05
1.79123333333333e+01 6.77173421763633e-04 1.46078809703263e-05
1.79850000000000e+01 6.61692151525701e-04 1.43028454431755e-05
1.80576666666667e+01 6.46564808003890e-04 1.40040652261781e-05
1.81303333333333e+01 6.31783299783006e-04 1.37114153939453e-05
1.82030000000000e+01 6.17339720514839e-04 1.34247733588114e-05
1.82756666666667e+01 6.03226344679030e-04 1.31440189412753e-05
1.83483333333333e+01 5.89435623219173e-04 1.28690342721804e-05
1.84210000000000e+01 5.75960179740074e-04 1.25997036980316e-05
1.84936666666667e+01 5.62792806552870e-04 1.23359138451678e-05
1.85663333333333e+01 5.49926460606206e-04 1.20775535279151e-05
1.86390000000000e+01 5.37354259935788e-04 1.18245136596783e-05
1.87116666666667e+01 5.25069479974703e-04 1.15766873113897e-05
1.87843333333333e+01 5.13065549759660e-04 1.13339696252826e-05
1.88570000000000e+01 5.01336048616154e-04 1.10962577314158e-05
1.89296666666667e+01 4.89874702716209e-04 1.08634508008976e-05
1.90023333333333e+01 4.78675381541031e-04 1.06354499649453e-05
1.90750000000000e+01 4.67732094786207e-04 1.04121582365179e-05
1.91476666666667e+01 4.57038989150270e-04 1.01934805587749e-05
1.92203333333333e+01 4.46590345036394e-04 9.97932372910340e-06
1.92930000000000e+01 4.36380573663068e-04 9.76959632555695e-06
1.93656666666667e+01 4.26404214068005e-04 9.56420875096331e-06
1.94383333333333e+01 4.16655930032682e-04 9.36307316162425e-06
1.95110000000000e+01 4.07130507384894e-04 9.16610339827126e-06
1.95836666666667e+01 3.97822851203562e-04 8.97321502620412e-06
1.96563333333333e+01 3.88727982951027e-04 8.78432526838179e-06
1.97290000000000e+01 3.79841037954778e-04 8.59935294062505e-06
1.98016666666667e+01 3.71157262799687e-04 8.41821848813358e-06
1.98743333333333e+01 3.62672012653994e-04 8.24084392270367e-06
1.99470000000000e+01 3.54380748918339e-04 8.06715276192255e-06
2.00196666666667e+01 3.46279036792856e-04 7.89707006238120e-06
2.00923333333333e+01 3.38362542783731e-04 7.73052236076994e-06
2.01650000000000e+01 3.30627032508465e-04 7.56743761682432e-06
2.02376666666667e+01 3.23068368426091e-04 7.40774524352342e-06
2.03103333333333e+01 3.15682507512100e-04 7.25137605182904e-06
2.03830000000000e+01 3.08465499209559e-04 7.09826219715644e-06
2.04556666666667e+01 3.01413483311534e-04 6.94833720682367e-06
2.05283333333333e+01 2.94522687792969e-04 6.80153592821286e-06
2.06010000000000e+01 2.87789426898016e-04 6.65779447855275e-06
2.06736666666667e+01 2.81210099164434e-04 6.51705026986114e-06
2.07463333333333e+01 2.74781185401825e-04 6.37924196032053e-06
2.08190000000000e+01 2.68499246906124e-04 6.24430940717135e-06
2.08916666666667e+01 2.62360923616469e-04 6.11219368936835e-06
2.09643333333333e+01 2.56362932229885e-04 5.98283706197563e-06
2.10370000000000e+01 2.50502064534506e-04 5.85618291198116e-06
2.11096666666667e+01 2.44775185690034e-04 5.73217577886930e-06
2.11823333333333e+01 2.39179232469636e-04 5.61076131185077e-06
2.12550000000000e+01 2.33711211704031e-04 5.49188622842058e-06
2.13276666666667e+01 2.28368198677244e-04 5.37549833303131e-06
2.14003333333333e+01 2.23147335487122e-04 5.26154647698459e-06
2.14730000000000e+01 2.18045829592924e-04 5.14998051956532e-06
2.15456666666667e+01 2.13060952318636e-04 5.04075134498413e-06
2.16183333333333e+01 2.08190037324097e-04 4.93381082476744e-06
2.16910000000000e+01 2.03430479249217e-04 4.82911178131042e-06
2.17636666666667e+01 1.98779732317641e-04 4.72660800324214e-06
2.18363333333333e+01 1.94235308911007e-04 4.62625421016153e-06
2.19090000000000e+01 1.89794778303382e-04 4.52800601846097e-06
2.19816666666667e+01 1.85455765358545e-04 4.43181995525454e-06
2.20543333333333e+01 1.81215949200407e-04 4.33765342531559e-06
2.21270000000000e+01 1.77073062031674e-04 4.24546467903177e-06
2.21996666666667e+01 1.73024887918473e-04 4.15521282502482e-06
2.22723333333333e+01 1.69069261550437e-04 4.06685779915421e-06
2.23450000000000e+01 1.65204067137997e-04 3.98036033447261e-06
2.24176666666667e+01 1.61427237278504e-04 3.89568197265442e-06
2.24903333333333e+01 1.57736751799912e-04 3.81278503493833e-06
2.25630000000000e+01 1.54130636731486e-04 3.73163259396014e-06
2.26356666666667e+01 1.50606963245941e-04 3.65218848409685e-06
2.27083333333333e+01 1.47163846581094e-04 3.57441727422823e-06
2.27810000000000e+01 1.43799445079094e-04 3.49828424133176e-06
2.28536666666667e+01 1.40511959199496e-04 3.42375537983951e-06
2.29263333333333e+01 1.37299630513603e-04 3.35079737610675e-06
