Energy (eV)          EEDF (eV^-(3/2))     First Anisotropy
5.07407407407407e-02 5.02029354449770e-02 3.61373579028238e-05
1.52222222222222e-01 4.95645681340302e-02 5.94936619727877e-05
2.53703703703704e-01 4.89343181318059e-02 7.80645781045239e-05
3.55185185185185e-01 4.83120822236212e-02 9.18880201167856e-05
4.56666666666667e-01 4.76977585025971e-02 1.03183465591300e-04
5.58148148148148e-01 4.70912463608640e-02 1.12797528256138e-04
6.59629629629630e-01 4.64924464673345e-02 1.21172026904888e-04
7.61111111111111e-01 4.59012607560349e-02 1.28575949799634e-04
8.62592592592593e-01 4.53175924062358e-02 1.35189128820826e-04
9.64074074074074e-01 4.47413458298488e-02 1.41139670056591e-04
1.06555555555556e+00 4.41724266555436e-02 1.46523141882896e-04
1.16703703703704e+00 4.36107417032381e-02 1.51413389154308e-04
1.26851851851852e+00 4.30561989898521e-02 1.55869075249525e-04
1.37000000000000e+00 4.25087076963895e-02 1.59937861569623e-04
1.47148148148148e+00 4.19681781586926e-02 1.63659194470256e-04
1.57296296296296e+00 4.14345218527893e-02 1.67066233705986e-04
1.67444444444444e+00 4.09076513804054e-02 1.70187226486230e-04
1.77592592592593e+00 4.03874804516242e-02 1.73046510766470e-04
1.87740740740741e+00 3.98739238799901e-02 1.75665265749155e-04
1.97888888888889e+00 3.93668975590096e-02 1.78062083363871e-04
2.08037037037037e+00 3.88663184516757e-02 1.80253409501314e-04
2.18185185185185e+00 3.83721045768492e-02 1.82253891556342e-04
2.28333333333333e+00 3.78841749958646e-02 1.84076654904297e-04
2.38481481481481e+00 3.74024497992633e-02 1.85733525828379e-04
2.48629629629630e+00 3.69268500917688e-02 1.87235212327850e-04
2.58777777777778e+00 3.64572979852951e-02 1.88591453649278e-04
2.68925925925926e+00 3.59937165801068e-02 1.89811144405178e-04
2.79074074074074e+00 3.55360299543089e-02 1.90902437470898e-04
2.89222222222222e+00 3.50841631513999e-02 1.91872831393744e-04
2.99370370370370e+00 3.46380421680232e-02 1.92729244393693e-04
3.09518518518519e+00 3.41975939418311e-02 1.93478077711007e-04
3.19666666666667e+00 3.37627463381559e-02 1.94125269438295e-04
3.29814814814815e+00 3.33334281423728e-02 1.94676341728050e-04
3.39962962962963e+00 3.29095690439677e-02 1.95136441825508e-04
3.50111111111111e+00 3.24910996264761e-02 1.95510377124710e-04
3.60259259259259e+00 3.20779513561135e-02 1.95802646471337e-04
3.70407407407407e+00 3.16700565705605e-02 1.96017467576575e-04
3.80555555555556e+00 3.12673484678751e-02 1.96158801368916e-04
3.90703703703704e+00 3.08697610945358e-02 1.96230373110558e-04
4.00851851851852e+00 3.04772293377466e-02 1.96235691787157e-04
4.11000000000000e+00 3.00896889116060e-02 1.96178067458211e-04
4.21148148148148e+00 2.97070763476538e-02 1.96060626184885e-04
4.31296296296296e+00 2.93293289844793e-02 1.95886323932555e-04
4.41444444444444e+00 2.89563849574611e-02 1.95657959092761e-04
4.51592592592593e+00 2.85881831878162e-02 1.95378183381838e-04
4.61740740740741e+00 2.82246633750892e-02 1.95049512232031e-04
4.71888888888889e+00 2.78657659847393e-02 1.94674334255507e-04
4.82037037037037e+00 2.75114322392522e-02 1.94254919325070e-04
4.92185185185185e+00 2.71616041085107e-02 1.93793426372097e-04
5.02333333333333e+00 2.68162243002961e-02 1.93291910416366e-04
5.12481481481481e+00 2.64752362509037e-02 1.92752329101999e-04
5.22629629629630e+00 2.61385841152351e-02 1.92176548342273e-04
5.32777777777778e+00 2.58062127596134e-02 1.91566347953631e-04
5.42925925925926e+00 2.54780677507600e-02 1.90923426866992e-04
5.53074074074074e+00 2.51540953475560e-02 1.90249407481857e-04
5.63222222222222e+00 2.48342424922383e-02 1.89545840054723e-04
5.73370370370370e+00 2.45184568017154e-02 1.88814206676893e-04
5.83518518518518e+00 2.42066865589856e-02 1.88055925044583e-04
5.93666666666667e+00 2.38988807041506e-02 1.87272351654672e-04
6.03814814814815e+00 2.35949888276270e-02 1.86464785157917e-04
6.13962962962963e+00 2.32949611602922e-02 1.85634469497559e-04
6.24111111111111e+00 2.29987485658745e-02 1.84782596443834e-04
6.34259259259259e+00 2.27063025329055e-02 1.83910308273492e-04
6.44407407407407e+00 2.24175751667774e-02 1.83018700200342e-04
6.54555555555556e+00 2.21325191818979e-02 1.82108822719408e-04
6.64703703703704e+00 2.18510878935248e-02 1.81181683539198e-04
6.74851851851852e+00 2.15732352114026e-02 1.80238249723964e-04
6.85000000000000e+00 2.12989156309125e-02 1.79279449717777e-04
6.95148148148148e+00 2.10280842260601e-02 1.78306174907078e-04
7.05296296296296e+00 2.07606966421185e-02 1.77319281362318e-04
7.15444444444444e+00 2.04967090883645e-02 1.76319591472729e-04
7.25592592592593e+00 2.02360783305483e-02 1.75307895252429e-04
7.35740740740741e+00 1.99787616849023e-02 1.74284951865940e-04
7.45888888888889e+00 1.97247170100457e-02 1.73251491079014e-04
7.56037037037037e+00 1.94739027004562e-02 1.72208214327345e-04
7.66185185185185e+00 1.92262776796562e-02 1.71155795968869e-04
7.76333333333333e+00 1.89818013934862e-02 1.70094884410806e-04
7.86481481481481e+00 1.87404338034631e-02 1.69026103230744e-04
7.96629629629630e+00 1.85021353799250e-02 1.67950052034028e-04
8.06777777777778e+00 1.82668670964627e-02 1.66867307523368e-04
8.16925925925926e+00 1.80345904226104e-02 1.65778424522543e-04
8.27074074074074e+00 1.78052673178455e-02 1.64683936684624e-04
8.37222222222222e+00 1.75788602253581e-02 1.63584357376011e-04
8.47370370370370e+00 1.73553320659018e-02 1.62480180466218e-04
8.57518518518519e+00 1.71346462317199e-02 1.61371881126104e-04
8.67666666666667e+00 1.69167665803011e-02 1.60259916407784e-04
8.77814814814815e+00 1.67016574292185e-02 1.59144726021952e-04
8.87962962962963e+00 1.64892835495174e-02 1.58026733085756e-04
8.98111111111111e+00 1.62796101602050e-02 1.56906344604332e-04
9.08259259259259e+00 1.60726029225542e-02 1.55783952115383e-04
9.18407407407407e+00 1.58682279344807e-02 1.54659932259674e-04
9.28555555555556e+00 1.56664517249902e-02 1.53534647366676e-04
9.38703703703704e+00 1.54672412484859e-02 1.52408445855912e-04
9.48851851851852e+00 1.52705638799976e-02 1.51281662818335e-04
9.59000000000000e+00 1.50763874091888e-02 1.50154620578190e-04
9.69148148148148e+00 1.48846800353015e-02 1.49027629026718e-04
9.79296296296296e+00 1.46954103619474e-02 1.47900986104527e-04
9.89444444444444e+00 1.45085473919669e-02 1.46774978259722e-04
9.99592592592593e+00 1.43240605221686e-02 1.45649880850858e-04
1.00974074074074e+01 1.41419195383322e-02 1.44525958010522e-04
1.01988888888889e+01 1.39620946127451e-02 1.43403464213843e-04
1.03003703703704e+01 1.37845562932442e-02 1.42282644045561e-04
1.04018518518519e+01 1.36092755039631e-02 1.41163731676946e-04
1.05033333333333e+01 1.34362235387538e-02 1.40046952318583e-04
1.06048148148148e+01 1.32653720564873e-02 1.38932522173422e-04
1.07062962962963e+01 1.30966930764147e-02 1.37820648432818e-04
1.08077777777778e+01 1.29301589751190e-02 1.36711530515330e-04
1.09092592592593e+01 1.27657424773322e-02 1.35605359718104e-04
1.10107407407407e+01 1.26034166561779e-02 1.34502318843924e-04
1.11122222222222e+01 1.24431549271707e-02 1.33402583439650e-04
1.12137037037037e+01 1.22849310438695e-02 1.32306321436401e-04
1.13151851851852e+01 1.21287190949508e-02 1.31213694259216e-04
1.14166666666667e+01 1.19744934957962e-02 1.30124856483325e-04
1.15181481481481e+01 1.18222289885161e-02 1.29039955469281e-04
1.16196296296296e+01 1.16719006363908e-02 1.27959132475818e-04
1.17211111111111e+01 1.15234838197903e-02 1.26882522570152e-04
1.18225925925926e+01 1.13769542321416e-02 1.25810254575458e-04
1.19240740740741e+01 1.12322878771573e-02 1.24742452047918e-04
1.20255555555556e+01 1.10894610612381e-02 1.23679232944096e-04
1.21270370370370e+01 1.09484503932985e-02 1.22620709269532e-04
1.22285185185185e+01 1.08092327796856e-02 1.21566988062796e-04
1.23300000000000e+01 1.06717854204014e-02 1.20518171059132e-04
1.24314814814815e+01 1.05360858064530e-02 1.19474355572536e-04
1.25329629629630e+01 1.04021117128722e-02 1.18435634175688e-04
1.26344444444444e+01 1.02698411984043e-02 1.17402094363795e-04
1.27359259259259e+01 1.01392526007920e-02 1.16373819444443e-04
1.28374074074074e+01 1.00103245332306e-02 1.15350888215659e-04
1.29388888888889e+01 9.88303588184307e-03 1.14333375763928e-04
1.30403703703704e+01 9.75736579925581e-03 1.13321353158742e-04
1.31418518518519e+01 9.63329370418140e-03 1.12314887132303e-04
1.32433333333333e+01 9.51079927703761e-03 1.11314040886675e-04
1.33448148148148e+01 9.38986245662009e-03 1.10318873986865e-04
1.34462962962963e+01 9.27046343681845e-03 1.09329442283116e-04
1.35477777777778e+01 9.15258266423767e-03 1.08345798621643e-04
1.36492592592593e+01 9.03620083237008e-03 1.07367992556402e-04
1.37507407407407e+01 8.92129888108650e-03 1.06396070048248e-04
1.38522222222222e+01 8.80785799261947e-03 1.05430074185042e-04
1.39537037037037e+01 8.69585958848483e-03 1.04470044894200e-04
1.40551851851852e+01 8.58528532721985e-03 1.03516019589231e-04
1.41566666666667e+01 8.47611709900783e-03 1.02568032896864e-04
1.42581481481481e+01 8.36833702510829e-03 1.01626116372867e-04
1.43596296296296e+01 8.26192745412104e-03 1.00690299158036e-04
1.44611111111111e+01 8.15687095909664e-03 9.97606078732848e-05
1.45625925925926e+01 8.05315033468254e-03 9.88370665393534e-05
1.46640740740741e+01 7.95074859500000e-03 9.79196971551326e-05
1.47655555555556e+01 7.84964896875532e-03 9.70085194428221e-05
1.48670370370370e+01 7.74983489862149e-03 9.61035505827021e-05
1.49685185185185e+01 7.65129003780921e-03 9.52048058013263e-05
1.50700000000000e+01 7.55399824739155e-03 9.43122981186154e-05
1.51714814814815e+01 7.45794359428952e-03 9.34260388758682e-05
1.52729629629630e+01 7.36311034675432e-03 9.25460374957335e-05
1.53744444444444e+01 7.26948297371872e-03 9.16723012330561e-05
1.54759259259259e+01 7.17704614160346e-03 9.08048357121853e-05
1.55774074074074e+01 7.08578471180760e-03 8.99436446891152e-05
1.56788888888889e+01 6.99568373879987e-03 8.90887305339158e-05
1.57803703703704e+01 6.90672846594016e-03 8.82400940052926e-05
1.58818518518519e+01 6.81890432481101e-03 8.73977340166101e-05
1.59833333333333e+01 6.73219693224259e-03 8.65616481275768e-05
1.60848148148148e+01 6.64659208795740e-03 8.57318324495855e-05
1.61862962962963e+01 6.56207577224541e-03 8.49082815701775e-05
1.62877777777778e+01 6.47863414417697e-03 8.40909889870853e-05
1.63892592592593e+01 6.39625353779204e-03 8.32799468988383e-05
1.64907407407407e+01 6.31492046142170e-03 8.24751459879334e-05
1.65922222222222e+01 6.23462159495263e-03 8.16765758635670e-05
1.66937037037037e+01 6.15534378764728e-03 8.08842248547216e-05
1.67951851851852e+01 6.07707405645256e-03 8.00980804079748e-05
1.68966666666667e+01 5.99979958247004e-03 7.93181288911486e-05
1.69981481481481e+01 5.92350771027419e-03 7.85443553901728e-05
1.70996296296296e+01 5.84818594536200e-03 7.77767441151661e-05
1.72011111111111e+01 5.77382195210732e-03 7.70152783147157e-05
1.73025925925926e+01 5.70040355174081e-03 7.62599402062489e-05
1.74040740740741e+01 5.62791872076937e-03 7.55107113347066e-05
1.75055555555556e+01 5.55635558775178e-03 7.47675723908209e-05
1.76070370370370e+01 5.48570243262212e-03 7.40305030231169e-05
1.77085185185185e+01 5.41594768434334e-03 7.32994822046297e-05
1.78100000000000e+01 5.34707991901307e-03 7.25744880536717e-05
1.79114814814815e+01 5.27908785836951e-03 7.18554981632056e-05
1.80129629629630e+01 5.21196036680125e-03 7.11424894306911e-05
1.81144444444444e+01 5.14568645067802e-03 7.04354378823284e-05
1.82159259259259e+01 5.08025525616118e-03 6.97343190098828e-05
1.83174074074074e+01 5.01565606742691e-03 6.90391076029328e-05
1.84188888888889e+01 4.95187830525498e-03 6.83497780514224e-05
1.85203703703704e+01 4.88891152425403e-03 6.76663041865615e-05
1.86218518518519e+01 4.82674541220329e-03 6.69886591164403e-05
1.87233333333333e+01 4.76536978800918e-03 6.63168155357626e-05
1.88248148148148e+01 4.70477460003809e-03 6.56507456531741e-05
1.89262962962963e+01 4.64494992447056e-03 6.49904211311167e-05
1.90277777777778e+01 4.58588596398433e-03 6.43358133595726e-05
1.91292592592593e+01 4.52757304521501e-03 6.36868933089906e-05
1.92307407407407e+01 4.47000161811585e-03 6.30436313785693e-05
1.93322222222222e+01 4.41316225407550e-03 6.24059976766081e-05
1.94337037037037e+01 4.35704564437475e-03 6.17739618757081e-05
1.95351851851852e+01 4.30164259894328e-03 6.11474934647316e-05
1.96366666666667e+01 4.24694404400113e-03 6.05265616112818e-05
1.97381481481481e+01 4.19294102143453e-03 5.99111350199170e-05
1.98396296296296e+01 4.13962468703845e-03 5.93011821903274e-05
1.99411111111111e+01 4.08698630906848e-03 5.86966713531044e-05
2.00425925925926e+01 4.03501726681087e-03 5.80975704160653e-05
2.01440740740741e+01 3.98370904942378e-03 5.75038471924938e-05
2.02455555555556e+01 3.93305325377636e-03 5.69154692742297e-05
2.03470370370370e+01 3.88304158384709e-03 5.63324039007965e-05
2.04485185185185e+01 3.83366584910420e-03 5.57546181935529e-05
2.05500000000000e+01 3.78491796316484e-03 5.51820790308481e-05
2.06514814814815e+01 3.73678994270193e-03 5.46147532583588e-05
2.07529629629630e+01 3.68927390543542e-03 5.40526075704683e-05
2.08544444444444e+01 3.64236206954958e-03 5.34956083880848e-05
2.09559259259259e+01 3.59604675217990e-03 5.29437220744260e-05
2.10574074074074e+01 3.55032036815531e-03 5.23969148183532e-05
2.11588888888889e+01 3.50517542896768e-03 5.18551528282164e-05
2.12603703703704e+01 3.46060454090356e-03 5.13184022210797e-05
2.13618518518519e+01 3.41660040448136e-03 5.07866289085821e-05
2.14633333333333e+01 3.37315581303758e-03 5.02597987959772e-05
2.15648148148148e+01 3.33026365154673e-03 4.97378777288607e-05
2.16662962962963e+01 3.28791689545619e-03 4.92208314481494e-05
2.17677777777778e+01 3.24610860972653e-03 4.87086257660965e-05
2.18692592592593e+01 3.20483194711768e-03 4.82012264640529e-05
2.19707407407407e+01 3.16408014765118e-03 4.76985991872455e-05
2.20722222222222e+01 3.12384653730642e-03 4.72007096255533e-05
2.21737037037037e+01 3.08412452692808e-03 4.67075234130226e-05
2.22751851851852e+01 3.04490761132161e-03 4.62190062903160e-05
2.23766666666667e+01 3.00618936765833e-03 4.57351240091997e-05
2.24781481481481e+01 2.96796345495817e-03 4.52558422342771e-05
2.25796296296296e+01 2.93022361287115e-03 4.47811267098923e-05
2.26811111111111e+01 2.89296366065229e-03 4.43109432134827e-05
2.27825925925926e+01 2.85617749614935e-03 4.38452575159187e-05
2.28840740740741e+01 2.81985909496118e-03 4.33840355291090e-05
2.29855555555556e+01 2.78400250897335e-03 4.29272432179297e-05
2.30870370370370e+01 2.74860186586628e-03 4.24748465095950e-05
2.31885185185185e+01 2.71365136799114e-03 4.20268114454585e-05
2.32900000000000e+01 2.67914529142058e-03 4.15831040944961e-05
2.33914814814815e+01 2.64507798515584e-03 4.11436906896498e-05
2.34929629629630e+01 2.61144386976317e-03 4.07085375455495e-05
2.35944444444444e+01 2.57823743690238e-03 4.02776109739197e-05
2.36959259259259e+01 2.54545324827570e-03 3.98508774237965e-05
2.37974074074074e+01 2.51308593473745e-03 3.94283034007029e-05
2.38988888888889e+01 2.48113019554729e-03 3.90098555925844e-05
2.40003703703704e+01 2.44958079710015e-03 3.85955007929917e-05
2.41018518518519e+01 2.41843257247493e-03 3.81852058220723e-05
2.42033333333333e+01 2.38768042045166e-03 3.77789376561786e-05
2.43048148148148e+01 2.35731930467609e-03 3.73766633895332e-05
2.44062962962963e+01 2.32734425283500e-03 3.69783502013868e-05
2.45077777777778e+01 2.29775035596170e-03 3.65839654706450e-05
2.46092592592593e+01 2.26853276726887e-03 3.61934767050025e-05
2.47107407407407e+01 2.23968670172148e-03 3.58068514681227e-05
2.48122222222222e+01 2.21120743512959e-03 3.54240574976250e-05
2.49137037037037e+01 2.18309030337495e-03 3.50450626355053e-05
2.50151851851852e+01 2.15533070175714e-03 3.46698349341313e-05
2.51166666666667e+01 2.12792408390584e-03 3.42983425900403e-05
2.52181481481481e+01 2.10086596137306e-03 3.39305538759359e-05
2.53196296296296e+01 2.07415190278466e-03 3.35664372498248e-05
2.54211111111111e+01 2.04777753311469e-03 3.32059613215922e-05
2.55225925925926e+01 2.02173853296891e-03 3.28490948242382e-05
2.56240740740741e+01 1.99603063797700e-03 3.24958067103960e-05
2.57255555555556e+01 1.97064963779238e-03 3.21460660912958e-05
2.58270370370370e+01 1.94559137570730e-03 3.17998421740514e-05
2.59285185185185e+01 1.92085174786955e-03 3.14571043611214e-05
2.60300000000000e+01 1.89642670261050e-03 3.11178221904024e-05
2.61314814814815e+01 1.87231223987307e-03 3.07819654245310e-05
2.62329629629630e+01 1.84850441027918e-03 3.04495039938597e-05
2.63344444444444e+01 1.82499931476305e-03 3.01204079379135e-05
2.64359259259259e+01 1.80179310383829e-03 2.97946474974100e-05
2.65374074074074e+01 1.77888197696764e-03 2.94721930582869e-05
2.66388888888889e+01 1.75626218202471e-03 2.91530152343252e-05
2.67403703703704e+01 1.73393001442436e-03 2.88370848138995e-05
2.68418518518518e+01 1.71188181677350e-03 2.85243727052917e-05
2.69433333333333e+01 1.69011397818547e-03 2.82148500218795e-05
2.70448148148148e+01 1.66862293368868e-03 2.79084880547882e-05
2.71462962962963e+01 1.64740516364279e-03 2.76052582492160e-05
2.72477777777778e+01 1.62645719323861e-03 2.73051322797698e-05
2.73492592592593e+01 1.60577559169788e-03 2.70080820013422e-05
2.74507407407407e+01 1.58535697194469e-03 2.67140793986990e-05
2.75522222222222e+01 1.56519798997222e-03 2.64230966641629e-05
2.76537037037037e+01 1.54529534429525e-03 2.61351061494125e-05
2.77551851851852e+01 1.52564577547961e-03 2.58500804352467e-05
2.78566666666667e+01 1.50624606539561e-03 2.55679922856847e-05
2.79581481481481e+01 1.48709303690582e-03 2.52888146008747e-05
2.80596296296296e+01 1.46818355327240e-03 2.50125204890508e-05
2.81611111111111e+01 1.44951451764343e-03 2.47390832427358e-05
2.82625925925926e+01 1.43108287254577e-03 2.44684763180690e-05
2.83640740740741e+01 1.41288559944801e-03 2.42006733984274e-05
2.84655555555556e+01 1.39491971807319e-03 2.39356483521058e-05
2.85670370370370e+01 1.37718228610542e-03 2.36733751888813e-05
2.86685185185185e+01 1.35967039864251e-03 2.34138281256890e-05
2.87700000000000e+01 1.34238118772027e-03 2.31569815451036e-05
2.88714814814815e+01 1.32531182190144e-03 2.29028100542817e-05
2.89729629629630e+01 1.30845950563435e-03 2.26512884454116e-05
2.90744444444444e+01 1.29182147897436e-03 2.24023916551531e-05
2.91759259259259e+01 1.27539501707154e-03 2.21560948254770e-05
2.92774074074074e+01 1.25917742972444e-03 2.19123732648640e-05
2.93788888888889e+01 1.24316606099361e-03 2.16712025029045e-05
2.94803703703704e+01 1.22735828860281e-03 2.14325582533563e-05
2.95818518518519e+01 1.21175152367491e-03 2.11964163762453e-05
2.96833333333333e+01 1.19634321025220e-03 2.09627529342536e-05
2.97848148148148e+01 1.18113082487787e-03 2.07315441732880e-05
2.98862962962963e+01 1.16611187618273e-03 2.05027665055214e-05
2.99877777777778e+01 1.15128390452625e-03 2.02763965592426e-05
3.00892592592593e+01 1.13664448144515e-03 2.00524111447685e-05
3.01907407407407e+01 1.12219120940565e-03 1.98307872194947e-05
3.02922222222222e+01 1.10792172136036e-03 1.96115019393900e-05
3.03937037037037e+01 1.09383368036064e-03 1.93945326255621e-05
3.04951851851852e+01 1.07992477921918e-03 1.91798568104690e-05
3.05966666666667e+01 1.06619273999499e-03 1.89674522060607e-05
3.06981481481481e+01 1.05263531375877e-03 1.87572966711258e-05
3.07996296296296e+01 1.03925028017795e-03 1.85493682590344e-05
3.09011111111111e+01 1.02603544715315e-03 1.83436452008434e-05
3.10025925925926e+01 1.01298865045915e-03 1.81401058905115e-05
3.11040740740741e+01 1.00010775343156e-03 1.79387289270989e-05
3.12055555555556e+01 9.87390646492379e-04 1.77394930853804e-05
3.13070370370370e+01 9.74835246930203e-04 1.75423772857169e-05
3.14085185185185e+01 9.62439498516795e-04 1.73473606376862e-05
3.15100000000000e+01 9.50201371170401e-04 1.71544224112645e-05
3.16114814814815e+01 9.38118860661179e-04 1.69635420759606e-05
3.17129629629630e+01 9.26189988168106e-04 1.67746992733458e-05
3.18144444444444e+01 9.14412800070832e-04 1.65878737889096e-05
3.19159259259259e+01 9.02785367590699e-04 1.64030455925160e-05
3.20174074074074e+01 8.91305786474904e-04 1.62201948114650e-05
