Energy (eV)          EEDF (eV^-(3/2))     First Anisotropy
9.08333333333333e-02 3.83508553882207e-02 3.37032474272623e-05
2.72500000000000e-01 3.76220680576606e-02 5.53107874573189e-05
4.54166666666667e-01 3.69071299898765e-02 7.21138283109865e-05
6.35833333333333e-01 3.62057780020091e-02 8.43429571712992e-05
8.17500000000000e-01 3.55177539157368e-02 9.41077597601530e-05
9.99166666666667e-01 3.48428044598370e-02 1.02221041812695e-04
1.18083333333333e+00 3.41806811742428e-02 1.09110987886740e-04
1.36250000000000e+00 3.35311403195520e-02 1.15040629968274e-04
1.54416666666667e+00 3.28939427949481e-02 1.20187326391221e-04
1.72583333333333e+00 3.22688540336620e-02 1.24678451211679e-04
1.90750000000000e+00 3.16556439310814e-02 1.28609757089863e-04
2.08916666666667e+00 3.10540867585223e-02 1.32055766421460e-04
2.27083333333333e+00 3.04639610704661e-02 1.35076078585265e-04
2.45250000000000e+00 2.98850496326888e-02 1.37719413815255e-04
2.63416666666667e+00 2.93171393414430e-02 1.40026323061767e-04
2.81583333333333e+00 2.87600211379602e-02 1.42031068166611e-04
2.99750000000000e+00 2.82134899385500e-02 1.43762966708357e-04
3.17916666666667e+00 2.76773445585581e-02 1.45247379898175e-04
3.36083333333333e+00 2.71513876328822e-02 1.46506452570395e-04
3.54250000000000e+00 2.66354255487597e-02 1.47559678812851e-04
3.72416666666667e+00 2.61292683741139e-02 1.48424342638388e-04
3.90583333333333e+00 2.56327297833133e-02 1.49115864846488e-04
4.08750000000000e+00 2.51456269929250e-02 1.49648080321107e-04
4.26916666666667e+00 2.46677806941475e-02 1.50033463253933e-04
4.45083333333333e+00 2.41990149832719e-02 1.50283310609455e-04
4.63250000000000e+00 2.37391573004811e-02 1.50407893632588e-04
4.81416666666667e+00 2.32880383661116e-02 1.50416584862321e-04
4.99583333333333e+00 2.28454921153993e-02 1.50317964176172e-04
5.17750000000000e+00 2.24113556403072e-02 1.50119908542368e-04
5.35916666666667e+00 2.19854691293855e-02 1.49829669200213e-04
5.54083333333333e+00 2.15676758064615e-02 1.49453937266562e-04
5.72250000000000e+00 2.11578218754264e-02 1.48998900342639e-04
5.90416666666667e+00 2.07557564634830e-02 1.48470292242999e-04
6.08583333333333e+00 2.03613315634889e-02 1.47873435823569e-04
6.26750000000000e+00 1.99744019816073e-02 1.47213280510967e-04
6.44916666666667e+00 1.95948252837450e-02 1.46494435891429e-04
6.63083333333333e+00 1.92224617412965e-02 1.45721200909399e-04
6.81250000000000e+00 1.88571742815462e-02 1.44897589779941e-04
6.99416666666667e+00 1.84988284371162e-02 1.44027355571313e-04
7.17583333333333e+00 1.81472922948825e-02 1.43114010835193e-04
7.35750000000000e+00 1.78024364490129e-02 1.42160846108960e-04
7.53916666666667e+00 1.74641339532519e-02 1.41170947015139e-04
7.72083333333333e+00 1.71322602728051e-02 1.40147209278324e-04
7.90250000000000e+00 1.68066932398926e-02 1.39092352313008e-04
8.08416666666667e+00 1.64873130087093e-02 1.38008931963350e-04
8.26583333333333e+00 1.61740020100921e-02 1.36899351712064e-04
8.44750000000000e+00 1.58666449094673e-02 1.35765872899204e-04
8.62916666666667e+00 1.55651285643371e-02 1.34610624435316e-04
8.81083333333333e+00 1.52693419815554e-02 1.33435611348521e-04
8.99250000000000e+00 1.49791762775538e-02 1.32242722626937e-04
9.17416666666667e+00 1.46945246382097e-02 1.31033738771981e-04
9.35583333333333e+00 1.44152822785741e-02 1.29810338436023e-04
9.53750000000000e+00 1.41413464052598e-02 1.28574104546648e-04
9.71916666666667e+00 1.38726161785582e-02 1.27326530281145e-04
9.90083333333333e+00 1.36089926744710e-02 1.26069024303122e-04
1.00825000000000e+01 1.33503788491505e-02 1.24802915530042e-04
1.02641666666667e+01 1.30966795038675e-02 1.23529458279760e-04
1.04458333333333e+01 1.28478012462788e-02 1.22249836105212e-04
1.06275000000000e+01 1.26036524605351e-02 1.20965165262038e-04
1.08091666666667e+01 1.23641432740127e-02 1.19676499816235e-04
1.09908333333333e+01 1.21291855174528e-02 1.18384834350189e-04
1.11725000000000e+01 1.18986926993501e-02 1.17091106377949e-04
1.13541666666667e+01 1.16725799738177e-02 1.15796201020709e-04
1.15358333333333e+01 1.14507641032689e-02 1.14500953059062e-04
1.17175000000000e+01 1.12331634339232e-02 1.13206148838689e-04
1.18991666666667e+01 1.10196978654857e-02 1.11912530285785e-04
1.20808333333333e+01 1.08102888161839e-02 1.10620796530694e-04
1.22625000000000e+01 1.06048591993739e-02 1.09331605419218e-04
1.24441666666667e+01 1.04033333949304e-02 1.08045576989941e-04
1.26258333333333e+01 1.02056372164693e-02 1.06763294763909e-04
1.28075000000000e+01 1.00116978890302e-02 1.05485306947536e-04
1.29891666666667e+01 9.82144402207894e-03 1.04212129465691e-04
1.31708333333333e+01 9.63480557876221e-03 1.02944246988681e-04
1.33525000000000e+01 9.45171385463813e-03 1.01682113891817e-04
1.35341666666667e+01 9.27210145219895e-03 1.00426156917611e-04
1.37158333333333e+01 9.09590225201791e-03 9.91767759944168e-05
1.38975000000000e+01 8.92305139249559e-03 9.79343450024204e-05
1.40791666666667e+01 8.75348524581652e-03 9.66992141231150e-05
1.42608333333333e+01 8.58714139085971e-03 9.54717104914940e-05
1.44425000000000e+01 8.42395859392679e-03 9.42521388069920e-05
1.46241666666667e+01 8.26387678605092e-03 9.30407834169091e-05
1.48058333333333e+01 8.10683703755340e-03 9.18379088348092e-05
1.49875000000000e+01 7.95278153971772e-03 9.06437602265230e-05
1.51691666666667e+01 7.80165358337425e-03 8.94585652654209e-05
1.53508333333333e+01 7.65339753499440e-03 8.82825345426749e-05
1.55325000000000e+01 7.50795881927426e-03 8.71158619520773e-05
1.57141666666667e+01 7.36528389892267e-03 8.59587263482720e-05
1.58958333333333e+01 7.22532025219309e-03 8.48112918692282e-05
1.60775000000000e+01 7.08801635633990e-03 8.36737082387457e-05
1.62591666666667e+01 6.95332166854192e-03 8.25461122534376e-05
1.64408333333333e+01 6.82118660477943e-03 8.14286280336646e-05
1.66225000000000e+01 6.69156252412655e-03 8.03213672588415e-05
1.68041666666667e+01 6.56440171074601e-03 7.92244305047498e-05
1.69858333333333e+01 6.43965735402565e-03 7.81379074359898e-05
1.71675000000000e+01 6.31728353367065e-03 7.70618769862780e-05
1.73491666666667e+01 6.19723520270911e-03 7.59964085642641e-05
1.75308333333333e+01 6.07946816880849e-03 7.49415621980888e-05
1.77125000000000e+01 5.96393908013213e-03 7.38973886705613e-05
1.78941666666667e+01 5.85060540929856e-03 7.28639306089114e-05
1.80758333333333e+01 5.73942543580412e-03 7.18412225900577e-05
1.82575000000000e+01 5.63035823260885e-03 7.08292912387301e-05
1.84391666666667e+01 5.52336365099586e-03 6.98281562143755e-05
1.86208333333333e+01 5.41840230403134e-03 6.88378302841688e-05
1.88025000000000e+01 5.31543555384600e-03 6.78583193906741e-05
1.89841666666667e+01 5.21442549734378e-03 6.68896235472742e-05
1.91658333333333e+01 5.11533495063523e-03 6.59317368847117e-05
1.93475000000000e+01 5.01812743698163e-03 6.49846476937213e-05
1.95291666666667e+01 4.92276717330531e-03 6.40483392388248e-05
1.97108333333333e+01 4.82921905553659e-03 6.31227897831641e-05
1.98925000000000e+01 4.73744864718893e-03 6.22079726105972e-05
2.00741666666667e+01 4.64742216662563e-03 6.13038567664157e-05
2.02558333333333e+01 4.55910647326479e-03 6.04104070644191e-05
2.04375000000000e+01 4.47246905675468e-03 5.95275840921936e-05
2.06191666666667e+01 4.38747802495444e-03 5.86553448862377e-05
2.08008333333333e+01 4.30410209094485e-03 5.77936429245538e-05
2.09825000000000e+01 4.22231056277459e-03 5.69424281181954e-05
2.11641666666667e+01 4.14207333211472e-03 5.61016474273796e-05
2.13458333333333e+01 4.06336086202665e-03 5.52712448423174e-05
2.15275000000000e+01 3.98614417725095e-03 5.44511613636113e-05
2.17091666666667e+01 3.91039485349779e-03 5.36413355651450e-05
2.18908333333333e+01 3.83608500592651e-03 5.28417035654236e-05
2.20725000000000e+01 3.76318727994993e-03 5.20521989989759e-05
2.22541666666667e+01 3.69167484112494e-03 5.12727535311469e-05
2.24358333333333e+01 3.62152136430116e-03 5.05032968218504e-05
2.26175000000000e+01 3.55270102491462e-03 4.97437564897716e-05
2.27991666666667e+01 3.48518848944495e-03 4.89940585836139e-05
2.29808333333333e+01 3.41895890519308e-03 4.82541275398527e-05
2.31625000000000e+01 3.35398789203955e-03 4.75238861412480e-05
2.33441666666667e+01 3.29025153343639e-03 4.68032559485961e-05
2.35258333333333e+01 3.22772636677653e-03 4.60921572538134e-05
2.37075000000000e+01 3.16638937559295e-03 4.53905090340233e-05
2.38891666666667e+01 3.10621798105527e-03 4.46982293474349e-05
2.40708333333333e+01 3.04719003289578e-03 4.40152352828688e-05
2.42525000000000e+01 2.98928380202680e-03 4.33414429104730e-05
2.44341666666667e+01 2.93247797251359e-03 4.26767676449756e-05
2.46158333333333e+01 2.87675163302420e-03 4.20211241925814e-05
2.47975000000000e+01 2.82208426984329e-03 4.13744264992069e-05
2.49791666666667e+01 2.76845575929483e-03 4.07365880840106e-05
2.51608333333333e+01 2.71584635968471e-03 4.01075219844482e-05
2.53425000000000e+01 2.66423670469060e-03 3.94871407027619e-05
2.55241666666667e+01 2.61360779620906e-03 3.88753565124134e-05
2.57058333333333e+01 2.56394099676203e-03 3.82720814019425e-05
2.58875000000000e+01 2.51521802324307e-03 3.76772270203359e-05
2.60691666666667e+01 2.46742094016516e-03 3.70907049587196e-05
2.62508333333333e+01 2.42053215250377e-03 3.65124266935642e-05
2.64325000000000e+01 2.37453439978091e-03 3.59423035314548e-05
2.66141666666667e+01 2.32941074969102e-03 3.53802468681705e-05
2.67958333333333e+01 2.28514459135522e-03 3.48261681316913e-05
2.69775000000000e+01 2.24171962972530e-03 3.42799787267950e-05
2.71591666666667e+01 2.19911987956662e-03 3.37415902734559e-05
2.73408333333333e+01 2.15732965909939e-03 3.32109145500246e-05
2.75225000000000e+01 2.11633358470586e-03 3.26878634380125e-05
2.77041666666667e+01 2.07611656525009e-03 3.21723491415552e-05
2.78858333333333e+01 2.03666379608384e-03 3.16642841310747e-05
2.80675000000000e+01 1.99796075404076e-03 3.11635810885430e-05
2.82491666666667e+01 1.95999319207433e-03 3.06701531095968e-05
2.84308333333333e+01 1.92274713360698e-03 3.01839136479356e-05
2.86125000000000e+01 1.88620886779620e-03 2.97047764613064e-05
2.87941666666667e+01 1.85036494447267e-03 2.92326557977113e-05
2.89758333333333e+01 1.81520216881281e-03 2.87674663407437e-05
2.91575000000000e+01 1.78070759686225e-03 2.83091231564926e-05
2.93391666666667e+01 1.74686853075740e-03 2.78575418651530e-05
2.95208333333333e+01 1.71367251370262e-03 2.74126385874672e-05
2.97025000000000e+01 1.68110732573735e-03 2.69743298927037e-05
2.98841666666667e+01 1.64916097922522e-03 2.65425329568659e-05
3.00658333333333e+01 1.61782171411824e-03 2.61171655103675e-05
3.02475000000000e+01 1.58707799395455e-03 2.56981457872163e-05
3.04291666666667e+01 1.55691850160006e-03 2.52853926709090e-05
3.06108333333333e+01 1.52733213478308e-03 2.48788256434405e-05
3.07925000000000e+01 1.49830800231033e-03 2.44783647357880e-05
3.09741666666667e+01 1.46983542004699e-03 2.40839306624886e-05
3.11558333333333e+01 1.44190390670612e-03 2.36954447720622e-05
3.13375000000000e+01 1.41450318027121e-03 2.33128289988678e-05
3.15191666666667e+01 1.38762315420137e-03 2.29360059872717e-05
3.17008333333333e+01 1.36125393346069e-03 2.25648990435400e-05
3.18825000000000e+01 1.33538581113642e-03 2.21994320891224e-05
3.20641666666667e+01 1.31000926485648e-03 2.18395297752421e-05
3.22458333333333e+01 1.28511495304513e-03 2.14851174362984e-05
3.24275000000000e+01 1.26069371172609e-03 2.11361210446114e-05
3.26091666666667e+01 1.23673655114059e-03 2.07924673161964e-05
3.27908333333333e+01 1.21323465221627e-03 2.04540836656976e-05
3.29725000000000e+01 1.19017936354525e-03 2.01208981626215e-05
3.31541666666667e+01 1.16756219819155e-03 1.97928396289891e-05
3.33358333333333e+01 1.14537483036091e-03 1.94698375958140e-05
3.35175000000000e+01 1.12360909254440e-03 1.91518222608326e-05
3.36991666666667e+01 1.10225697250452e-03 1.88387245786745e-05
3.38808333333333e+01 1.08131061013451e-03 1.85304762188871e-05
3.40625000000000e+01 1.06076229475848e-03 1.82270095251609e-05
3.42441666666667e+01 1.04060446228622e-03 1.79282575986060e-05
3.44258333333333e+01 1.02082969225109e-03 1.76341542573124e-05
3.46075000000000e+01 1.00143070525820e-03 1.73446339970659e-05
3.47891666666667e+01 9.82400360298530e-04 1.70596320682684e-05
3.49708333333333e+01 9.63731651955062e-04 1.67790844370164e-05
3.51525000000000e+01 9.45417707991104e-04 1.65029277472930e-05
3.53341666666667e+01 9.27451786814684e-04 1.62310993920259e-05
3.55158333333333e+01 9.09827274843404e-04 1.59635374756656e-05
3.56975000000000e+01 8.92537684225186e-04 1.57001807778304e-05
3.58791666666667e+01 8.75576650444601e-04 1.54409688189569e-05
3.60608333333333e+01 8.58937929837319e-04 1.51858418243507e-05
3.62425000000000e+01 8.42615397436107e-04 1.49347406892598e-05
3.64241666666667e+01 8.26603044711127e-04 1.46876070395348e-05
3.66058333333333e+01 8.10894977225437e-04 1.44443831971226e-05
3.67875000000000e+01 7.95485412599425e-04 1.42050121465380e-05
3.69691666666667e+01 7.80368678377565e-04 1.39694375909188e-05
3.71508333333333e+01 7.65539209816925e-04 1.37376039189273e-05
3.73325000000000e+01 7.50991547963563e-04 1.35094561725889e-05
3.75141666666667e+01 7.36720337638690e-04 1.32849400990947e-05
3.76958333333333e+01 7.22720325352559e-04 1.30640021190774e-05
3.78775000000000e+01 7.08986357486746e-04 1.28465892957799e-05
3.80591666666667e+01 6.95513378393009e-04 1.26326493829319e-05
3.82408333333333e+01 6.82296428425428e-04 1.24221307943605e-05
3.84225000000000e+01 6.69330642222769e-04 1.22149825744537e-05
3.86041666666667e+01 6.56611246913751e-04 1.20111544424112e-05
3.87858333333333e+01 6.44133560260675e-04 1.18105967631493e-05
3.89675000000000e+01 6.31892989036420e-04 1.16132605190235e-05
3.91491666666667e+01 6.19885027330147e-04 1.14190973507272e-05
3.93308333333333e+01 6.08105254796072e-04 1.12280595294533e-05
3.95125000000000e+01 5.96549335119919e-04 1.10400999298330e-05
3.96941666666667e+01 5.85213014419434e-04 1.08551720677420e-05
3.98758333333333e+01 5.74092119592320e-04 1.06732300736740e-05
4.00575000000000e+01 5.63182556867245e-04 1.04942286668593e-05
4.02391666666667e+01 5.52480310293867e-04 1.03181231902108e-05
4.04208333333333e+01 5.41981440184281e-04 1.01448695848712e-05
4.06025000000000e+01 5.31682081743950e-04 9.97442436546906e-06
4.07841666666667e+01 5.21578443646234e-04 9.80674465242199e-06
4.09658333333333e+01 5.11666806562029e-04 9.64178814761652e-06
4.11475000000000e+01 5.01943521866241e-04 9.47951311076278e-06
4.13291666666667e+01 4.92405010292091e-04 9.31987838925427e-06
4.15108333333333e+01 4.83047760543921e-04 9.16284339493914e-06
4.16925000000000e+01 4.73868328075084e-04 9.00836808153337e-06
4.18741666666667e+01 4.64863333817545e-04 8.85641297222262e-06
4.20558333333333e+01 4.56029462873142e-04 8.70693913748469e-06
4.22375000000000e+01 4.47363463358959e-04 8.55990817352196e-06
4.24191666666667e+01 4.38862145208019e-04 8.41528222777521e-06
4.26008333333333e+01 4.30522378934533e-04 8.27302397775654e-06
4.27825000000000e+01 4.22341094543064e-04 8.13309661046340e-06
4.29641666666667e+01 4.14315280396321e-04 7.99546384596162e-06
4.31458333333333e+01 4.06441982050206e-04 7.86008991718963e-06
4.33275000000000e+01 3.98718301223249e-04 7.72693955031603e-06
4.35091666666667e+01 3.91141394727763e-04 7.59597798653705e-06
4.36908333333333e+01 3.83708473370720e-04 7.46717096281385e-06
4.38725000000000e+01 3.76416800980145e-04 7.34048469313575e-06
4.40541666666667e+01 3.69263693396087e-04 7.21588588866634e-06
4.42358333333333e+01 3.62246517433581e-04 7.09334173937678e-06
4.44175000000000e+01 3.55362689962886e-04 6.97281989617775e-06
4.45991666666667e+01 3.48609676956907e-04 6.85428848953954e-06
4.47808333333333e+01 3.41984992512734e-04 6.73771611198327e-06
4.49625000000000e+01 3.35486197982750e-04 6.62307180104676e-06
4.51441666666667e+01 3.29110901075354e-04 6.51032505649248e-06
4.53258333333333e+01 3.22856754931754e-04 6.39944582362124e-06
4.55075000000000e+01 3.16721457305143e-04 6.29040447703826e-06
4.56891666666667e+01 3.10702749711739e-04 6.18317183655424e-06
4.58708333333333e+01 3.04798416559704e-04 6.07771915128709e-06
4.60525000000000e+01 2.99006284373735e-04 5.97401808419374e-06
4.62341666666667e+01 2.93324220993618e-04 5.87204072676344e-06
4.64158333333333e+01 2.87750134752302e-04 5.77175958387371e-06
4.65975000000000e+01 2.82281973743417e-04 5.67314755905512e-06
4.67791666666667e+01 2.76917725064673e-04 5.57617796806699e-06
4.69608333333333e+01 2.71655414042313e-04 5.48082452447551e-06
4.71425000000000e+01 2.66493103539192e-04 5.38706132561988e-06
4.73241666666667e+01 2.61428893240502e-04 5.29486286515407e-06
4.75058333333333e+01 2.56460918921987e-04 5.20420401931571e-06
4.76875000000000e+01 2.51587351796341e-04 5.11506003356312e-06
4.78691666666667e+01 2.46806397838897e-04 5.02740653416052e-06
4.80508333333333e+01 2.42116297097122e-04 4.94121951510717e-06
4.82325000000000e+01 2.37515323073218e-04 4.85647532541581e-06
4.84141666666667e+01 2.33001782087547e-04 4.77315067981356e-06
4.85958333333333e+01 2.28574012627060e-04 4.69122264630140e-06
4.87775000000000e+01 2.24230384762115e-04 4.61066863404573e-06
4.89591666666667e+01 2.19969299545511e-04 4.53146640326111e-06
4.91408333333333e+01 2.15789188397664e-04 4.45359405337230e-06
4.93225000000000e+01 2.11688512555742e-04 4.37703001149120e-06
4.95041666666667e+01 2.07665762506324e-04 4.30175304154266e-06
4.96858333333333e+01 2.03719457405238e-04 4.22774223300198e-06
4.98675000000000e+01 1.99848144557231e-04 4.15497698993104e-06
5.00491666666667e+01 1.96050398880370e-04 4.08343703940375e-06
5.02308333333333e+01 1.92324822358588e-04 4.01310242079276e-06
5.04125000000000e+01 1.88670043550194e-04 3.94395347533959e-06
5.05941666666667e+01 1.85084717082248e-04 3.87597085393238e-06
5.07758333333333e+01 1.81567523133956e-04 3.80913550691637e-06
5.09575000000000e+01 1.78117166972437e-04 3.74342867417352e-06
5.11391666666667e+01 1.74732378475389e-04 3.67883189230152e-06
5.13208333333333e+01 1.71411911643591e-04 3.61532698492388e-06
5.15025000000000e+01 1.68154544162422e-04 3.55289605325553e-06
5.16841666666667e+01 1.64959076951228e-04 3.49152148272753e-06
5.18658333333333e+01 1.61824333703297e-04 3.43118593377416e-06
5.20475000000000e+01 1.58749160471699e-04 3.37187233286212e-06
5.22291666666667e+01 1.55732425243864e-04 3.31356387860260e-06
5.24108333333333e+01 1.52773017507475e-04 3.25624403299287e-06
5.25925000000000e+01 1.49869847859282e-04 3.19989651288730e-06
5.27741666666667e+01 1.47021847603490e-04 3.14450529563549e-06
5.29558333333333e+01 1.44227968342092e-04 3.09005461075729e-06
5.31375000000000e+01 1.41487181605403e-04 3.03652893183504e-06
5.33191666666667e+01 1.38798478472906e-04 2.98391298171331e-06
5.35008333333333e+01 1.36160869186667e-04 2.93219172458643e-06
5.36825000000000e+01 1.33573382802365e-04 2.88135035829249e-06
5.38641666666667e+01 1.31035066831362e-04 2.83137431910793e-06
5.40458333333333e+01 1.28544986875876e-04 2.78224927422807e-06
5.42275000000000e+01 1.26102226299389e-04 2.73396111444371e-06
5.44091666666667e+01 1.23705885888737e-04 2.68649595856086e-06
5.45908333333333e+01 1.21355083509832e-04 2.63984014625599e-06
5.47725000000000e+01 1.19048953796360e-04 2.59398023111688e-06
5.49541666666667e+01 1.16786647830783e-04 2.54890298471591e-06
5.51358333333333e+01 1.14567332819435e-04 2.50459538982187e-06
5.53175000000000e+01 1.12390191798514e-04 2.46104463378792e-06
5.54991666666667e+01 1.10254423332925e-04 2.41823811230463e-06
5.56808333333333e+01 1.08159241209667e-04 2.37616342295138e-06
5.58625000000000e+01 1.06103874160152e-04 2.33480835891448e-06
5.60441666666667e+01 1.04087565575897e-04 2.29416091244429e-06
5.62258333333333e+01 1.02109573219169e-04 2.25420926872985e-06
5.64075000000000e+01 1.00169168960723e-04 2.21494179993167e-06
5.65891666666667e+01 9.82656385114058e-05 2.17634706836497e-06
5.67708333333333e+01 9.63982811490808e-05 2.13841382068202e-06
5.69525000000000e+01 9.45664094709376e-05 2.10113098220435e-06
5.71341666666667e+01 9.27693491401079e-05 2.06448765985301e-06
5.73158333333333e+01 9.10064386279581e-05 2.02847313662386e-06
