Energy (eV)          EEDF (eV^-(3/2))     First Anisotropy
1.01000000000000e-01 2.18791001243225e-01 3.55438766307258e-04
3.03000000000000e-01 2.04140366907633e-01 5.69192992494782e-04
5.05000000000000e-01 1.90470765088073e-01 7.05829946813541e-04
7.07000000000000e-01 1.77716504103526e-01 7.85167253175177e-04
9.09000000000000e-01 1.65816291104698e-01 8.33240968683091e-04
1.11100000000000e+00 1.54712937520429e-01 8.60829830892057e-04
1.31300000000000e+00 1.44353084227935e-01 8.73931349742257e-04
1.51500000000000e+00 1.34686945126135e-01 8.76378890049036e-04
1.71700000000000e+00 1.25668067879772e-01 8.70825537880414e-04
1.91900000000000e+00 1.17253110684523e-01 8.59202844761238e-04
2.12100000000000e+00 1.09401633980321e-01 8.42965986421057e-04
2.32300000000000e+00 1.02075906111922e-01 8.23237848824591e-04
2.52500000000000e+00 9.52407220027824e-02 8.00899879528949e-04
2.72700000000000e+00 8.88632339708601e-02 7.76652555282148e-04
2.92900000000000e+00 8.29127938732881e-02 7.51057384502200e-04
3.13100000000000e+00 7.73608058213213e-02 7.24567106328013e-04
3.33300000000000e+00 7.21805887577534e-02 6.97548024246978e-04
3.53500000000000e+00 6.73472482363929e-02 6.70296912899389e-04
3.73700000000000e+00 6.28375567874143e-02 6.43054068541396e-04
3.93900000000000e+00 5.86298422936575e-02 6.16013549109603e-04
4.14100000000000e+00 5.47038838414487e-02 5.89331321051644e-04
4.34300000000000e+00 5.10408145454356e-02 5.63131817330180e-04
4.54500000000000e+00 4.76230308804444e-02 5.37513269416027e-04
4.74700000000000e+00 4.44341080846362e-02 5.12552079484396e-04
4.94900000000000e+00 4.14587212274195e-02 4.88306431642084e-04
5.15100000000000e+00 3.86825715627945e-02 4.64819293060272e-04
5.35300000000000e+00 3.60923178142089e-02 4.42120921142777e-04
5.55500000000000e+00 3.36755120607022e-02 4.20230967269947e-04
5.75700000000000e+00 3.14205399162270e-02 3.99160248528795e-04
5.95900000000000e+00 2.93165647146696e-02 3.78912244343650e-04
6.16100000000000e+00 2.73534754323412e-02 3.59484363798588e-04
6.36300000000000e+00 2.55218380976711e-02 3.40869020810016e-04
6.56500000000000e+00 2.38128504545933e-02 3.23054547536811e-04
6.76700000000000e+00 2.22182996617540e-02 3.06025971052921e-04
6.96900000000000e+00 2.07305228242542e-02 2.89765674022606e-04
7.17100000000000e+00 1.93423701682579e-02 2.74253956666345e-04
7.37300000000000e+00 1.80471706814934e-02 2.59469514503159e-04
7.57500000000000e+00 1.68387000545286e-02 2.45389844064220e-04
7.77700000000000e+00 1.57111507687541e-02 2.31991586887842e-04
7.97900000000000e+00 1.46591041873293e-02 2.19250820545882e-04
8.18100000000000e+00 1.36775045149679e-02 2.07143304153297e-04
8.38300000000000e+00 1.27616345014224e-02 1.95644684726656e-04
8.58500000000000e+00 1.19070927719066e-02 1.84730669844757e-04
8.78700000000000e+00 1.11097726755133e-02 1.74377171294356e-04
8.98900000000000e+00 1.03658425499795e-02 1.64560423731355e-04
9.19100000000000e+00 9.67172730795777e-03 1.55257081832885e-04
9.39300000000000e+00 9.02409125630420e-03 1.46444298942185e-04
9.59500000000000e+00 8.41982206581682e-03 1.38099789802945e-04
9.79700000000000e+00 7.85601581438906e-03 1.30201879632009e-04
9.99900000000000e+00 7.32996303170022e-03 1.22729541480099e-04
1.02010000000000e+01 6.83913567837823e-03 1.15662423572145e-04
1.04030000000000e+01 6.38117499706089e-03 1.08980868095804e-04
1.06050000000000e+01 5.95388017697155e-03 1.02665922713635e-04
1.08070000000000e+01 5.55519777753504e-03 9.66993459068991e-05
1.10090000000000e+01 5.18321186020699e-03 9.10636071134717e-05
1.12110000000000e+01 4.83613478109348e-03 8.57418824957793e-05
1.14130000000000e+01 4.51229860011319e-03 8.07180470644550e-05
1.16150000000000e+01 4.21014706541734e-03 7.59766637873168e-05
1.18170000000000e+01 3.92822813454712e-03 7.15029702294209e-05
1.20190000000000e+01 3.66518699638773e-03 6.72828631967304e-05
1.22210000000000e+01 3.41975956038470e-03 6.33028817919647e-05
1.24230000000000e+01 3.19076638173399e-03 5.95501892352835e-05
1.26250000000000e+01 2.97710699335205e-03 5.60125537535639e-05
1.28270000000000e+01 2.77775461738728e-03 5.26783287992682e-05
1.30290000000000e+01 2.59175123085808e-03 4.95364328225211e-05
1.32310000000000e+01 2.41820296170453e-03 4.65763287873073e-05
1.34330000000000e+01 2.25627579312868e-03 4.37880035941285e-05
1.36350000000000e+01 2.10519155557981e-03 4.11619475464869e-05
1.38370000000000e+01 1.96422418712347e-03 3.86891339767567e-05
1.40390000000000e+01 1.83269624422289e-03 3.63609991279767e-05
1.42410000000000e+01 1.70997564616464e-03 3.41694223715216e-05
1.44430000000000e+01 1.59547263748339e-03 3.21067068261674e-05
1.46450000000000e+01 1.48863695378800e-03 3.01655604315145e-05
1.48470000000000e+01 1.38895517736905e-03 2.83390775178440e-05
1.50490000000000e+01 1.29594826987953e-03 2.66207209050435e-05
1.52510000000000e+01 1.20916927023161e-03 2.50043045550873e-05
1.54530000000000e+01 1.12820114664636e-03 2.34839767955296e-05
1.56550000000000e+01 1.05265479253401e-03 2.20542041254275e-05
1.58570000000000e+01 9.82167156573674e-04 2.07097556099480e-05
1.60590000000000e+01 9.16399498006230e-04 1.94456878655043e-05
1.62610000000000e+01 8.55035758755874e-04 1.82573306335313e-05
1.64630000000000e+01 7.97781044557341e-04 1.71402729378612e-05
1.66650000000000e+01 7.44360207789531e-04 1.60903498180241e-05
1.68670000000000e+01 6.94516525205118e-04 1.51036296286127e-05
1.70690000000000e+01 6.48010464201731e-04 1.41764018930538e-05
1.72710000000000e+01 6.04618531705814e-04 1.33051656986795e-05
1.74730000000000e+01 5.64132200137268e-04 1.24866186188345e-05
1.76750000000000e+01 5.26356905293405e-04 1.17176461468619e-05
1.78770000000000e+01 4.91111111336379e-04 1.09953116261350e-05
1.80790000000000e+01 4.58225438390720e-04 1.03168466598281e-05
1.82810000000000e+01 4.27541848558485e-04 9.67964198380372e-06
1.84830000000000e+01 3.98912886440284e-04 9.08123878582826e-06
1.86850000000000e+01 3.72200970512366e-04 8.51932045427992e-06
1.88870000000000e+01 3.47277731954355e-04 7.99170473957012e-06
1.90890000000000e+01 3.24023397750259e-04 7.49633631164615e-06
1.92910000000000e+01 3.02326215098129e-04 7.03127969716049e-06
1.94930000000000e+01 2.82081914362269e-04 6.59471258017273e-06
1.96950000000000e+01 2.63193207987127e-04 6.18491945058005e-06
1.98970000000000e+01 2.45569322964792e-04 5.80028558484406e-06
2.00990000000000e+01 2.29125564609311e-04 5.43929134398502e-06
2.03010000000000e+01 2.13782909541444e-04 5.10050677424375e-06
2.05030000000000e+01 1.99467625927883e-04 4.78258649626003e-06
2.07050000000000e+01 1.86110919149937e-04 4.48426486907783e-06
2.09070000000000e+01 1.73648601198860e-04 4.20435141575894e-06
2.11090000000000e+01 1.62020782209064e-04 3.94172649786213e-06
2.13110000000000e+01 1.51171582646814e-04 3.69533722652254e-06
2.15130000000000e+01 1.41048864771274e-04 3.46419359834207e-06
2.17150000000000e+01 1.31603982077412e-04 3.24736484477306e-06
2.19170000000000e+01 1.22791545516636e-04 3.04397598414446e-06
2.21190000000000e+01 1.14569205371727e-04 2.85320456593722e-06
2.23210000000000e+01 1.06897447737805e-04 2.67427759736511e-06
2.25230000000000e+01 9.97394046312967e-05 2.50646864275614e-06
2.27250000000000e+01 9.30606768143385e-05 2.34909508665662e-06
2.29270000000000e+01 8.68291684831784e-05 2.20151555199631e-06
2.31290000000000e+01 8.10149330261324e-05 2.06312746505496e-06
2.33310000000000e+01 7.55900291098637e-05 1.93336475936124e-06
2.35330000000000e+01 7.05283864023804e-05 1.81169571103128e-06
2.37350000000000e+01 6.58056802874600e-05 1.69762089841727e-06
2.39370000000000e+01 6.13992149684179e-05 1.59067127928666e-06
2.41390000000000e+01 5.72878143994567e-05 1.49040637908819e-06
2.43410000000000e+01 5.34517205204451e-05 1.39641258418463e-06
2.45430000000000e+01 4.98724983060771e-05 1.30830153424136e-06
2.47450000000000e+01 4.65329471731092e-05 1.22570860825695e-06
2.49470000000000e+01 4.34170183199249e-05 1.14829149900591e-06
2.51490000000000e+01 4.05097376011900e-05 1.07572887093530e-06
2.53510000000000e+01 3.77971335669582e-05 1.00771909681670e-06
2.55530000000000e+01 3.52661703204048e-05 9.43979068702097e-07
2.57550000000000e+01 3.29046848715278e-05 8.84243078969332e-07
2.59570000000000e+01 3.07013286857545e-05 8.28261767467040e-07
2.61590000000000e+01 2.86455131465591e-05 7.75801130984111e-07
2.63610000000000e+01 2.67273586699990e-05 7.26641591472442e-07
2.65630000000000e+01 2.49376472266331e-05 6.80577119646039e-07
2.67650000000000e+01 2.32677780426562e-05 6.37414410764020e-07
2.69670000000000e+01 2.17097262673649e-05 5.96972109580480e-07
2.71690000000000e+01 2.02560044083224e-05 5.59080081610661e-07
2.73710000000000e+01 1.88996263488946e-05 5.23578728020956e-07
2.75730000000000e+01 1.76340737752343e-05 4.90318341600213e-07
2.77750000000000e+01 1.64532648513760e-05 4.59158501412002e-07
2.79770000000000e+01 1.53515249919004e-05 4.29967503862306e-07
2.81790000000000e+01 1.43235595917143e-05 4.02621828044805e-07
2.83810000000000e+01 1.33644285818925e-05 3.77005633346844e-07
2.85830000000000e+01 1.24695226893058e-05 3.53010287413761e-07
2.87850000000000e+01 1.16345412859466e-05 3.30533922677602e-07
2.89870000000000e+01 1.08554717215027e-05 3.09481019758780e-07
2.91890000000000e+01 1.01285700398592e-05 2.89762016146291e-07
2.93910000000000e+01 9.45034298685766e-06 2.71292938653736e-07
2.95930000000000e+01 8.81753122284683e-06 2.53995058235150e-07
2.97950000000000e+01 8.22709365935204e-06 2.37794565826522e-07
2.99970000000000e+01 7.67619284458828e-06 2.22622267956287e-07
3.01990000000000e+01 7.16218132758549e-06 2.08413300941194e-07
3.04010000000000e+01 6.68258893539636e-06 1.95106862552925e-07
3.06030000000000e+01 6.23511090224472e-06 1.82645960106030e-07
3.08050000000000e+01 5.81759679356741e-06 1.70977173979222e-07
3.10070000000000e+01 5.42804017172195e-06 1.60050435640088e-07
3.12090000000000e+01 5.06456895369675e-06 1.49818819298037e-07
3.14110000000000e+01 4.72543641448623e-06 1.40238346361890e-07
3.16130000000000e+01 4.40901279289592e-06 1.31267801927228e-07
3.18150000000000e+01 4.11377745943778e-06 1.22868562564506e-07
3.20170000000000e+01 3.83831160867711e-06 1.15004434722183e-07
3.22190000000000e+01 3.58129144091303e-06 1.07641503099928e-07
3.24210000000000e+01 3.34148180042562e-06 1.00747988385336e-07
3.26230000000000e+01 3.11773023971739e-06 9.42941137838317e-08
3.28250000000000e+01 2.90896148122373e-06 8.82519798054809e-08
3.30270000000000e+01 2.71417224987702e-06 8.25954468045934e-08
3.32290000000000e+01 2.53242645169144e-06 7.73000247981944e-08
3.34310000000000e+01 2.36285067519834e-06 7.23427701179399e-08
3.36330000000000e+01 2.20462999411345e-06 6.77021884768396e-08
3.38350000000000e+01 2.05700405106500e-06 6.33581440573774e-08
3.40370000000000e+01 1.91926340356235e-06 5.92917742513644e-08
3.42390000000000e+01 1.79074611464503e-06 5.54854097041985e-08
3.44410000000000e+01 1.67083457182802e-06 5.19224993372225e-08
3.46430000000000e+01 1.55895251905605e-06 4.85875400416503e-08
3.48450000000000e+01 1.45456228740362e-06 4.54660107561265e-08
3.50470000000000e+01 1.35716221121215e-06 4.25443106574818e-08
3.52490000000000e+01 1.26628421724723e-06 3.98097012107028e-08
3.54510000000000e+01 1.18149157529025e-06 3.72502518395983e-08
3.56530000000000e+01 1.10237679935428e-06 3.48547889941916e-08
3.58550000000000e+01 1.02855968943836e-06 3.26128484045462e-08
3.60570000000000e+01 9.59685504409402e-07 3.05146303235822e-08
3.62590000000000e+01 8.95423257231125e-07 2.85509575735263e-08
3.64610000000000e+01 8.35464124347508e-07 2.67132362219882e-08
3.66630000000000e+01 7.79519961576765e-07 2.49934187243321e-08
3.68650000000000e+01 7.27321919383687e-07 2.33839693790365e-08
3.70670000000000e+01 6.78619150875813e-07 2.18778319521551e-08
3.72690000000000e+01 6.33177606314471e-07 2.04683993358456e-08
3.74710000000000e+01 5.90778908347504e-07 1.91494851142429e-08
3.76730000000000e+01 5.51219302558414e-07 1.79152969177665e-08
3.78750000000000e+01 5.14308678288597e-07 1.67604114542875e-08
3.80770000000000e+01 4.79869655027060e-07 1.56797511124659e-08
3.82790000000000e+01 4.47736729977118e-07 1.46685620390425e-08
3.84810000000000e+01 4.17755482703523e-07 1.37223935979421e-08
3.86830000000000e+01 3.89781833037849e-07 1.28370791247503e-08
3.88850000000000e+01 3.63681348675845e-07 1.20087178954802e-08
3.90870000000000e+01 3.39328599139299e-07 1.12336582335739e-08
3.92890000000000e+01 3.16606552997769e-07 1.05084816838038e-08
3.94910000000000e+01 2.95406015453414e-07 9.82998818616845e-09
3.96930000000000e+01 2.75625103586145e-07 9.19518218703553e-09
3.98950000000000e+01 2.57168756737298e-07 8.60125962868913e-09
4.00970000000000e+01 2.39948279678876e-07 8.04559576209998e-09
4.02990000000000e+01 2.23880916373003e-07 7.52573373117475e-09
4.05010000000000e+01 2.08889452273193e-07 7.03937387996662e-09
4.07030000000000e+01 1.94901843256241e-07 6.58436373735556e-09
4.09050000000000e+01 1.81850869401486e-07 6.15868863654640e-09
4.11070000000000e+01 1.69673811953636e-07 5.76046292939691e-09
4.13090000000000e+01 1.58312151916731e-07 5.38792175808808e-09
4.15110000000000e+01 1.47711288830799e-07 5.03941334899309e-09
4.17130000000000e+01 1.37820278379715e-07 4.71339179580116e-09
4.19150000000000e+01 1.28591587569316e-07 4.40841030101532e-09
4.21170000000000e+01 1.19980866299215e-07 4.12311484687874e-09
4.23190000000000e+01 1.11946734230575e-07 3.85623826859894e-09
4.25210000000000e+01 1.04450581925604e-07 3.60659470444116e-09
4.27230000000000e+01 9.74563853030877e-08 3.37307439885875e-09
4.29250000000000e+01 9.09305325183230e-08 3.15463883632545e-09
4.31270000000000e+01 8.48416624354713e-08 2.95031618493771e-09
4.33290000000000e+01 7.91605139160931e-08 2.75919703017188e-09
4.35310000000000e+01 7.38597851995893e-08 2.58043038041492e-09
4.37330000000000e+01 6.89140026997781e-08 2.41321992704454e-09
4.39350000000000e+01 6.42993985870871e-08 2.25682054291932e-09
4.41370000000000e+01 5.99937965680582e-08 2.11053500415660e-09
4.43390000000000e+01 5.59765053132607e-08 1.97371092102926e-09
4.45410000000000e+01 5.22282190214607e-08 1.84573786470612e-09
4.47430000000000e+01 4.87309246421903e-08 1.72604467739870e-09
4.49450000000000e+01 4.54678153108583e-08 1.61409695426232e-09
4.51470000000000e+01 4.24232095804000e-08 1.50939468613552e-09
4.53490000000000e+01 3.95824760613195e-08 1.41147005289167e-09
4.55510000000000e+01 3.69319631079680e-08 1.31988535782334e-09
4.57530000000000e+01 3.44589332131549e-08 1.23423109408587e-09
4.59550000000000e+01 3.21515017958113e-08 1.15412413479454e-09
4.61570000000000e+01 2.99985800875411e-08 1.07920603890187e-09
4.63590000000000e+01 2.79898218435899e-08 1.00914146548042e-09
4.65610000000000e+01 2.61155736221419e-08 9.43616689503700e-10
4.67630000000000e+01 2.43668283930042e-08 8.82338212655564e-10
4.69650000000000e+01 2.27351822527350e-08 8.25031463109187e-10
4.71670000000000e+01 2.12127940382047e-08 7.71439578600634e-10
4.73690000000000e+01 1.97923476445042e-08 7.21322267482625e-10
4.75710000000000e+01 1.84670168661132e-08 6.74454742781383e-10
4.77730000000000e+01 1.72304325923662e-08 6.30626724595671e-10
4.79750000000000e+01 1.60766521995690e-08 5.89641506473286e-10
4.81770000000000e+01 1.50001309926725e-08 5.51315081677744e-10
4.83790000000000e+01 1.39956955592637e-08 5.15475325517911e-10
4.85810000000000e+01 1.30585189078201e-08 4.81961230156691e-10
4.87830000000000e+01 1.21840972707517e-08 4.50622188543065e-10
4.89850000000000e+01 1.13682284607512e-08 4.21317324325394e-10
4.91870000000000e+01 1.06069916764429e-08 3.93914864804006e-10
4.93890000000000e+01 9.89672866028011e-09 3.68291554168507e-10
4.95910000000000e+01 9.23402611814403e-09 3.44332104440849e-10
4.97930000000000e+01 8.61569931615694e-09 3.21928681709581e-10
4.99950000000000e+01 8.03877677588233e-09 3.00980425394691e-10
5.01970000000000e+01 7.50048599436151e-09 2.81392998426703e-10
5.03990000000000e+01 6.99824012036189e-09 2.63078166358710e-10
5.06010000000000e+01 6.52962552280746e-09 2.45953403556523e-10
5.08030000000000e+01 6.09239019164919e-09 2.29941524730585e-10
5.10050000000000e+01 5.68443291543378e-09 2.14970340184172e-10
5.12070000000000e+01 5.30379318356168e-09 2.00972333256296e-10
5.14090000000000e+01 4.94864176470780e-09 1.87884358534981e-10
5.16110000000000e+01 4.61727191612797e-09 1.75647359507640e-10
5.18130000000000e+01 4.30809118160585e-09 1.64206104400551e-10
5.20150000000000e+01 4.01961373862386e-09 1.53508939039285e-10
5.22170000000000e+01 3.75045325798118e-09 1.43507555636673e-10
5.24190000000000e+01 3.49931624154444e-09 1.34156776484919e-10
5.26210000000000e+01 3.26499580611442e-09 1.25414351593952e-10
5.28230000000000e+01 3.04636588353611e-09 1.17240769379507e-10
5.30250000000000e+01 2.84237580917967e-09 1.09599079561831e-10
5.32270000000000e+01 2.65204527278643e-09 1.02454727489695e-10
5.34290000000000e+01 2.47445960741508e-09 9.57753991547196e-11
5.36310000000000e+01 2.30876539384849e-09 8.95308762081731e-11
5.38330000000000e+01 2.15416635933723e-09 8.36929003364844e-11
5.40350000000000e+01 2.00991955097052e-09 7.82350463930360e-11
5.42370000000000e+01 1.87533176528503e-09 7.31326037224446e-11
5.44390000000000e+01 1.74975621695352e-09 6.83624651497280e-11
5.46410000000000e+01 1.63258943054385e-09 6.39030231406328e-11
5.48430000000000e+01 1.52326834041150e-09 5.97340726710941e-11
5.50450000000000e+01 1.42126758478832e-09 5.58367203734842e-11
5.52470000000000e+01 1.32609698106398e-09 5.21932995550793e-11
5.54490000000000e+01 1.23729917012701e-09 4.87872907101731e-11
5.56510000000000e+01 1.15444741844497e-09 4.56032471715991e-11
5.58530000000000e+01 1.07714356732128e-09 4.26267255702025e-11
5.60550000000000e+01 1.00501611947336e-09 3.98442207921141e-11
5.62570000000000e+01 9.37718453737027e-10 3.72431051436287e-11
5.64590000000000e+01 8.74927159317337e-10 3.48115714521638e-11
5.66610000000000e+01 8.16340481581031e-10 3.25385798492441e-11
5.68630000000000e+01 7.61676871921450e-10 3.04138079978129e-11
5.70650000000000e+01 7.10673634727079e-10 2.84276045414722e-11
5.72670000000000e+01 6.63085664951480e-10 2.65709455675764e-11
5.74690000000000e+01 6.18684270217789e-10 2.48353938895052e-11
5.76710000000000e+01 5.77256071797188e-10 2.32130609659821e-11
5.78730000000000e+01 5.38601979179815e-10 2.16965712870432e-11
5.80750000000000e+01 5.02536233310222e-10 2.02790290672392e-11
5.82770000000000e+01 4.68885513889493e-10 1.89539870969330e-11
5.84790000000000e+01 4.37488106453999e-10 1.77154176121694e-11
5.86810000000000e+01 4.08193125228036e-10 1.65576850525912e-11
5.88830000000000e+01 3.80859788015633e-10 1.54755205852957e-11
5.90850000000000e+01 3.55356739646899e-10 1.44639982804013e-11
5.92870000000000e+01 3.31561420727595e-10 1.35185128314687e-11
5.94890000000000e+01 3.09359478658365e-10 1.26347587208113e-11
5.96910000000000e+01 2.88644218093165e-10 1.18087107361897e-11
5.98930000000000e+01 2.69316088195967e-10 1.10366057514159e-11
6.00950000000000e+01 2.51282204231671e-10 1.03149256890439e-11
6.02970000000000e+01 2.34455901192140e-10 9.64038158861059e-12
6.04990000000000e+01 2.18756317312225e-10 9.00989870883041e-12
6.07010000000000e+01 2.04108005474297e-10 8.42060259677582e-12
6.09030000000000e+01 1.90440570633832e-10 7.86980606140414e-12
6.11050000000000e+01 1.77688331523610e-10 7.35499699283737e-12
6.13070000000000e+01 1.65790005010808e-10 6.87382697259138e-12
6.15090000000000e+01 1.54688411590109e-10 6.42410062349373e-12
6.17110000000000e+01 1.44330200597502e-10 6.00376565134387e-12
6.19130000000000e+01 1.34665593824271e-10 5.61090353347124e-12
6.21150000000000e+01 1.25648146299032e-10 5.24372081224753e-12
6.23170000000000e+01 1.17234523088239e-10 4.90054095432308e-12
6.25190000000000e+01 1.09384291042523e-10 4.57979673889597e-12
6.27210000000000e+01 1.02059724488065e-10 4.28002314069747e-12
6.29230000000000e+01 9.52256239292210e-11 3.99985067559850e-12
6.31250000000000e+01 8.88491468911406e-11 3.73799917881999e-12
6.33270000000000e+01 8.28996500894657e-11 3.49327198767365e-12
6.35290000000000e+01 7.73485421686262e-11 3.26455050257776e-12
6.37310000000000e+01 7.21691463010408e-11 3.05078910179341e-12
