Energy (eV)          EEDF (eV^-(3/2))     First Anisotropy
3.11538461538462e-02 1.10662098954161e-01 8.11260755039371e-05
9.34615384615385e-02 1.09198888955636e-01 1.33525449941182e-04
1.55769230769231e-01 1.07755025984745e-01 1.75115450977463e-04
2.18076923076923e-01 1.06330254242716e-01 2.06018606388156e-04
2.80384615384615e-01 1.04924321294507e-01 2.31224986700484e-04
3.42692307692308e-01 1.03536978042151e-01 2.52639549154331e-04
4.05000000000000e-01 1.02167978691928e-01 2.71257171376551e-04
4.67307692307692e-01 1.00817080694147e-01 2.87683993514765e-04
5.29615384615385e-01 9.94840447065069e-02 3.02325534101421e-04
5.91923076923077e-01 9.81686345493542e-02 3.15470867111877e-04
6.54230769230769e-01 9.68706171706985e-02 3.27335784689392e-04
7.16538461538462e-01 9.55897625973936e-02 3.38087134443793e-04
7.78846153846154e-01 9.43258438955552e-02 3.47857542719626e-04
8.41153846153846e-01 9.30786371353851e-02 3.56754822815182e-04
9.03461538461538e-01 9.18479213460537e-02 3.64868254479825e-04
9.65769230769231e-01 9.06334784772866e-02 3.72272926874476e-04
1.02807692307692e+00 8.94350933646255e-02 3.79032834851360e-04
1.09038461538462e+00 8.82525536860193e-02 3.85203141956659e-04
1.15269230769231e+00 8.70856499312212e-02 3.90831871780691e-04
1.21500000000000e+00 8.59341753566303e-02 3.95961196872052e-04
1.27730769230769e+00 8.47979259434510e-02 4.00628433033282e-04
1.33961538461538e+00 8.36767003890891e-02 4.04866825052894e-04
1.40192307692308e+00 8.25703000429279e-02 4.08706172505388e-04
1.46423076923077e+00 8.14785288809839e-02 4.12173330974371e-04
1.52653846153846e+00 8.04011934641767e-02 4.15292620634903e-04
1.58884615384615e+00 7.93381029258449e-02 4.18086164735087e-04
1.65115384615385e+00 7.82890689154237e-02 4.20574170719615e-04
1.71346153846154e+00 7.72539055727236e-02 4.22775162114945e-04
1.77576923076923e+00 7.62324294951683e-02 4.24706177130964e-04
1.83807692307692e+00 7.52244596997432e-02 4.26382934428745e-04
1.90038461538462e+00 7.42298176076925e-02 4.27819977370331e-04
1.96269230769231e+00 7.32483269956623e-02 4.29030798145582e-04
2.02500000000000e+00 7.22798139704185e-02 4.30027942721858e-04
2.08730769230769e+00 7.13241069334588e-02 4.30823102225096e-04
2.14961538461538e+00 7.03810365645979e-02 4.31427194553997e-04
2.21192307692308e+00 6.94504357776246e-02 4.31850436067934e-04
2.27423076923077e+00 6.85321396955936e-02 4.32102402628257e-04
2.33653846153846e+00 6.76259856177738e-02 4.32192083760972e-04
2.39884615384615e+00 6.67318130026650e-02 4.32127932409227e-04
2.46115384615385e+00 6.58494634274265e-02 4.31917909347128e-04
2.52346153846154e+00 6.49787805639115e-02 4.31569520574896e-04
2.58576923076923e+00 6.41196101510336e-02 4.31089853033633e-04
2.64807692307692e+00 6.32717999642209e-02 4.30485604725509e-04
2.71038461538462e+00 6.24351997981668e-02 4.29763113776821e-04
2.77269230769231e+00 6.16096614302879e-02 4.28928384803208e-04
2.83500000000000e+00 6.07950385978620e-02 4.27987111169453e-04
2.89730769230769e+00 5.99911869693503e-02 4.26944695376470e-04
2.95961538461538e+00 5.91979641272515e-02 4.25806268986779e-04
3.02192307692308e+00 5.84152295342694e-02 4.24576710889149e-04
3.08423076923077e+00 5.76428445113356e-02 4.23260662511182e-04
3.14653846153846e+00 5.68806722106421e-02 4.21862541910448e-04
3.20884615384615e+00 5.61285775987531e-02 4.20386557962882e-04
3.27115384615385e+00 5.53864274251766e-02 4.18836723483419e-04
3.33346153846154e+00 5.46540902012897e-02 4.17216865651421e-04
3.39576923076923e+00 5.39314361770724e-02 4.15530637253484e-04
3.45807692307692e+00 5.32183373160579e-02 4.13781525609322e-04
3.52038461538462e+00 5.25146672788868e-02 4.11972862263447e-04
3.58269230769231e+00 5.18203013945688e-02 4.10107832032034e-04
3.64500000000000e+00 5.11351166405605e-02 4.08189480194338e-04
3.70730769230769e+00 5.04589916191558e-02 4.06220719302220e-04
3.76961538461538e+00 4.97918065414977e-02 4.04204336545158e-04
3.83192307692308e+00 4.91334432007354e-02 4.02143000668850e-04
3.89423076923077e+00 4.84837849529858e-02 4.00039267319531e-04
3.95653846153846e+00 4.78427166950652e-02 3.97895584150444e-04
4.01884615384615e+00 4.72101248490011e-02 3.95714296545432e-04
4.08115384615385e+00 4.65858973369177e-02 3.93497653025423e-04
4.14346153846154e+00 4.59699235628625e-02 3.91247809063852e-04
4.20576923076923e+00 4.53620943932279e-02 3.88966831892527e-04
4.26807692307692e+00 4.47623021360143e-02 3.86656703900511e-04
4.33038461538462e+00 4.41704405259921e-02 3.84319326918674e-04
4.39269230769231e+00 4.35864047015614e-02 3.81956526291844e-04
4.45500000000000e+00 4.30100911876401e-02 3.79570053794356e-04
4.51730769230769e+00 4.24413978760806e-02 3.77161590470392e-04
4.57961538461538e+00 4.18802240113808e-02 3.74732750098997e-04
4.64192307692308e+00 4.13264701689695e-02 3.72285082501238e-04
4.70423076923077e+00 4.07800382388982e-02 3.69820075813768e-04
4.76653846153846e+00 4.02408314073402e-02 3.67339158722906e-04
4.82884615384615e+00 3.97087541428558e-02 3.64843703306870e-04
4.89115384615385e+00 3.91837121759937e-02 3.62335027758671e-04
4.95346153846154e+00 3.86656124837600e-02 3.59814398002807e-04
5.01576923076923e+00 3.81543632731459e-02 3.57283030171080e-04
5.07807692307692e+00 3.76498739638765e-02 3.54742092088660e-04
5.14038461538462e+00 3.71520551753556e-02 3.52192705527721e-04
5.20269230769231e+00 3.66608187077904e-02 3.49635948375768e-04
5.26500000000000e+00 3.61760775275959e-02 3.47072855984446e-04
5.32730769230769e+00 3.56977457510849e-02 3.44504422521629e-04
5.38961538461538e+00 3.52257386319588e-02 3.41931602867904e-04
5.45192307692308e+00 3.47599725435446e-02 3.39355314446739e-04
5.51423076923077e+00 3.43003649649073e-02 3.36776438306072e-04
5.57653846153846e+00 3.38468344654259e-02 3.34195820212951e-04
5.63884615384615e+00 3.33993006928191e-02 3.31614272264363e-04
5.70115384615385e+00 3.29576843564191e-02 3.29032574445843e-04
5.76346153846154e+00 3.25219072139625e-02 3.26451475367645e-04
5.82576923076923e+00 3.20918920577336e-02 3.23871693702501e-04
5.88807692307692e+00 3.16675627001689e-02 3.21293918883071e-04
5.95038461538461e+00 3.12488439625283e-02 3.18718812428016e-04
6.01269230769231e+00 3.08356616593745e-02 3.16147009229166e-04
6.07500000000000e+00 3.04279425861750e-02 3.13579118224517e-04
6.13730769230769e+00 3.00256145056829e-02 3.11015723095097e-04
6.19961538461538e+00 2.96286061371125e-02 3.08457383410551e-04
6.26192307692308e+00 2.92368471415075e-02 3.05904635743570e-04
6.32423076923077e+00 2.88502681099560e-02 3.03357994217427e-04
6.38653846153846e+00 2.84688005507019e-02 3.00817951079576e-04
6.44884615384615e+00 2.80923768788103e-02 2.98284977697528e-04
6.51115384615385e+00 2.77209304023679e-02 2.95759525529472e-04
6.57346153846154e+00 2.73543953112817e-02 2.93242026463537e-04
6.63576923076923e+00 2.69927066656233e-02 2.90732893721558e-04
6.69807692307692e+00 2.66358003835936e-02 2.88232522192345e-04
6.76038461538462e+00 2.62836132317725e-02 2.85741289272378e-04
6.82269230769231e+00 2.59360828122902e-02 2.83259555687250e-04
6.88500000000000e+00 2.55931475523227e-02 2.80787665839540e-04
6.94730769230769e+00 2.52547466926998e-02 2.78325948184024e-04
7.00961538461538e+00 2.49208202786063e-02 2.75874715966974e-04
7.07192307692308e+00 2.45913091474733e-02 2.73434267949626e-04
7.13423076923077e+00 2.42661549189985e-02 2.71004888692165e-04
7.19653846153846e+00 2.39452999843618e-02 2.68586848864812e-04
7.25884615384615e+00 2.36286874973607e-02 2.66180405900706e-04
7.32115384615385e+00 2.33162613629785e-02 2.63785804635785e-04
7.38346153846154e+00 2.30079662279038e-02 2.61403277455141e-04
7.44576923076923e+00 2.27037474707261e-02 2.59033044892492e-04
7.50807692307692e+00 2.24035511918612e-02 2.56675315782521e-04
7.57038461538462e+00 2.21073242052036e-02 2.54330287821604e-04
7.63269230769231e+00 2.18150140274858e-02 2.51998148118495e-04
7.69500000000000e+00 2.15265688693912e-02 2.49679073373856e-04
7.75730769230769e+00 2.12419376260158e-02 2.47373230085272e-04
7.81961538461538e+00 2.09610698689164e-02 2.45080775046400e-04
7.88192307692308e+00 2.06839158360586e-02 2.42801855837803e-04
7.94423076923077e+00 2.04104264233775e-02 2.40536610972091e-04
8.00653846153846e+00 2.01405531757446e-02 2.38285170063560e-04
8.06884615384615e+00 1.98742482793972e-02 2.36047654273898e-04
8.13115384615385e+00 1.96114645524391e-02 2.33824176750932e-04
8.19346153846154e+00 1.93521554368281e-02 2.31614842677177e-04
8.25576923076923e+00 1.90962749901282e-02 2.29419749682536e-04
8.31807692307692e+00 1.88437778770688e-02 2.27238987902770e-04
8.38038461538462e+00 1.85946193624249e-02 2.25072640366929e-04
8.44269230769231e+00 1.83487553021670e-02 2.22920783379375e-04
8.50500000000000e+00 1.81061421359526e-02 2.20783486607845e-04
8.56730769230769e+00 1.78667368791319e-02 2.18660813193650e-04
8.62961538461538e+00 1.76304971159717e-02 2.16552820099527e-04
8.69192307692308e+00 1.73973809912901e-02 2.14459558453044e-04
8.75423076923077e+00 1.71673472033277e-02 2.12381073615467e-04
8.81653846153846e+00 1.69403549961757e-02 2.10317405271728e-04
8.87884615384615e+00 1.67163641533293e-02 2.08268587743442e-04
8.94115384615385e+00 1.64953349897783e-02 2.06234650298191e-04
9.00346153846154e+00 1.62772283452400e-02 2.04215617147829e-04
9.06576923076923e+00 1.60620055772224e-02 2.02211507740146e-04
9.12807692307692e+00 1.58496285539466e-02 2.00222336767789e-04
9.19038461538462e+00 1.56400596482904e-02 1.98248114442708e-04
9.25269230769231e+00 1.54332617304134e-02 1.96288846767697e-04
9.31500000000000e+00 1.52291981614184e-02 1.94344535573324e-04
9.37730769230769e+00 1.50278327866473e-02 1.92415178573551e-04
9.43961538461538e+00 1.48291299299202e-02 1.90500769613674e-04
9.50192307692308e+00 1.46330543865620e-02 1.88601298915869e-04
9.56423076923077e+00 1.44395714173849e-02 1.86716753105253e-04
9.62653846153846e+00 1.42486467423378e-02 1.84847115253682e-04
9.68884615384615e+00 1.40602465350288e-02 1.82992365104088e-04
9.75115384615385e+00 1.38743374161288e-02 1.81152479292825e-04
9.81346153846154e+00 1.36908864476603e-02 1.79327431322728e-04
9.87576923076923e+00 1.35098611271632e-02 1.77517191773160e-04
9.93807692307692e+00 1.33312293817574e-02 1.75721728283074e-04
1.00003846153846e+01 1.31549595630005e-02 1.73941005916824e-04
1.00626923076923e+01 1.29810204400457e-02 1.72174986893070e-04
1.01250000000000e+01 1.28093811962122e-02 1.70423630404805e-04
1.01873076923077e+01 1.26400114234086e-02 1.68686894341528e-04
1.02496153846154e+01 1.24728811122821e-02 1.66964734123475e-04
1.03119230769231e+01 1.23079606519525e-02 1.65257102086795e-04
1.03742307692308e+01 1.21452208230641e-02 1.63563948846164e-04
1.04365384615385e+01 1.19846327926086e-02 1.61885222955473e-04
1.04988461538462e+01 1.18261681088170e-02 1.60220870993745e-04
1.05611538461538e+01 1.16697986961188e-02 1.58570837648650e-04
1.06234615384615e+01 1.15154968501665e-02 1.56935065796746e-04
1.06857692307692e+01 1.13632352329292e-02 1.55313496581750e-04
1.07480769230769e+01 1.12129868678484e-02 1.53706069490939e-04
1.08103846153846e+01 1.10647251350580e-02 1.52112722428427e-04
1.08726923076923e+01 1.09184237666684e-02 1.50533391786474e-04
1.09350000000000e+01 1.07740568421122e-02 1.48968012187102e-04
1.09973076923077e+01 1.06315987848361e-02 1.47416517541059e-04
1.10596153846154e+01 1.04910243538770e-02 1.45878840447668e-04
1.11219230769231e+01 1.03523086433234e-02 1.44354911575899e-04
1.11842307692308e+01 1.02154270765778e-02 1.42844660754219e-04
1.12465384615385e+01 1.00803554020023e-02 1.41348016683462e-04
1.13088461538462e+01 9.94706968862175e-03 1.39864906994141e-04
1.13711538461538e+01 9.81554632188406e-03 1.38395258302180e-04
1.14334615384615e+01 9.68576199947556e-03 1.36938996262379e-04
1.14957692307692e+01 9.55769372719394e-03 1.35496045620583e-04
1.15580769230769e+01 9.43131881487353e-03 1.34066330264624e-04
1.16203846153846e+01 9.30661487236529e-03 1.32649773273097e-04
1.16826923076923e+01 9.18355980556984e-03 1.31246296962810e-04
1.17450000000000e+01 9.06213181252306e-03 1.29855822668927e-04
1.18073076923077e+01 8.94230938053884e-03 1.28478271594590e-04
1.18696153846154e+01 8.82407127934972e-03 1.27113564314295e-04
1.19319230769231e+01 8.70739656042539e-03 1.25761620262237e-04
1.19942307692308e+01 8.59226455222369e-03 1.24422358607725e-04
1.20565384615385e+01 8.47865485652816e-03 1.23095698013333e-04
1.21188461538462e+01 8.36654734483407e-03 1.21781556672854e-04
1.21811538461538e+01 8.25592215478222e-03 1.20479852348161e-04
1.22434615384615e+01 8.14675968663932e-03 1.19190502404477e-04
1.23057692307692e+01 8.03904059982654e-03 1.17913423844791e-04
1.23680769230769e+01 7.93274580949237e-03 1.16648533343476e-04
1.24303846153846e+01 7.82785648313131e-03 1.15395747278366e-04
1.24926923076923e+01 7.72435403724722e-03 1.14154981761943e-04
1.25550000000000e+01 7.62222013406092e-03 1.12926152455244e-04
1.26173076923077e+01 7.52143667905247e-03 1.11709175252016e-04
1.26796153846154e+01 7.42198581535700e-03 1.10503965867882e-04
1.27419230769231e+01 7.32384992302423e-03 1.09310439417375e-04
1.28042307692308e+01 7.22701161508048e-03 1.08128511119566e-04
1.28665384615385e+01 7.13145373444820e-03 1.06958096094992e-04
1.29288461538462e+01 7.03715935090620e-03 1.05799109390311e-04
1.29911538461538e+01 6.94411175809005e-03 1.04651466002250e-04
1.30534615384615e+01 6.85229447053186e-03 1.03515080900410e-04
1.31157692307692e+01 6.76169122074023e-03 1.02389869049501e-04
1.31780769230769e+01 6.67228595631776e-03 1.01275745431064e-04
1.32403846153846e+01 6.58406283711695e-03 1.00172625064093e-04
1.33026923076923e+01 6.49700623243381e-03 9.90804230250586e-05
1.33650000000000e+01 6.41110071823850e-03 9.79990542909138e-05
1.34273076923077e+01 6.32633107506795e-03 9.69284342916856e-05
1.34896153846154e+01 6.24268228343428e-03 9.58684785705546e-05
1.35519230769231e+01 6.16013952307838e-03 9.48191024341155e-05
1.36142307692308e+01 6.07868816969934e-03 9.37802215228092e-05
1.36765384615385e+01 5.99831379236343e-03 9.27517516406992e-05
1.37388461538462e+01 5.91900215094735e-03 9.17336087710033e-05
1.38011538461538e+01 5.84073919361524e-03 9.07257090911262e-05
1.38634615384615e+01 5.76351105432883e-03 8.97279689868974e-05
1.39257692307692e+01 5.68730405039136e-03 8.87403050664398e-05
1.39880769230769e+01 5.61210468002303e-03 8.77626341736820e-05
1.40503846153846e+01 5.53789961996892e-03 8.67948734010990e-05
1.41126923076923e+01 5.46467572313842e-03 8.58369401020453e-05
1.41750000000000e+01 5.39242001627596e-03 8.48887517586000e-05
1.42373076923077e+01 5.32111969815850e-03 8.39502264290481e-05
1.42996153846154e+01 5.25076213582445e-03 8.30212824665147e-05
1.43619230769231e+01 5.18133486385386e-03 8.21018382296379e-05
1.44242307692308e+01 5.11282558164857e-03 8.11918125448567e-05
1.44865384615385e+01 5.04522215125285e-03 8.02911245638759e-05
1.45488461538462e+01 4.97851259520288e-03 7.93996937729107e-05
1.46111538461538e+01 4.91268509440473e-03 7.85174400015994e-05
1.46734615384615e+01 4.84772798604008e-03 7.76442834313426e-05
1.47357692307692e+01 4.78362976150036e-03 7.67801446034075e-05
1.47980769230769e+01 4.72037906434749e-03 7.59249444268086e-05
1.48603846153846e+01 4.65796468830187e-03 7.50786041856254e-05
1.49226923076923e+01 4.59637557525690e-03 7.42410455460570e-05
1.49850000000000e+01 4.53560081331981e-03 7.34121904453293e-05
1.50473076923077e+01 4.47562963527301e-03 7.25919614548534e-05
1.51096153846154e+01 4.41645141547060e-03 7.17802815472189e-05
1.51719230769231e+01 4.35805566916373e-03 7.09770738567023e-05
1.52342307692308e+01 4.30043205023630e-03 7.01822620547016e-05
1.52965384615385e+01 4.24357034937185e-03 6.93957702304606e-05
1.53588461538462e+01 4.18746049224477e-03 6.86175228960138e-05
1.54211538461538e+01 4.13209253773542e-03 6.78474449909082e-05
1.54834615384615e+01 4.07745667616864e-03 6.70854618865111e-05
1.55457692307692e+01 4.02354322757613e-03 6.63314993901762e-05
1.56080769230769e+01 3.97034263998122e-03 6.55854837492593e-05
1.56703846153846e+01 3.91784548770654e-03 6.48473416547490e-05
1.57326923076923e+01 3.86604246970404e-03 6.41170002447170e-05
1.57950000000000e+01 3.81492440790710e-03 6.33943870110154e-05
1.58573076923077e+01 3.76448224591940e-03 6.26794300945654e-05
1.59196153846154e+01 3.71470704645606e-03 6.19720580922811e-05
1.59819230769231e+01 3.66558999072409e-03 6.12721998587050e-05
1.60442307692308e+01 3.61712237653546e-03 6.05797848114771e-05
1.61065384615385e+01 3.56929561676520e-03 5.98947428315605e-05
1.61688461538462e+01 3.52210123783011e-03 5.92170042652573e-05
1.62311538461538e+01 3.47553087818738e-03 5.85464999260949e-05
1.62934615384615e+01 3.42957628685310e-03 5.78831610964132e-05
1.63557692307692e+01 3.38422932194064e-03 5.72269195288662e-05
1.64180769230769e+01 3.33948194921797e-03 5.65777074478380e-05
1.64803846153846e+01 3.29532624068431e-03 5.59354575505787e-05
1.65426923076923e+01 3.25175437316540e-03 5.53001030082302e-05
1.66050000000000e+01 3.20875862692750e-03 5.46715773875144e-05
1.66673076923077e+01 3.16633138456170e-03 5.40498148912362e-05
1.67296153846154e+01 3.12446512887073e-03 5.34347501981915e-05
1.67919230769231e+01 3.08315244230833e-03 5.28263182987673e-05
1.68542307692308e+01 3.04238600540543e-03 5.22244547438889e-05
1.69165384615385e+01 3.00215859547332e-03 5.16290955615570e-05
1.69788461538462e+01 2.96246308532401e-03 5.10401772569295e-05
1.70411538461538e+01 2.92329244200745e-03 5.04576368123138e-05
1.71034615384615e+01 2.88463972556544e-03 4.98814116869498e-05
1.71657692307692e+01 2.84649808780220e-03 4.93114398167494e-05
1.72280769230769e+01 2.80886077107101e-03 4.87476596139894e-05
1.72903846153846e+01 2.77172110707693e-03 4.81900099668071e-05
1.73526923076923e+01 2.73507251569534e-03 4.76384302386268e-05
1.74150000000000e+01 2.69890850380614e-03 4.70928602024541e-05
1.74773076923077e+01 2.66322266434546e-03 4.65532402370421e-05
1.75396153846154e+01 2.62800867455816e-03 4.60195111940762e-05
1.76019230769231e+01 2.59326029549606e-03 4.54916142618350e-05
1.76642307692308e+01 2.55897137070435e-03 4.49694911683575e-05
1.77265384615385e+01 2.52513582513086e-03 4.44530841116307e-05
1.77888461538462e+01 2.49174766404968e-03 4.39423357584171e-05
1.78511538461538e+01 2.45880097199911e-03 4.34371892430256e-05
1.79134615384615e+01 2.42628991173350e-03 4.29375881659377e-05
1.79757692307692e+01 2.39420872318921e-03 4.24434765924149e-05
1.80380769230769e+01 2.36255172246401e-03 4.19547990510863e-05
1.81003846153846e+01 2.33131330081006e-03 4.14715005324020e-05
1.81626923076923e+01 2.30048792364015e-03 4.09935264870481e-05
1.82250000000000e+01 2.27007012954720e-03 4.05208227708261e-05
1.82873076923077e+01 2.24005452949903e-03 4.00533358048631e-05
1.83496153846154e+01 2.21043580539145e-03 3.95910124653591e-05
1.84119230769231e+01 2.18120870960307e-03 3.91337999704483e-05
1.84742307692308e+01 2.15236806389823e-03 3.86816460462192e-05
1.85365384615385e+01 2.12390875850958e-03 3.82344988683164e-05
1.85988461538462e+01 2.09582575123274e-03 3.77923070599911e-05
1.86611538461538e+01 2.06811406653298e-03 3.73550196901197e-05
1.87234615384615e+01 2.04076879466361e-03 3.69225862711265e-05
1.87857692307692e+01 2.01378509079629e-03 3.64949567569053e-05
1.88480769230769e+01 1.98715817416250e-03 3.60720815407409e-05
1.89103846153846e+01 1.96088332720662e-03 3.56539114531277e-05
1.89726923076923e+01 1.93495589475004e-03 3.52403977595837e-05
1.90350000000000e+01 1.90937128316642e-03 3.48314921144147e-05
1.90973076923077e+01 1.88412495969867e-03 3.44271466917119e-05
1.91596153846154e+01 1.85921245125948e-03 3.40273140937786e-05
1.92219230769231e+01 1.83462934403911e-03 3.36319472571827e-05
1.92842307692308e+01 1.81037128258863e-03 3.32409995885803e-05
1.93465384615385e+01 1.78643396904827e-03 3.28544249158568e-05
1.94088461538462e+01 1.76281316238592e-03 3.24721774857347e-05
1.94711538461538e+01 1.73950467764576e-03 3.20942119613732e-05
1.95334615384615e+01 1.71650438520678e-03 3.17204834198997e-05
1.95957692307692e+01 1.69380821005115e-03 3.13509473499523e-05
1.96580769230769e+01 1.67141213104227e-03 3.09855596492332e-05
