Energy (eV)          EEDF (eV^-(3/2))     First Anisotropy
1.25000000000000e-02 1.63192181648797e-01 8.63681109055618e-05
3.75000000000000e-02 1.62069349790744e-01 1.42607079172686e-04
6.25000000000000e-02 1.60954243495510e-01 1.88227782899653e-04
8.75000000000000e-02 1.59846809607603e-01 2.22868110241644e-04
1.12500000000000e-01 1.58746995337524e-01 2.51743620368964e-04
1.37500000000000e-01 1.57654748259029e-01 2.76826252163668e-04
1.62500000000000e-01 1.56570016306600e-01 2.99136487193397e-04
1.87500000000000e-01 1.55492747772959e-01 3.19290564482205e-04
2.12500000000000e-01 1.54422891306596e-01 3.37697184388602e-04
2.37500000000000e-01 1.53360395909322e-01 3.54645207469931e-04
2.62500000000000e-01 1.52305210933840e-01 3.70348462863257e-04
2.87500000000000e-01 1.51257286081327e-01 3.84970924910957e-04
3.12500000000000e-01 1.50216571399038e-01 3.98641892381860e-04
3.37500000000000e-01 1.49183017277925e-01 4.11465653592315e-04
3.62500000000000e-01 1.48156574450269e-01 4.23527914997419e-04
3.87500000000000e-01 1.47137193987337e-01 4.34900232687885e-04
4.12500000000000e-01 1.46124827297046e-01 4.45643159823433e-04
4.37500000000000e-01 1.45119426121646e-01 4.55808539474033e-04
4.62500000000000e-01 1.44120942535421e-01 4.65441211737951e-04
4.87500000000000e-01 1.43129328942405e-01 4.74580309109452e-04
5.12500000000000e-01 1.42144538074115e-01 4.83260255926157e-04
5.37500000000000e-01 1.41166522987290e-01 4.91511550963257e-04
5.62500000000000e-01 1.40195237061664e-01 4.99361388348223e-04
5.87500000000000e-01 1.39230633997734e-01 5.06834156057551e-04
6.12500000000000e-01 1.38272667814561e-01 5.13951840427407e-04
6.37500000000000e-01 1.37321292847572e-01 5.20734357595590e-04
6.62500000000000e-01 1.36376463746387e-01 5.27199827484896e-04
6.87500000000000e-01 1.35438135472655e-01 5.33364802130058e-04
7.12500000000000e-01 1.34506263297909e-01 5.39244457378185e-04
7.37500000000000e-01 1.33580802801434e-01 5.44852754946980e-04
7.62500000000000e-01 1.32661709868144e-01 5.50202580297900e-04
7.87500000000000e-01 1.31748940686489e-01 5.55305860627892e-04
8.12500000000000e-01 1.30842451746359e-01 5.60173666402808e-04
8.37500000000000e-01 1.29942199837011e-01 5.64816299177316e-04
8.62500000000000e-01 1.29048142045011e-01 5.69243367918663e-04
8.87500000000000e-01 1.28160235752189e-01 5.73463855638137e-04
9.12500000000000e-01 1.27278438633605e-01 5.77486177807475e-04
9.37500000000000e-01 1.26402708655534e-01 5.81318233777047e-04
9.62500000000000e-01 1.25533004073458e-01 5.84967452204355e-04
9.87500000000000e-01 1.24669283430082e-01 5.88440831332908e-04
1.01250000000000e+00 1.23811505553354e-01 5.91744974825300e-04
1.03750000000000e+00 1.22959629554503e-01 5.94886123742709e-04
1.06250000000000e+00 1.22113614826090e-01 5.97870185171310e-04
1.08750000000000e+00 1.21273421040073e-01 6.00702757920715e-04
1.11250000000000e+00 1.20439008145885e-01 6.03389155657059e-04
1.13750000000000e+00 1.19610336368522e-01 6.05934427780949e-04
1.16250000000000e+00 1.18787366206650e-01 6.08343378316696e-04
1.18750000000000e+00 1.17970058430722e-01 6.10620583043088e-04
1.21250000000000e+00 1.17158374081105e-01 6.12770405064465e-04
1.23750000000000e+00 1.16352274466227e-01 6.14797008994635e-04
1.26250000000000e+00 1.15551721160728e-01 6.16704373904244e-04
1.28750000000000e+00 1.14756676003635e-01 6.18496305162741e-04
1.31250000000000e+00 1.13967101096533e-01 6.20176445290219e-04
1.33750000000000e+00 1.13182958801770e-01 6.21748283920073e-04
1.36250000000000e+00 1.12404211740653e-01 6.23215166961311e-04
1.38750000000000e+00 1.11630822791673e-01 6.24580305039330e-04
1.41250000000000e+00 1.10862755088731e-01 6.25846781284554e-04
1.43750000000000e+00 1.10099972019383e-01 6.27017558530644e-04
1.46250000000000e+00 1.09342437223096e-01 6.28095485977158e-04
1.48750000000000e+00 1.08590114589510e-01 6.29083305365384e-04
1.51250000000000e+00 1.07842968256721e-01 6.29983656711260e-04
1.53750000000000e+00 1.07100962609572e-01 6.30799083634250e-04
1.56250000000000e+00 1.06364062277950e-01 6.31532038317139e-04
1.58750000000000e+00 1.05632232135106e-01 6.32184886128248e-04
1.61250000000000e+00 1.04905437295978e-01 6.32759909934323e-04
1.63750000000000e+00 1.04183643115527e-01 6.33259314129732e-04
1.66250000000000e+00 1.03466815187087e-01 6.33685228404814e-04
1.68750000000000e+00 1.02754919340724e-01 6.34039711274342e-04
1.71250000000000e+00 1.02047921641610e-01 6.34324753384822e-04
1.73750000000000e+00 1.01345788388400e-01 6.34542280617895e-04
1.76250000000000e+00 1.00648486111630e-01 6.34694157005368e-04
1.78750000000000e+00 9.99559815721220e-02 6.34782187469873e-04
1.81250000000000e+00 9.92682417593945e-02 6.34808120404294e-04
1.83750000000000e+00 9.85852338900943e-02 6.34773650101638e-04
1.86250000000000e+00 9.79069254064310e-02 6.34680419045878e-04
1.88750000000000e+00 9.72332839746259e-02 6.34530020074066e-04
1.91250000000000e+00 9.65642774833703e-02 6.34323998418433e-04
1.93750000000000e+00 9.58998740422951e-02 6.34063853636593e-04
1.96250000000000e+00 9.52400419804506e-02 6.33751041437850e-04
1.98750000000000e+00 9.45847498447967e-02 6.33386975412425e-04
2.01250000000000e+00 9.39339663987037e-02 6.32973028669906e-04
2.03750000000000e+00 9.32876606204630e-02 6.32510535392860e-04
2.06250000000000e+00 9.26458017018090e-02 6.32000792311335e-04
2.08750000000000e+00 9.20083590464497e-02 6.31445060103070e-04
2.11250000000000e+00 9.13753022686090e-02 6.30844564724016e-04
2.13750000000000e+00 9.07466011915777e-02 6.30200498673730e-04
2.16250000000000e+00 9.01222258462752e-02 6.29514022199441e-04
2.18750000000000e+00 8.95021464698213e-02 6.28786264442572e-04
2.21250000000000e+00 8.88863335041167e-02 6.28018324531201e-04
2.23750000000000e+00 8.82747575944346e-02 6.27211272621483e-04
2.26250000000000e+00 8.76673895880213e-02 6.26366150891225e-04
2.28750000000000e+00 8.70642005327064e-02 6.25483974488331e-04
2.31250000000000e+00 8.64651616755229e-02 6.24565732436532e-04
2.33750000000000e+00 8.58702444613364e-02 6.23612388500905e-04
2.36250000000000e+00 8.52794205314841e-02 6.22624882015603e-04
2.38750000000000e+00 8.46926617224227e-02 6.21604128675539e-04
2.41250000000000e+00 8.41099400643864e-02 6.20551021294122e-04
2.43750000000000e+00 8.35312277800530e-02 6.19466430529092e-04
2.46250000000000e+00 8.29564972832205e-02 6.18351205577807e-04
2.48750000000000e+00 8.23857211774913e-02 6.17206174843764e-04
2.51250000000000e+00 8.18188722549671e-02 6.16032146575920e-04
2.53750000000000e+00 8.12559234949514e-02 6.14829909482016e-04
2.56250000000000e+00 8.06968480626614e-02 6.13600233317382e-04
2.58750000000000e+00 8.01416193079496e-02 6.12343869450495e-04
2.61250000000000e+00 7.95902107640323e-02 6.11061551406267e-04
2.63750000000000e+00 7.90425961462289e-02 6.09753995388319e-04
2.66250000000000e+00 7.84987493507087e-02 6.08421900781225e-04
2.68750000000000e+00 7.79586444532461e-02 6.07065950633672e-04
2.71250000000000e+00 7.74222557079857e-02 6.05686812123466e-04
2.73750000000000e+00 7.68895575462143e-02 6.04285137005230e-04
2.76250000000000e+00 7.63605245751423e-02 6.02861562041651e-04
2.78750000000000e+00 7.58351315766936e-02 6.01416709419011e-04
2.81250000000000e+00 7.53133535063030e-02 5.99951187147790e-04
2.83750000000000e+00 7.47951654917227e-02 5.98465589448759e-04
2.86250000000000e+00 7.42805428318366e-02 5.96960497125527e-04
2.88750000000000e+00 7.37694609954826e-02 5.95436477924160e-04
2.91250000000000e+00 7.32618956202838e-02 5.93894086880105e-04
2.93750000000000e+00 7.27578225114867e-02 5.92333866653369e-04
2.96250000000000e+00 7.22572176408079e-02 5.90756347852111e-04
2.98750000000000e+00 7.17600571452890e-02 5.89162049345436e-04
3.01250000000000e+00 7.12663173261589e-02 5.87551478565746e-04
3.03750000000000e+00 7.07759746477043e-02 5.85925131801041e-04
3.06250000000000e+00 7.02890057361473e-02 5.84283494477572e-04
3.08750000000000e+00 6.98053873785318e-02 5.82627041433347e-04
3.11250000000000e+00 6.93250965216168e-02 5.80956237182862e-04
3.13750000000000e+00 6.88481102707773e-02 5.79271536173294e-04
3.16250000000000e+00 6.83744058889133e-02 5.77573383032704e-04
3.18750000000000e+00 6.79039607953655e-02 5.75862212810304e-04
3.21250000000000e+00 6.74367525648392e-02 5.74138451209248e-04
3.23750000000000e+00 6.69727589263354e-02 5.72402514812318e-04
3.26250000000000e+00 6.65119577620892e-02 5.70654811300755e-04
3.28750000000000e+00 6.60543271065150e-02 5.68895739666234e-04
3.31250000000000e+00 6.55998451451602e-02 5.67125690416655e-04
3.33750000000000e+00 6.51484902136647e-02 5.65345045775773e-04
3.36250000000000e+00 6.47002407967285e-02 5.63554179876697e-04
3.38750000000000e+00 6.42550755270861e-02 5.61753458950018e-04
3.41250000000000e+00 6.38129731844877e-02 5.59943241506249e-04
3.43750000000000e+00 6.33739126946882e-02 5.58123878512985e-04
3.46250000000000e+00 6.29378731284420e-02 5.56295713567089e-04
3.48750000000000e+00 6.25048337005059e-02 5.54459083061949e-04
3.51250000000000e+00 6.20747737686478e-02 5.52614316349945e-04
3.53750000000000e+00 6.16476728326632e-02 5.50761735900373e-04
3.56250000000000e+00 6.12235105333976e-02 5.48901657452988e-04
3.58750000000000e+00 6.08022666517762e-02 5.47034390167337e-04
3.61250000000000e+00 6.03839211078400e-02 5.45160236767991e-04
3.63750000000000e+00 5.99684539597889e-02 5.43279493685741e-04
3.66250000000000e+00 5.95558454030306e-02 5.41392451195063e-04
3.68750000000000e+00 5.91460757692372e-02 5.39499393547894e-04
3.71250000000000e+00 5.87391255254069e-02 5.37600599103776e-04
3.73750000000000e+00 5.83349752729336e-02 5.35696340456633e-04
3.76250000000000e+00 5.79336057466818e-02 5.33786884558191e-04
3.78750000000000e+00 5.75349978140682e-02 5.31872492838088e-04
3.81250000000000e+00 5.71391324741502e-02 5.29953421321058e-04
3.83750000000000e+00 5.67459908567193e-02 5.28029920740917e-04
3.86250000000000e+00 5.63555542214026e-02 5.26102236651720e-04
3.88750000000000e+00 5.59678039567685e-02 5.24170609536153e-04
3.91250000000000e+00 5.55827215794404e-02 5.22235274911003e-04
3.93750000000000e+00 5.52002887332148e-02 5.20296463430164e-04
3.96250000000000e+00 5.48204871881871e-02 5.18354400985004e-04
3.98750000000000e+00 5.44432988398820e-02 5.16409308802271e-04
4.01250000000000e+00 5.40687057083908e-02 5.14461403539603e-04
4.03750000000000e+00 5.36966899375143e-02 5.12510897378616e-04
4.06250000000000e+00 5.33272337939114e-02 5.10557998115811e-04
4.08750000000000e+00 5.29603196662541e-02 5.08602909251239e-04
4.11250000000000e+00 5.25959300643877e-02 5.06645830075132e-04
4.13750000000000e+00 5.22340476184975e-02 5.04686955752381e-04
4.16250000000000e+00 5.18746550782803e-02 5.02726477405017e-04
4.18750000000000e+00 5.15177353121223e-02 5.00764582192761e-04
4.21250000000000e+00 5.11632713062828e-02 4.98801453391652e-04
4.23750000000000e+00 5.08112461640827e-02 4.96837270470967e-04
4.26250000000000e+00 5.04616431050992e-02 4.94872209168216e-04
4.28750000000000e+00 5.01144454643662e-02 4.92906441562477e-04
4.31250000000000e+00 4.97696366915795e-02 4.90940136145994e-04
4.33750000000000e+00 4.94272003503080e-02 4.88973457894250e-04
4.36250000000000e+00 4.90871201172105e-02 4.87006568334376e-04
4.38750000000000e+00 4.87493797812572e-02 4.85039625611964e-04
4.41250000000000e+00 4.84139632429570e-02 4.83072784556552e-04
4.43750000000000e+00 4.80808545135905e-02 4.81106196745530e-04
4.46250000000000e+00 4.77500377144471e-02 4.79140010566597e-04
4.48750000000000e+00 4.74214970760688e-02 4.77174371278847e-04
4.51250000000000e+00 4.70952169374982e-02 4.75209421072681e-04
4.53750000000000e+00 4.67711817455316e-02 4.73245299128255e-04
4.56250000000000e+00 4.64493760539785e-02 4.71282141672592e-04
4.58750000000000e+00 4.61297845229245e-02 4.69320082035649e-04
4.61250000000000e+00 4.58123919180004e-02 4.67359250705092e-04
4.63750000000000e+00 4.54971831096558e-02 4.65399775379817e-04
4.66250000000000e+00 4.51841430724385e-02 4.63441781022464e-04
4.68750000000000e+00 4.48732568842773e-02 4.61485389910776e-04
4.71250000000000e+00 4.45645097257716e-02 4.59530721687788e-04
4.73750000000000e+00 4.42578868794845e-02 4.57577893411086e-04
4.76250000000000e+00 4.39533737292413e-02 4.55627019600978e-04
4.78750000000000e+00 4.36509557594327e-02 4.53678212287614e-04
4.81250000000000e+00 4.33506185543233e-02 4.51731581057264e-04
4.83750000000000e+00 4.30523477973639e-02 4.49787233097492e-04
4.86250000000000e+00 4.27561292705092e-02 4.47845273241484e-04
4.88750000000000e+00 4.24619488535403e-02 4.45905804011503e-04
4.91250000000000e+00 4.21697925233914e-02 4.43968925661346e-04
4.93750000000000e+00 4.18796463534812e-02 4.42034736218038e-04
4.96250000000000e+00 4.15914965130495e-02 4.40103331522656e-04
4.98750000000000e+00 4.13053292664974e-02 4.38174805270302e-04
5.01250000000000e+00 4.10211309727328e-02 4.36249249049303e-04
5.03750000000000e+00 4.07388880845204e-02 4.34326752379680e-04
5.06250000000000e+00 4.04585871478353e-02 4.32407402750793e-04
5.08750000000000e+00 4.01802148012223e-02 4.30491285658208e-04
5.11250000000000e+00 3.99037577751585e-02 4.28578484639887e-04
5.13750000000000e+00 3.96292028914212e-02 4.26669081311713e-04
5.16250000000000e+00 3.93565370624594e-02 4.24763155402200e-04
5.18750000000000e+00 3.90857472907700e-02 4.22860784786658e-04
5.21250000000000e+00 3.88168206682782e-02 4.20962045520621e-04
5.23750000000000e+00 3.85497443757225e-02 4.19067011872600e-04
5.26250000000000e+00 3.82845056820432e-02 4.17175756356322e-04
5.28750000000000e+00 3.80210919437758e-02 4.15288349762232e-04
5.31250000000000e+00 3.77594906044481e-02 4.13404861188428e-04
5.33750000000000e+00 3.74996891939820e-02 4.11525358071023e-04
5.36250000000000e+00 3.72416753280987e-02 4.09649906213949e-04
5.38750000000000e+00 3.69854367077287e-02 4.07778569818167e-04
5.41250000000000e+00 3.67309611184250e-02 4.05911411510311e-04
5.43750000000000e+00 3.64782364297816e-02 4.04048492370826e-04
5.46250000000000e+00 3.62272505948547e-02 4.02189871961587e-04
5.48750000000000e+00 3.59779916495885e-02 4.00335608352961e-04
5.51250000000000e+00 3.57304477122452e-02 3.98485758150399e-04
5.53750000000000e+00 3.54846069828384e-02 3.96640376520539e-04
5.56250000000000e+00 3.52404577425706e-02 3.94799517216772e-04
5.58750000000000e+00 3.49979883532745e-02 3.92963232604403e-04
5.61250000000000e+00 3.47571872568586e-02 3.91131573685337e-04
5.63750000000000e+00 3.45180429747558e-02 3.89304590122290e-04
5.66250000000000e+00 3.42805441073766e-02 3.87482330262578e-04
5.68750000000000e+00 3.40446793335654e-02 3.85664841161445e-04
5.71250000000000e+00 3.38104374100612e-02 3.83852168605019e-04
5.73750000000000e+00 3.35778071709611e-02 3.82044357132775e-04
5.76250000000000e+00 3.33467775271886e-02 3.80241450059643e-04
5.78750000000000e+00 3.31173374659648e-02 3.78443489497758e-04
5.81250000000000e+00 3.28894760502834e-02 3.76650516377758e-04
5.83750000000000e+00 3.26631824183892e-02 3.74862570469720e-04
5.86250000000000e+00 3.24384457832607e-02 3.73079690403678e-04
5.88750000000000e+00 3.22152554320957e-02 3.71301913689878e-04
5.91250000000000e+00 3.19936007258005e-02 3.69529276738575e-04
5.93750000000000e+00 3.17734710984831e-02 3.67761814879547e-04
5.96250000000000e+00 3.15548560569492e-02 3.65999562381220e-04
5.98750000000000e+00 3.13377451802022e-02 3.64242552469458e-04
6.01250000000000e+00 3.11221281189465e-02 3.62490817346073e-04
6.03750000000000e+00 3.09079945950939e-02 3.60744388206949e-04
6.06250000000000e+00 3.06953344012740e-02 3.59003295259900e-04
6.08750000000000e+00 3.04841374003473e-02 3.57267567742158e-04
6.11250000000000e+00 3.02743935249223e-02 3.55537233937637e-04
6.13750000000000e+00 3.00660927768753e-02 3.53812321193795e-04
6.16250000000000e+00 2.98592252268741e-02 3.52092855938296e-04
6.18750000000000e+00 2.96537810139044e-02 3.50378863695367e-04
6.21250000000000e+00 2.94497503448001e-02 3.48670369101789e-04
6.23750000000000e+00 2.92471234937760e-02 3.46967395922724e-04
6.26250000000000e+00 2.90458908019647e-02 3.45269967067224e-04
6.28750000000000e+00 2.88460426769557e-02 3.43578104603478e-04
6.31250000000000e+00 2.86475695923385e-02 3.41891829773777e-04
6.33750000000000e+00 2.84504620872484e-02 3.40211163009278e-04
6.36250000000000e+00 2.82547107659155e-02 3.38536123944422e-04
6.38750000000000e+00 2.80603062972167e-02 3.36866731431174e-04
6.41250000000000e+00 2.78672394142310e-02 3.35203003553095e-04
6.43750000000000e+00 2.76755009137980e-02 3.33544957639008e-04
6.46250000000000e+00 2.74850816560786e-02 3.31892610276520e-04
6.48750000000000e+00 2.72959725641200e-02 3.30245977325362e-04
6.51250000000000e+00 2.71081646234227e-02 3.28605073930444e-04
6.53750000000000e+00 2.69216488815105e-02 3.26969914534686e-04
6.56250000000000e+00 2.67364164475045e-02 3.25340512891661e-04
6.58750000000000e+00 2.65524584916985e-02 3.23716882078015e-04
6.61250000000000e+00 2.63697662451386e-02 3.22099034505691e-04
6.63750000000000e+00 2.61883309992049e-02 3.20486981933934e-04
6.66250000000000e+00 2.60081441051967e-02 3.18880735481072e-04
6.68750000000000e+00 2.58291969739200e-02 3.17280305636178e-04
6.71250000000000e+00 2.56514810752781e-02 3.15685702270494e-04
6.73750000000000e+00 2.54749879378649e-02 3.14096934648609e-04
6.76250000000000e+00 2.52997091485615e-02 3.12514011439525e-04
6.78750000000000e+00 2.51256363521344e-02 3.10936940727542e-04
6.81250000000000e+00 2.49527612508380e-02 3.09365730022929e-04
6.83750000000000e+00 2.47810756040187e-02 3.07800386272425e-04
6.86250000000000e+00 2.46105712277221e-02 3.06240915869598e-04
6.88750000000000e+00 2.44412399943027e-02 3.04687324664986e-04
6.91250000000000e+00 2.42730738320369e-02 3.03139617976082e-04
6.93750000000000e+00 2.41060647247380e-02 3.01597800597186e-04
6.96250000000000e+00 2.39402047113739e-02 3.00061876809086e-04
6.98750000000000e+00 2.37754858856880e-02 2.98531850388572e-04
7.01250000000000e+00 2.36119003958221e-02 2.97007724617761e-04
7.03750000000000e+00 2.34494404439419e-02 2.95489502293346e-04
7.06250000000000e+00 2.32880982858657e-02 2.93977185735632e-04
7.08750000000000e+00 2.31278662306953e-02 2.92470776797428e-04
7.11250000000000e+00 2.29687366404487e-02 2.90970276872834e-04
7.13750000000000e+00 2.28107019296968e-02 2.89475686905874e-04
7.16250000000000e+00 2.26537545652014e-02 2.87987007398958e-04
7.18750000000000e+00 2.24978870655562e-02 2.86504238421216e-04
7.21250000000000e+00 2.23430920008302e-02 2.85027379616699e-04
7.23750000000000e+00 2.21893619922133e-02 2.83556430212487e-04
7.26250000000000e+00 2.20366897116652e-02 2.82091389026631e-04
7.28750000000000e+00 2.18850678815651e-02 2.80632254475950e-04
7.31250000000000e+00 2.17344892743657e-02 2.79179024583729e-04
7.33750000000000e+00 2.15849467122482e-02 2.77731696987277e-04
7.36250000000000e+00 2.14364330667803e-02 2.76290268945376e-04
7.38750000000000e+00 2.12889412585763e-02 2.74854737345623e-04
7.41250000000000e+00 2.11424642569598e-02 2.73425098711621e-04
7.43750000000000e+00 2.09969950796282e-02 2.72001349210064e-04
7.46250000000000e+00 2.08525267923205e-02 2.70583484657718e-04
7.48750000000000e+00 2.07090525084860e-02 2.69171500528290e-04
7.51250000000000e+00 2.05665653889567e-02 2.67765391959184e-04
7.53750000000000e+00 2.04250586416209e-02 2.66365153758148e-04
7.56250000000000e+00 2.02845255210994e-02 2.64970780409782e-04
7.58750000000000e+00 2.01449593284242e-02 2.63582266082036e-04
7.61250000000000e+00 2.00063534107191e-02 2.62199604632477e-04
7.63750000000000e+00 1.98687011608824e-02 2.60822789614535e-04
7.66250000000000e+00 1.97319960172723e-02 2.59451814283678e-04
7.68750000000000e+00 1.95962314633936e-02 2.58086671603393e-04
7.71250000000000e+00 1.94614010275876e-02 2.56727354251130e-04
7.73750000000000e+00 1.93274982827233e-02 2.55373854624163e-04
7.76250000000000e+00 1.91945168458910e-02 2.54026164845340e-04
7.78750000000000e+00 1.90624503780984e-02 2.52684276768694e-04
7.81250000000000e+00 1.89312925839679e-02 2.51348181985071e-04
7.83750000000000e+00 1.88010372114369e-02 2.50017871827564e-04
7.86250000000000e+00 1.86716780514597e-02 2.48693337376892e-04
7.88750000000000e+00 1.85432089377115e-02 2.47374569466751e-04
