Energy (eV)          EEDF (eV^-(3/2))     First Anisotropy
1.10638297872340e-04 2.14987925395880e+02 4.43554527560341e-02
3.31914893617021e-04 2.13414652514244e+02 7.32216200459071e-02
5.53191489361702e-04 2.11852892780320e+02 9.66029967786833e-02
7.74468085106383e-04 2.10302561940455e+02 1.14330848423626e-01
9.95744680851064e-04 2.08763576358484e+02 1.29087025192620e-01
1.21702127659574e-03 2.07235853010038e+02 1.41886153653228e-01
1.43829787234043e-03 2.05719309479771e+02 1.53253624891960e-01
1.65957446808511e-03 2.04213863952675e+02 1.63506895977610e-01
1.88085106382979e-03 2.02719435214067e+02 1.72856634224224e-01
2.10212765957447e-03 2.01235942644797e+02 1.81451821261040e-01
2.32340425531915e-03 1.99763306213297e+02 1.89402804873479e-01
2.54468085106383e-03 1.98301446475733e+02 1.96794253995742e-01
2.76595744680851e-03 1.96850284567841e+02 2.03692970908496e-01
2.98723404255319e-03 1.95409742204083e+02 2.10152867015194e-01
3.20851063829787e-03 1.93979741670378e+02 2.16218272737275e-01
3.42978723404255e-03 1.92560205822060e+02 2.21926220455902e-01
3.65106382978723e-03 1.91151058079605e+02 2.27308065162348e-01
3.87234042553192e-03 1.89752222422698e+02 2.32390666306596e-01
4.09361702127660e-03 1.88363623388439e+02 2.37197267593784e-01
4.31489361702128e-03 1.86985186065149e+02 2.41748164651477e-01
4.53617021276596e-03 1.85616836090290e+02 2.46061220453388e-01
4.75744680851064e-03 1.84258499644628e+02 2.50152268769584e-01
4.97872340425532e-03 1.82910103449574e+02 2.54035434897229e-01
5.20000000000000e-03 1.81571574763175e+02 2.57723392304913e-01
5.42127659574468e-03 1.80242841375025e+02 2.61227571750525e-01
5.64255319148936e-03 1.78923831603882e+02 2.64558332340969e-01
5.86382978723404e-03 1.77614474292377e+02 2.67725102872818e-01
6.08510638297872e-03 1.76314698804210e+02 2.70736500124620e-01
6.30638297872340e-03 1.75024435020299e+02 2.73600427390114e-01
6.52765957446809e-03 1.73743613334080e+02 2.76324158530929e-01
6.74893617021277e-03 1.72472164648948e+02 2.78914409194228e-01
6.97021276595745e-03 1.71210020373391e+02 2.81377397776268e-01
7.19148936170213e-03 1.69957112418376e+02 2.83718897966793e-01
7.41276595744681e-03 1.68713373192636e+02 2.85944284074507e-01
7.63404255319149e-03 1.67478735599788e+02 2.88058570818212e-01
7.85531914893617e-03 1.66253133034687e+02 2.90066447390704e-01
8.07659574468085e-03 1.65036499379141e+02 2.91972307964850e-01
8.29787234042553e-03 1.63828768999252e+02 2.93780278274858e-01
8.51914893617021e-03 1.62629876741000e+02 2.95494239120635e-01
8.74042553191489e-03 1.61439757927571e+02 2.97117847262372e-01
8.96170212765958e-03 1.60258348355060e+02 2.98654553909396e-01
9.18297872340426e-03 1.59085584289598e+02 3.00107621553708e-01
9.40425531914894e-03 1.57921402463902e+02 3.01480138451740e-01
9.62553191489362e-03 1.56765740073311e+02 3.02775032184389e-01
9.84680851063830e-03 1.55618534773118e+02 3.03995081617604e-01
1.00680851063830e-02 1.54479724674512e+02 3.05142927719177e-01
1.02893617021277e-02 1.53349248341910e+02 3.06221083383672e-01
1.05106382978723e-02 1.52227044788997e+02 3.07231942259976e-01
1.07319148936170e-02 1.51113053475908e+02 3.08177787010066e-01
1.09531914893617e-02 1.50007214305811e+02 3.09060796515640e-01
1.11744680851064e-02 1.48909467621659e+02 3.09883052661074e-01
1.13957446808511e-02 1.47819754202972e+02 3.10646546491500e-01
1.16170212765957e-02 1.46738015262645e+02 3.11353183856918e-01
1.18382978723404e-02 1.45664192443771e+02 3.12004790595489e-01
1.20595744680851e-02 1.44598227816500e+02 3.12603117301951e-01
1.22808510638298e-02 1.43540063874907e+02 3.13149843721856e-01
1.25021276595745e-02 1.42489643533896e+02 3.13646582807633e-01
1.27234042553192e-02 1.41446910126114e+02 3.14094884468314e-01
1.29446808510638e-02 1.40411807398899e+02 3.14496239471602e-01
1.31659574468085e-02 1.39384279512356e+02 3.14852081371970e-01
1.33872340425532e-02 1.38364271032975e+02 3.15163790352721e-01
1.36085106382979e-02 1.37351726934041e+02 3.15432696892466e-01
1.38297872340426e-02 1.36346592591525e+02 3.15660083034377e-01
1.40510638297872e-02 1.35348813781135e+02 3.15847185238554e-01
1.42723404255319e-02 1.34358336675387e+02 3.15995196633775e-01
1.44936170212766e-02 1.33375107840706e+02 3.16105269121799e-01
1.47148936170213e-02 1.32399074234543e+02 3.16178515346207e-01
1.49361702127660e-02 1.31430183202509e+02 3.16216010536369e-01
1.51574468085106e-02 1.30468382475540e+02 3.16218794236481e-01
1.53787234042553e-02 1.29513620167075e+02 3.16187871928550e-01
1.56000000000000e-02 1.28565844770254e+02 3.16124216557133e-01
1.58212765957447e-02 1.27625005155145e+02 3.16028769963760e-01
1.60425531914894e-02 1.26691050565981e+02 3.15902444237484e-01
1.62638297872340e-02 1.25763930618422e+02 3.15746122986898e-01
1.64851063829787e-02 1.24843595296843e+02 3.15560662540083e-01
1.67063829787234e-02 1.23929994951628e+02 3.15346893077577e-01
1.69276595744681e-02 1.23023080296495e+02 3.15105619702813e-01
1.71489361702128e-02 1.22122802405838e+02 3.14837623454269e-01
1.73702127659574e-02 1.21229112712086e+02 3.14543662263299e-01
1.75914893617021e-02 1.20341963003084e+02 3.14224471861389e-01
1.78127659574468e-02 1.19461305419491e+02 3.13880766640112e-01
1.80340425531915e-02 1.18587092452198e+02 3.13513240466845e-01
1.82553191489362e-02 1.17719276939767e+02 3.13122567764181e-01
1.84765957446809e-02 1.16857812066548e+02 3.12709403328734e-01
1.86978723404255e-02 1.16002651358148e+02 3.12274383641143e-01
1.89191489361702e-02 1.15153748680946e+02 3.11818128149209e-01
1.91404255319149e-02 1.14311058238926e+02 3.11341238974728e-01
1.93617021276596e-02 1.13474534571206e+02 3.10844301825923e-01
1.95829787234043e-02 1.12644132549582e+02 3.10327886572248e-01
1.98042553191489e-02 1.11819807376100e+02 3.09792547792622e-01
2.00255319148936e-02 1.11001514580633e+02 3.09238825298498e-01
2.02468085106383e-02 1.10189210018485e+02 3.08667244633346e-01
2.04680851063830e-02 1.09382849868010e+02 3.08078317549881e-01
2.06893617021277e-02 1.08582390628246e+02 3.07472542466170e-01
2.09106382978723e-02 1.07787789116570e+02 3.06850404901745e-01
2.11319148936170e-02 1.06999002466367e+02 3.06212377895453e-01
2.13531914893617e-02 1.06215988124718e+02 3.05558922405141e-01
2.15744680851064e-02 1.05438703850106e+02 3.04890487690191e-01
2.17957446808511e-02 1.04667107710133e+02 3.04207511678683e-01
2.20170212765957e-02 1.03901158079263e+02 3.03510421319270e-01
2.22382978723404e-02 1.03140813636572e+02 3.02799632918746e-01
2.24595744680851e-02 1.02386033363524e+02 3.02075552466025e-01
2.26808510638298e-02 1.01636776541751e+02 3.01338575943240e-01
2.29021276595745e-02 1.00893002750863e+02 3.00589089624617e-01
2.31234042553192e-02 1.00154671866264e+02 2.99827470363681e-01
2.33446808510638e-02 9.94217440569874e+01 2.99054086097680e-01
2.35659574468085e-02 9.86941797839881e+01 2.98269295426786e-01
2.37872340425532e-02 9.79719397966806e+01 2.97473448329079e-01
2.40085106382979e-02 9.72549851321597e+01 2.96666886864606e-01
2.42297872340426e-02 9.65432771126493e+01 2.95849944722729e-01
2.44510638297872e-02 9.58367773434155e+01 2.95022947680904e-01
2.46723404255319e-02 9.51354477106956e+01 2.94186213824684e-01
2.48936170212766e-02 9.44392503796416e+01 2.93340053759891e-01
2.51148936170213e-02 9.37481477922799e+01 2.92484770817284e-01
2.53361702127660e-02 9.30621026654839e+01 2.91620661249938e-01
2.55574468085106e-02 9.23810779889639e+01 2.90748014423806e-01
2.57787234042553e-02 9.17050370232698e+01 2.89867113001696e-01
2.60000000000000e-02 9.10339432978092e+01 2.88978233120899e-01
2.62212765957447e-02 9.03677606088800e+01 2.88081644564947e-01
2.64425531914894e-02 8.97064530177174e+01 2.87177610929619e-01
2.66638297872340e-02 8.90499848485549e+01 2.86266389783264e-01
2.68851063829787e-02 8.83983206867000e+01 2.85348232821850e-01
2.71063829787234e-02 8.77514253766233e+01 2.84423386019082e-01
2.73276595744681e-02 8.71092640200621e+01 2.83492089771598e-01
2.75489361702128e-02 8.64718019741379e+01 2.82554579039524e-01
2.77702127659574e-02 8.58390048494873e+01 2.81611083482569e-01
2.79914893617021e-02 8.52108385084068e+01 2.80661827591794e-01
2.82127659574468e-02 8.45872690630111e+01 2.79707030817310e-01
2.84340425531915e-02 8.39682628734055e+01 2.78746907692005e-01
2.86553191489362e-02 8.33537865458702e+01 2.77781668124452e-01
2.88765957446809e-02 8.27438069313593e+01 2.76811516994635e-01
2.90978723404255e-02 8.21382911228062e+01 2.75836654616088e-01
2.93191489361702e-02 8.15372064542611e+01 2.74857277190269e-01
2.95404255319149e-02 8.09405204988224e+01 2.73873576391633e-01
2.97617021276596e-02 8.03482010668871e+01 2.72885739644805e-01
2.99829787234043e-02 7.97602162044145e+01 2.71893950224570e-01
3.02042553191489e-02 7.91765341912021e+01 2.70898387352917e-01
3.04255319148936e-02 7.85971235391747e+01 2.69899226293329e-01
3.06468085106383e-02 7.80219529906854e+01 2.68896638442354e-01
3.08680851063830e-02 7.74509915168297e+01 2.67890791418605e-01
3.10893617021277e-02 7.68842083157712e+01 2.66881849149220e-01
3.13106382978723e-02 7.63215728110800e+01 2.65869971953824e-01
3.15319148936170e-02 7.57630546500832e+01 2.64855316626406e-01
3.17531914893617e-02 7.52086237022278e+01 2.63838036514808e-01
3.19744680851064e-02 7.46582500574547e+01 2.62818281597848e-01
3.21957446808511e-02 7.41119040245856e+01 2.61796198560583e-01
3.24170212765958e-02 7.35695561297208e+01 2.60771930867508e-01
3.26382978723404e-02 7.30311771146496e+01 2.59745618833749e-01
3.28595744680851e-02 7.24967379352716e+01 2.58717399694355e-01
3.30808510638298e-02 7.19662097600299e+01 2.57687407671787e-01
3.33021276595745e-02 7.14395639683559e+01 2.56655774041679e-01
3.35234042553192e-02 7.09167721491250e+01 2.55622627196768e-01
3.37446808510638e-02 7.03978060991241e+01 2.54588092843991e-01
3.39659574468085e-02 6.98826378217451e+01 2.53552293659718e-01
3.41872340425532e-02 6.93712395248250e+01 2.52515349621672e-01
3.44085106382979e-02 6.88635836198006e+01 2.51477378334127e-01
3.46297872340426e-02 6.83596427200006e+01 2.50438494679244e-01
3.48510638297872e-02 6.78593896391685e+01 2.49398811007288e-01
3.50723404255319e-02 6.73627973899954e+01 2.48358437190083e-01
3.52936170212766e-02 6.68698391826648e+01 2.47317480673168e-01
3.55148936170213e-02 6.63804884234065e+01 2.46276046526560e-01
3.57361702127660e-02 6.58947187130629e+01 2.45234237494403e-01
3.59574468085106e-02 6.54125038456640e+01 2.44192154043361e-01
3.61787234042553e-02 6.49338178070143e+01 2.43149894409841e-01
3.64000000000000e-02 6.44586347732888e+01 2.42107554646032e-01
3.66212765957447e-02 6.39869291096404e+01 2.41065228664911e-01
3.68425531914894e-02 6.35186753688167e+01 2.40023008284225e-01
3.70638297872340e-02 6.30538482897873e+01 2.38980983269286e-01
3.72851063829787e-02 6.25924227963809e+01 2.37939241374854e-01
3.75063829787234e-02 6.21343739959327e+01 2.36897868386019e-01
3.77276595744681e-02 6.16796771779414e+01 2.35856948158152e-01
3.79489361702128e-02 6.12283078127361e+01 2.34816562655926e-01
3.81702127659575e-02 6.07802415501531e+01 2.33776791991428e-01
3.83914893617021e-02 6.03354542182220e+01 2.32737714461386e-01
3.86127659574468e-02 5.98939218218620e+01 2.31699406583572e-01
3.88340425531915e-02 5.94556205415875e+01 2.30661943132389e-01
3.90553191489362e-02 5.90205267322226e+01 2.29625397278739e-01
3.92765957446809e-02 5.85886169217821e+01 2.28589840307608e-01
3.94978723404255e-02 5.81598678097338e+01 2.27555341864431e-01
3.97191489361702e-02 5.77342562662156e+01 2.26521970195585e-01
3.99404255319149e-02 5.73117593306292e+01 2.25489791864851e-01
4.01617021276596e-02 5.68923542104007e+01 2.24458871889994e-01
4.03829787234043e-02 5.64760182797515e+01 2.23429273773146e-01
4.06042553191489e-02 5.60627290784774e+01 2.22401059530540e-01
4.08255319148936e-02 5.56524643107370e+01 2.21374289721594e-01
4.10468085106383e-02 5.52452018438491e+01 2.20349023477370e-01
4.12680851063830e-02 5.48409197070986e+01 2.19325318528457e-01
4.14893617021277e-02 5.44395960905510e+01 2.18303231232216e-01
4.17106382978723e-02 5.40412093438762e+01 2.17282816599403e-01
4.19319148936170e-02 5.36457379751802e+01 2.16264128320349e-01
4.21531914893617e-02 5.32531606498457e+01 2.15247218790546e-01
4.23744680851064e-02 5.28634561893816e+01 2.14232139135589e-01
4.25957446808511e-02 5.24766035702798e+01 2.13218939235684e-01
4.28170212765958e-02 5.20925819228816e+01 2.12207667749671e-01
4.30382978723404e-02 5.17113705302515e+01 2.11198372138497e-01
4.32595744680851e-02 5.13329488270596e+01 2.10191098688220e-01
4.34808510638298e-02 5.09572963984725e+01 2.09185892532541e-01
4.37021276595745e-02 5.05843929790515e+01 2.08182797674877e-01
4.39234042553192e-02 5.02142184516596e+01 2.07181857009967e-01
4.41446808510638e-02 4.98467528463762e+01 2.06183112428585e-01
4.43659574468085e-02 4.94819763395364e+01 2.05186604586812e-01
4.45872340425532e-02 4.91198692523095e+01 2.04192373095929e-01
4.48085106382979e-02 4.87604120499915e+01 2.03200456707242e-01
4.50297872340426e-02 4.84035853408328e+01 2.02210893081361e-01
4.52510638297872e-02 4.80493698749917e+01 2.01223718891062e-01
4.54723404255319e-02 4.76977465434962e+01 2.00238969840014e-01
4.56936170212766e-02 4.73486963772127e+01 1.99256680681168e-01
4.59148936170213e-02 4.70022005458232e+01 1.98276885234771e-01
4.61361702127660e-02 4.66582403568091e+01 1.97299616406015e-01
4.63574468085106e-02 4.63167972544428e+01 1.96324906202370e-01
4.65787234042553e-02 4.59778528187870e+01 1.95352785750558e-01
4.68000000000000e-02 4.56413887647006e+01 1.94383285313155e-01
4.70212765957447e-02 4.53073869408522e+01 1.93416434304938e-01
4.72425531914894e-02 4.49758293287415e+01 1.92452261308909e-01
4.74638297872340e-02 4.46466980417266e+01 1.91490794091987e-01
4.76851063829787e-02 4.43199753240594e+01 1.90532059620357e-01
4.79063829787234e-02 4.39956435499276e+01 1.89576084074594e-01
4.81276595744681e-02 4.36736852225038e+01 1.88622892864464e-01
4.83489361702128e-02 4.33540829730020e+01 1.87672510643446e-01
4.85702127659575e-02 4.30368195597398e+01 1.86724961322986e-01
4.87914893617021e-02 4.27218778672091e+01 1.85780268086473e-01
4.90127659574468e-02 4.24092409051522e+01 1.84838453402953e-01
4.92340425531915e-02 4.20988918076454e+01 1.83899539040587e-01
4.94553191489362e-02 4.17908138321893e+01 1.82963546146039e-01
4.96765957446809e-02 4.14849903588926e+01 1.82030495058095e-01
4.98978723404255e-02 4.11814048893120e+01 1.81100405454914e-01
5.01191489361702e-02 4.08800410458276e+01 1.80173296496934e-01
5.03404255319149e-02 4.05808825706704e+01 1.79249186641010e-01
5.05617021276596e-02 4.02839133250447e+01 1.78328093718693e-01
5.07829787234043e-02 3.99891172882581e+01 1.77410034948030e-01
5.10042553191489e-02 3.96964785568569e+01 1.76495026945141e-01
5.12255319148936e-02 3.94059813437684e+01 1.75583085735562e-01
5.14468085106383e-02 3.91176099774487e+01 1.74674226765425e-01
5.16680851063830e-02 3.88313489010379e+01 1.73768464912398e-01
5.18893617021277e-02 3.85471826715204e+01 1.72865814496406e-01
5.21106382978723e-02 3.82650959588923e+01 1.71966289290200e-01
5.23319148936170e-02 3.79850735453335e+01 1.71069902529739e-01
5.25531914893617e-02 3.77071003243877e+01 1.70176666924340e-01
5.27744680851064e-02 3.74311613001468e+01 1.69286594666648e-01
5.29957446808511e-02 3.71572415864424e+01 1.68399697442448e-01
5.32170212765957e-02 3.68853264060422e+01 1.67515986440318e-01
5.34382978723404e-02 3.66154010898532e+01 1.66635472361055e-01
5.36595744680851e-02 3.63474510761303e+01 1.65758165426955e-01
5.38808510638298e-02 3.60814619096905e+01 1.64884075390947e-01
5.41021276595745e-02 3.58174192411333e+01 1.64013211545563e-01
5.43234042553192e-02 3.55553088260667e+01 1.63145582731705e-01
5.45446808510638e-02 3.52951165243382e+01 1.62281197400523e-01
5.47659574468085e-02 3.50368282993396e+01 1.61420063461567e-01
5.49872340425532e-02 3.47804302170473e+01 1.60562188399409e-01
5.52085106382979e-02 3.45259084454742e+01 1.59707579386598e-01
5.54297872340426e-02 3.42732492538549e+01 1.58856243132439e-01
5.56510638297872e-02 3.40224390119051e+01 1.58008185944207e-01
5.58723404255319e-02 3.37734641890867e+01 1.57163413734871e-01
5.60936170212766e-02 3.35263113538771e+01 1.56321932030723e-01
5.63148936170213e-02 3.32809671730455e+01 1.55483745978886e-01
5.65361702127660e-02 3.30374184109327e+01 1.54648860354655e-01
5.67574468085106e-02 3.27956519287378e+01 1.53817279568711e-01
5.69787234042553e-02 3.25556546838090e+01 1.52989007674229e-01
5.72000000000000e-02 3.23174137289402e+01 1.52164048373871e-01
5.74212765957447e-02 3.20809162116721e+01 1.51342405026612e-01
5.76425531914894e-02 3.18461493735996e+01 1.50524080654489e-01
5.78638297872340e-02 3.16131005496829e+01 1.49709077949219e-01
5.80851063829787e-02 3.13817571675643e+01 1.48897399278695e-01
5.83063829787234e-02 3.11521067468903e+01 1.48089046693369e-01
5.85276595744681e-02 3.09241368986382e+01 1.47284021932528e-01
5.87489361702128e-02 3.06978353244473e+01 1.46482326430479e-01
5.89702127659575e-02 3.04731898159562e+01 1.45683961322600e-01
5.91914893617021e-02 3.02501882541436e+01 1.44888927451290e-01
5.94127659574468e-02 3.00288186086746e+01 1.44097225371832e-01
5.96340425531915e-02 2.98090689372520e+01 1.43308855358138e-01
5.98553191489362e-02 2.95909273849718e+01 1.42523817451039e-01
6.00765957446809e-02 2.93743821837346e+01 1.41742111335447e-01
6.02978723404255e-02 2.91594216514571e+01 1.40963736432577e-01
6.05191489361702e-02 2.89460341915963e+01 1.40188691989082e-01
6.07404255319149e-02 2.87342082924724e+01 1.39416976954926e-01
6.09617021276596e-02 2.85239325266477e+01 1.38648590031199e-01
6.11829787234043e-02 2.83151955503097e+01 1.37883529675214e-01
6.14042553191489e-02 2.81079861026599e+01 1.37121794105514e-01
6.16255319148936e-02 2.79022930053055e+01 1.36363381306799e-01
6.18468085106383e-02 2.76981051616569e+01 1.35608289034750e-01
6.20680851063830e-02 2.74954115563288e+01 1.34856514820797e-01
6.22893617021277e-02 2.72942012545461e+01 1.34108055976790e-01
6.25106382978723e-02 2.70944634015539e+01 1.33362909599589e-01
6.27319148936170e-02 2.68961872220320e+01 1.32621072575586e-01
6.29531914893617e-02 2.66993620195135e+01 1.31882541585149e-01
6.31744680851064e-02 2.65039771758078e+01 1.31147313106969e-01
6.33957446808511e-02 2.63100221504278e+01 1.30415383422351e-01
6.36170212765958e-02 2.61174864800214e+01 1.29686748619433e-01
6.38382978723404e-02 2.59263597778066e+01 1.28961404597339e-01
6.40595744680851e-02 2.57366317330117e+01 1.28239347070242e-01
6.42808510638298e-02 2.55482921103187e+01 1.27520571571371e-01
6.45021276595745e-02 2.53613307493112e+01 1.26805073456945e-01
6.47234042553192e-02 2.51757375639264e+01 1.26092847910047e-01
6.49446808510638e-02 2.49915025419109e+01 1.25383889978999e-01
6.51659574468085e-02 2.48086157443202e+01 1.24678194476963e-01
6.53872340425532e-02 2.46270673048628e+01 1.23975756056026e-01
6.56085106382979e-02 2.44468474294883e+01 1.23276569278672e-01
6.58297872340426e-02 2.42679463958191e+01 1.22580628518068e-01
6.60510638297872e-02 2.40903545526252e+01 1.21887927996118e-01
6.62723404255319e-02 2.39140623193042e+01 1.21198461786895e-01
6.64936170212766e-02 2.37390601853639e+01 1.20512223820015e-01
6.67148936170213e-02 2.35653387099097e+01 1.19829207883942e-01
6.69361702127660e-02 2.33928885211350e+01 1.19149407629277e-01
6.71574468085106e-02 2.32217003158156e+01 1.18472816571936e-01
6.73787234042553e-02 2.30517648588081e+01 1.17799428096313e-01
6.76000000000000e-02 2.28830729825513e+01 1.17129235458373e-01
6.78212765957447e-02 2.27156155865722e+01 1.16462231788694e-01
6.80425531914894e-02 2.25493836369942e+01 1.15798410095478e-01
6.82638297872341e-02 2.23843681660505e+01 1.15137763267479e-01
6.84851063829787e-02 2.22205602716002e+01 1.14480284076891e-01
6.87063829787234e-02 2.20579511166476e+01 1.13825965182196e-01
6.89276595744681e-02 2.18965319288659e+01 1.13174799130968e-01
6.91489361702128e-02 2.17362940001239e+01 1.12526778362618e-01
6.93702127659575e-02 2.15772286860162e+01 1.11881895211076e-01
6.95914893617021e-02 2.14193274053965e+01 1.11240141907461e-01
6.98127659574468e-02 2.12625816399153e+01 1.10601510582702e-01
