Energy (eV)          EEDF (eV^-(3/2))     First Anisotropy
1.20192307692308e-02 1.63214143839578e-01 8.47135069607013e-05
3.60576923076923e-02 1.62134209634161e-01 1.39893583015451e-04
6.00961538461538e-02 1.61061420995594e-01 1.84695265105908e-04
8.41346153846154e-02 1.59995730646942e-01 2.18743568078439e-04
1.08173076923077e-01 1.58937091619344e-01 2.47150311096470e-04
1.32211538461538e-01 1.57885457254817e-01 2.71847464589280e-04
1.56250000000000e-01 1.56840781212953e-01 2.93834461427997e-04
1.80288461538462e-01 1.55803017445157e-01 3.13714614379750e-04
2.04326923076923e-01 1.54772120221316e-01 3.31887909710984e-04
2.28365384615385e-01 1.53748044102415e-01 3.48636950151642e-04
2.52403846153846e-01 1.52730743960020e-01 3.64170859379567e-04
2.76442307692308e-01 1.51720174955628e-01 3.78649947739158e-04
3.00480769230769e-01 1.50716292555139e-01 3.92200581016933e-04
3.24519230769231e-01 1.49719052512191e-01 4.04924647205446e-04
3.48557692307692e-01 1.48728410876571e-01 4.16905850639110e-04
3.72596153846154e-01 1.47744323991830e-01 4.28214053036928e-04
3.96634615384615e-01 1.46766748484510e-01 4.38908353737610e-04
4.20673076923077e-01 1.45795641273548e-01 4.49039334347877e-04
4.44711538461538e-01 1.44830959557940e-01 4.58650729725057e-04
4.68750000000000e-01 1.43872660824527e-01 4.67780695546371e-04
4.92788461538462e-01 1.42920702837118e-01 4.76462786359709e-04
5.16826923076923e-01 1.41975043643037e-01 4.84726721145305e-04
5.40865384615385e-01 1.41035641563394e-01 4.92598990790307e-04
5.64903846153846e-01 1.40102455198657e-01 5.00103345578544e-04
5.88942307692308e-01 1.39175443419838e-01 5.07261190850828e-04
6.12980769230769e-01 1.38254565373291e-01 5.14091911019582e-04
6.37019230769231e-01 1.37339780472645e-01 5.20613137691519e-04
6.61057692307692e-01 1.36431048401584e-01 5.26840972012330e-04
6.85096153846154e-01 1.35528329111944e-01 5.32790173253899e-04
7.09134615384615e-01 1.34631582817772e-01 5.38474316392825e-04
7.33173076923077e-01 1.33740769999014e-01 5.43905926978423e-04
7.57211538461539e-01 1.32855851394577e-01 5.49096596455592e-04
7.81250000000000e-01 1.31976788005569e-01 5.54057081289351e-04
8.05288461538462e-01 1.31103541088819e-01 5.58797388780355e-04
8.29326923076923e-01 1.30236072159733e-01 5.63326851546643e-04
8.53365384615385e-01 1.29374342986223e-01 5.67654192621260e-04
8.77403846153846e-01 1.28518315591220e-01 5.71787582433931e-04
9.01442307692308e-01 1.27667952246963e-01 5.75734689035608e-04
9.25480769230769e-01 1.26823215477228e-01 5.79502722391068e-04
9.49519230769231e-01 1.25984068051921e-01 5.83098473863744e-04
9.73557692307692e-01 1.25150472988203e-01 5.86528350542487e-04
9.97596153846154e-01 1.24322393548797e-01 5.89798406646320e-04
1.02163461538462e+00 1.23499793241761e-01 5.92914374237358e-04
1.04567307692308e+00 1.22682635803171e-01 5.95881682870271e-04
1.06971153846154e+00 1.21870885227356e-01 5.98705484018769e-04
1.09375000000000e+00 1.21064505738815e-01 6.01390675726677e-04
1.11778846153846e+00 1.20263461798747e-01 6.03941916238872e-04
1.14182692307692e+00 1.19467718103507e-01 6.06363642146582e-04
1.16586538461538e+00 1.18677239583063e-01 6.08660084825593e-04
1.18990384615385e+00 1.17891991392848e-01 6.10835280433423e-04
1.21394230769231e+00 1.17111938932233e-01 6.12893085093110e-04
1.23798076923077e+00 1.16337047822732e-01 6.14837188996683e-04
1.26201923076923e+00 1.15567283913333e-01 6.16671123065507e-04
1.28605769230769e+00 1.14802613278967e-01 6.18398269951729e-04
1.31009615384615e+00 1.14043002219066e-01 6.20021872954655e-04
1.33413461538462e+00 1.13288417256051e-01 6.21545045368483e-04
1.35817307692308e+00 1.12538825128362e-01 6.22970774649846e-04
1.38221153846154e+00 1.11794192805662e-01 6.24301931712442e-04
1.40625000000000e+00 1.11054487470514e-01 6.25541279701391e-04
1.43028846153846e+00 1.10319676522616e-01 6.26691476516065e-04
1.45432692307692e+00 1.09589727577373e-01 6.27755081548506e-04
1.47836538461538e+00 1.08864608464482e-01 6.28734561896049e-04
1.50240384615385e+00 1.08144287221721e-01 6.29632294069002e-04
1.52644230769231e+00 1.07428732108038e-01 6.30450570575400e-04
1.55048076923077e+00 1.06717911587493e-01 6.31191606209406e-04
1.57451923076923e+00 1.06011794332810e-01 6.31857538785605e-04
1.59855769230769e+00 1.05310349223983e-01 6.32450433860343e-04
1.62259615384615e+00 1.04613545346934e-01 6.32972288156974e-04
1.64663461538462e+00 1.03921351992136e-01 6.33425033712511e-04
1.67067307692308e+00 1.03233738649162e-01 6.33810538073626e-04
1.69471153846154e+00 1.02550675017750e-01 6.34130609016575e-04
1.71875000000000e+00 1.01872130993932e-01 6.34386999103425e-04
1.74278846153846e+00 1.01198076672921e-01 6.34581405309941e-04
1.76682692307692e+00 1.00528482347803e-01 6.34715472343793e-04
1.79086538461538e+00 9.98633185082328e-02 6.34790795726743e-04
1.81490384615385e+00 9.92025558355001e-02 6.34808921296240e-04
1.83894230769231e+00 9.85461652122206e-02 6.34771348927899e-04
1.86298076923077e+00 9.78941177099611e-02 6.34679536156853e-04
1.88701923076923e+00 9.72463845916993e-02 6.34534897298819e-04
1.91105769230769e+00 9.66029373105473e-02 6.34338806009924e-04
1.93509615384615e+00 9.59637475085139e-02 6.34092596873251e-04
1.95913461538462e+00 9.53287870152442e-02 6.33797567690558e-04
1.98317307692308e+00 9.46980278436177e-02 6.33454978541284e-04
2.00721153846154e+00 9.40714421980841e-02 6.33066054727280e-04
2.03125000000000e+00 9.34490024637777e-02 6.32631989657732e-04
2.05528846153846e+00 9.28306812085485e-02 6.32153943657091e-04
2.07932692307692e+00 9.22164511817568e-02 6.31633045938601e-04
2.10336538461538e+00 9.16062853130761e-02 6.31070396442087e-04
2.12740384615385e+00 9.10001567084623e-02 6.30467064693985e-04
2.15144230769231e+00 9.03980386575460e-02 6.29824092289048e-04
2.17548076923077e+00 8.97999046237990e-02 6.29142495333615e-04
2.19951923076923e+00 8.92057282462773e-02 6.28423263121197e-04
2.22355769230769e+00 8.86154833384524e-02 6.27667359756905e-04
2.24759615384615e+00 8.80291438870708e-02 6.26875724993337e-04
2.27163461538462e+00 8.74466840510009e-02 6.26049275700573e-04
2.29567307692308e+00 8.68680781575908e-02 6.25188904613106e-04
2.31971153846154e+00 8.62933007091106e-02 6.24295482415076e-04
2.34375000000000e+00 8.57223263739885e-02 6.23369859802436e-04
2.36778846153846e+00 8.51551299882610e-02 6.22412866096035e-04
2.39182692307692e+00 8.45916865544667e-02 6.21425310573837e-04
2.41586538461538e+00 8.40319712405478e-02 6.20407983711612e-04
2.43990384615385e+00 8.34759593764871e-02 6.19361655894707e-04
2.46394230769231e+00 8.29236264600735e-02 6.18287079247584e-04
2.48798076923077e+00 8.23749481489111e-02 6.17184989449139e-04
2.51201923076923e+00 8.18299002616698e-02 6.16056104338760e-04
2.53605769230769e+00 8.12884587770154e-02 6.14901125061142e-04
2.56009615384615e+00 8.07505998325601e-02 6.13720736550258e-04
2.58413461538462e+00 8.02162997238058e-02 6.12515608571618e-04
2.60817307692308e+00 7.96855349010798e-02 6.11286394434939e-04
2.63221153846154e+00 7.91582819746060e-02 6.10033732589073e-04
2.65625000000000e+00 7.86345177073142e-02 6.08758248209221e-04
2.68028846153846e+00 7.81142190158845e-02 6.07460551827241e-04
2.70432692307692e+00 7.75973629697323e-02 6.06141240309844e-04
2.72836538461538e+00 7.70839267899994e-02 6.04800897769196e-04
2.75240384615385e+00 7.65738878467070e-02 6.03440094298492e-04
2.77644230769231e+00 7.60672236633254e-02 6.02059387406616e-04
2.80048076923077e+00 7.55639119101716e-02 6.00659323448849e-04
2.82451923076923e+00 7.50639304053107e-02 5.99240436294091e-04
2.84855769230769e+00 7.45672571135758e-02 5.97803248189919e-04
2.87259615384615e+00 7.40738701456026e-02 5.96348270063298e-04
2.89663461538462e+00 7.35837477568621e-02 5.94876002310967e-04
2.92067307692308e+00 7.30968683450477e-02 5.93386933576961e-04
2.94471153846154e+00 7.26132104541242e-02 5.91881542032258e-04
2.96875000000000e+00 7.21327527683417e-02 5.90360296653435e-04
2.99278846153846e+00 7.16554741129885e-02 5.88823655943947e-04
3.01682692307692e+00 7.11813534534592e-02 5.87272068693645e-04
3.04086538461538e+00 7.07103698943293e-02 5.85705974685382e-04
3.06490384615385e+00 7.02425026769165e-02 5.84125803515754e-04
3.08894230769231e+00 6.97777311829485e-02 5.82531975764359e-04
3.11298076923077e+00 6.93160349290366e-02 5.80924904163823e-04
3.13701923076923e+00 6.88573935673241e-02 5.79304992371913e-04
3.16105769230769e+00 6.84017868845870e-02 5.77672635656394e-04
3.18509615384615e+00 6.79491948013483e-02 5.76028221092455e-04
3.20913461538462e+00 6.74995973709904e-02 5.74372128189765e-04
3.23317307692308e+00 6.70529747775060e-02 5.72704727768023e-04
3.25721153846154e+00 6.66093073387658e-02 5.71026383015540e-04
3.28125000000000e+00 6.61685755014787e-02 5.69337450549860e-04
3.30528846153846e+00 6.57307598417303e-02 5.67638279251897e-04
3.32932692307692e+00 6.52958410641282e-02 5.65929210878518e-04
3.35336538461538e+00 6.48638000009522e-02 5.64210580631881e-04
3.37740384615385e+00 6.44346176100475e-02 5.62482716083450e-04
3.40144230769231e+00 6.40082749777973e-02 5.60745938151309e-04
3.42548076923077e+00 6.35847533144491e-02 5.59000562080523e-04
3.44951923076923e+00 6.31640339545759e-02 5.57246896330345e-04
3.47355769230769e+00 6.27460983562520e-02 5.55485243133632e-04
3.49759615384615e+00 6.23309281002396e-02 5.53715898632395e-04
3.52163461538462e+00 6.19185048891753e-02 5.51939153390968e-04
3.54567307692308e+00 6.15088105456170e-02 5.50155291376641e-04
3.56971153846154e+00 6.11018270147062e-02 5.48364590853304e-04
3.59375000000000e+00 6.06975363598841e-02 5.46567325278672e-04
3.61778846153846e+00 6.02959207632715e-02 5.44763762252718e-04
3.64182692307692e+00 5.98969625248845e-02 5.42954164024728e-04
3.66586538461539e+00 5.95006440618549e-02 5.41138787964393e-04
3.68990384615385e+00 5.91069479065960e-02 5.39317885590161e-04
3.71394230769231e+00 5.87158567092315e-02 5.37491703400227e-04
3.73798076923077e+00 5.83273532336091e-02 5.35660483707318e-04
3.76201923076923e+00 5.79414203576225e-02 5.33824463638031e-04
3.78605769230769e+00 5.75580410724555e-02 5.31983875600182e-04
3.81009615384615e+00 5.71771984818350e-02 5.30138947379073e-04
3.83413461538462e+00 5.67988758012853e-02 5.28289902566589e-04
3.85817307692308e+00 5.64230563564222e-02 5.26436959643659e-04
3.88221153846154e+00 5.60497235851359e-02 5.24580332745399e-04
3.90625000000000e+00 5.56788610339230e-02 5.22720232430347e-04
3.93028846153846e+00 5.53104523581469e-02 5.20856864737011e-04
3.95432692307692e+00 5.49444813213180e-02 5.18990431611213e-04
3.97836538461539e+00 5.45809317943792e-02 5.17121131303073e-04
4.00240384615385e+00 5.42197877540987e-02 5.15249157494258e-04
4.02644230769231e+00 5.38610332850685e-02 5.13374700012925e-04
4.05048076923077e+00 5.35046525762794e-02 5.11497945552882e-04
4.07451923076923e+00 5.31506299213388e-02 5.09619076777020e-04
4.09855769230769e+00 5.27989497177767e-02 5.07738272713843e-04
4.12259615384615e+00 5.24495964663612e-02 5.05855708827852e-04
4.14663461538462e+00 5.21025547704134e-02 5.03971557383884e-04
4.17067307692308e+00 5.17578093343100e-02 5.02085986624199e-04
4.19471153846154e+00 5.14153449652840e-02 5.00199161430117e-04
4.21875000000000e+00 5.10751465702629e-02 4.98311243987844e-04
4.24278846153846e+00 5.07371991560400e-02 4.96422392944119e-04
4.26682692307692e+00 5.04014878286135e-02 4.94532763771214e-04
4.29086538461539e+00 5.00679977925310e-02 4.92642509105987e-04
4.31490384615385e+00 4.97367143494753e-02 4.90751777967732e-04
4.33894230769231e+00 4.94076228999164e-02 4.88860716378704e-04
4.36298076923077e+00 4.90807089401528e-02 4.86969467988883e-04
4.38701923076923e+00 4.87559580624494e-02 4.85078173273949e-04
4.41105769230769e+00 4.84333559544011e-02 4.83186969875712e-04
4.43509615384615e+00 4.81128883983046e-02 4.81295992654637e-04
4.45913461538462e+00 4.77945412705305e-02 4.79405374002863e-04
4.48317307692308e+00 4.74783005402013e-02 4.77515243107122e-04
4.50721153846154e+00 4.71641522706854e-02 4.75625726525155e-04
4.53125000000000e+00 4.68520826168564e-02 4.73736948766419e-04
4.55528846153846e+00 4.65420778251963e-02 4.71849031536905e-04
4.57932692307692e+00 4.62341242331897e-02 4.69962094053927e-04
4.60336538461539e+00 4.59282082687221e-02 4.68076253338680e-04
4.62740384615385e+00 4.56243164488296e-02 4.66191623515989e-04
4.65144230769231e+00 4.53224353810723e-02 4.64308316356389e-04
4.67548076923077e+00 4.50225517609634e-02 4.62426441822354e-04
4.69951923076923e+00 4.47246523720476e-02 4.60546107351099e-04
4.72355769230769e+00 4.44287240853181e-02 4.58667418149414e-04
4.74759615384615e+00 4.41347538586390e-02 4.56790477233713e-04
4.77163461538462e+00 4.38427287361699e-02 4.54915385701087e-04
4.79567307692308e+00 4.35526358471955e-02 4.53042242069504e-04
4.81971153846154e+00 4.32644624073688e-02 4.51171142782985e-04
4.84375000000000e+00 4.29781957163249e-02 4.49302182720666e-04
4.86778846153846e+00 4.26938231577332e-02 4.47435454521437e-04
4.89182692307692e+00 4.24113321987408e-02 4.45571048857672e-04
4.91586538461539e+00 4.21307103894214e-02 4.43709054689442e-04
4.93990384615385e+00 4.18519453616658e-02 4.41849558637646e-04
4.96394230769231e+00 4.15750248303271e-02 4.39992645460077e-04
4.98798076923077e+00 4.12999365909783e-02 4.38138398531315e-04
5.01201923076923e+00 4.10266685199450e-02 4.36286899201377e-04
5.03605769230769e+00 4.07552085737709e-02 4.34438227052642e-04
5.06009615384615e+00 4.04855447886877e-02 4.32592459930792e-04
5.08413461538462e+00 4.02176652800875e-02 4.30749674181356e-04
5.10817307692308e+00 3.99515582414828e-02 4.28909944058905e-04
5.13221153846154e+00 3.96872119455445e-02 4.27073342171610e-04
5.15625000000000e+00 3.94246147420169e-02 4.25239939929638e-04
5.18028846153846e+00 3.91637550577298e-02 4.23409806940995e-04
5.20432692307692e+00 3.89046213960890e-02 4.21583011250817e-04
5.22836538461539e+00 3.86472023365696e-02 4.19759619563642e-04
5.25240384615385e+00 3.83914865337301e-02 4.17939696682045e-04
5.27644230769231e+00 3.81374627181693e-02 4.16123305926395e-04
5.30048076923077e+00 3.78851196945632e-02 4.14310509558311e-04
5.32451923076923e+00 3.76344463416637e-02 4.12501368206636e-04
5.34855769230769e+00 3.73854316118079e-02 4.10695941092570e-04
5.37259615384615e+00 3.71380645304320e-02 4.08894286054048e-04
5.39663461538462e+00 3.68923341955874e-02 4.07096459752940e-04
5.42067307692308e+00 3.66482297770139e-02 4.05302517145953e-04
5.44471153846154e+00 3.64057405170096e-02 4.03512511877420e-04
5.46875000000000e+00 3.61648557286008e-02 4.01726496675456e-04
5.49278846153846e+00 3.59255647955261e-02 3.99944522811192e-04
5.51682692307692e+00 3.56878571717682e-02 3.98166640308962e-04
5.54086538461539e+00 3.54517223810897e-02 3.96392898141610e-04
5.56490384615385e+00 3.52171500161530e-02 3.94623343727477e-04
5.58894230769231e+00 3.49841297393234e-02 3.92858023301755e-04
5.61298076923077e+00 3.47526512809439e-02 3.91096982291281e-04
5.63701923076923e+00 3.45227044393086e-02 3.89340264800515e-04
5.66105769230769e+00 3.42942790802124e-02 3.87587913809696e-04
5.68509615384615e+00 3.40673651365054e-02 3.85839971194058e-04
5.70913461538462e+00 3.38419526076486e-02 3.84096477906305e-04
5.73317307692308e+00 3.36180315588864e-02 3.82357473502458e-04
5.75721153846154e+00 3.33955921219770e-02 3.80622996489850e-04
5.78125000000000e+00 3.31746244935816e-02 3.78893084678167e-04
5.80528846153846e+00 3.29551189352267e-02 3.77167774695064e-04
5.82932692307692e+00 3.27370657728753e-02 3.75447102171567e-04
5.85336538461539e+00 3.25204553965005e-02 3.73731101914271e-04
5.87740384615385e+00 3.23052782592987e-02 3.72019807454382e-04
5.90144230769231e+00 3.20915248783645e-02 3.70313251377122e-04
5.92548076923077e+00 3.18791858331708e-02 3.68611465654284e-04
5.94951923076923e+00 3.16682517655228e-02 3.66914481183614e-04
5.97355769230769e+00 3.14587133791456e-02 3.65222327963879e-04
5.99759615384615e+00 3.12505614392750e-02 3.63535035110163e-04
6.02163461538462e+00 3.10437867722502e-02 3.61852631015104e-04
6.04567307692308e+00 3.08383802647730e-02 3.60175142923544e-04
6.06971153846154e+00 3.06343328645217e-02 3.58502597241615e-04
6.09375000000000e+00 3.04316355787308e-02 3.56835019848828e-04
6.11778846153846e+00 3.02302794741365e-02 3.55172435663702e-04
6.14182692307692e+00 3.00302556765836e-02 3.53514868807724e-04
6.16586538461539e+00 2.98315553706343e-02 3.51862342757728e-04
6.18990384615385e+00 2.96341697988638e-02 3.50214879941315e-04
6.21394230769231e+00 2.94380902624279e-02 3.48572502029727e-04
6.23798076923077e+00 2.92433081197201e-02 3.46935230233611e-04
6.26201923076923e+00 2.90498147863127e-02 3.45303084889950e-04
6.28605769230769e+00 2.88576017345779e-02 3.43676085617090e-04
6.31009615384615e+00 2.86666604933128e-02 3.42054251327015e-04
6.33413461538462e+00 2.84769826473657e-02 3.40437600368216e-04
6.35817307692308e+00 2.82885598369716e-02 3.38826150143946e-04
6.38221153846154e+00 2.81013837582698e-02 3.37219917387362e-04
6.40625000000000e+00 2.79154461620465e-02 3.35618918439349e-04
6.43028846153846e+00 2.77307388536702e-02 3.34023168858776e-04
6.45432692307692e+00 2.75472536927307e-02 3.32432683567974e-04
6.47836538461539e+00 2.73649825926802e-02 3.30847476987853e-04
6.50240384615385e+00 2.71839175202009e-02 3.29267562674649e-04
6.52644230769231e+00 2.70040504956841e-02 3.27692953580899e-04
6.55048076923077e+00 2.68253735920404e-02 3.26123662318971e-04
6.57451923076923e+00 2.66478789346311e-02 3.24559700790263e-04
6.59855769230769e+00 2.64715587009215e-02 3.23001080322905e-04
6.62259615384615e+00 2.62964051201361e-02 3.21447811681684e-04
6.64663461538462e+00 2.61224104729162e-02 3.19899905194889e-04
6.67067307692308e+00 2.59495670907227e-02 3.18357370411448e-04
6.69471153846154e+00 2.57778673562731e-02 3.16820216346270e-04
6.71875000000000e+00 2.56073037024263e-02 3.15288451728090e-04
6.74278846153846e+00 2.54378686121105e-02 3.13762084649480e-04
6.76682692307692e+00 2.52695546179916e-02 3.12241122696153e-04
6.79086538461539e+00 2.51023543021450e-02 3.10725573067122e-04
6.81490384615385e+00 2.49362602954860e-02 3.09215442248253e-04
6.83894230769231e+00 2.47712652781749e-02 3.07710736245205e-04
6.86298076923077e+00 2.46073619785605e-02 3.06211460818704e-04
6.88701923076923e+00 2.44445431731059e-02 3.04717621151400e-04
6.91105769230769e+00 2.42828016860696e-02 3.03229221970402e-04
6.93509615384615e+00 2.41221303891898e-02 3.01746267555346e-04
6.95913461538462e+00 2.39625222013704e-02 3.00268761851271e-04
6.98317307692308e+00 2.38039700881434e-02 2.98796708160472e-04
7.00721153846154e+00 2.36464670620378e-02 2.97330109361587e-04
7.03125000000000e+00 2.34900061815893e-02 2.95868968130995e-04
7.05528846153846e+00 2.33345805512625e-02 2.94413286628387e-04
7.07932692307692e+00 2.31801833211479e-02 2.92963066611872e-04
7.10336538461539e+00 2.30268076866594e-02 2.91518309544979e-04
7.12740384615385e+00 2.28744468880230e-02 2.90079016303232e-04
7.15144230769231e+00 2.27230942106177e-02 2.88645187382246e-04
7.17548076923077e+00 2.25727429840369e-02 2.87216823108038e-04
7.19951923076923e+00 2.24233865820098e-02 2.85793923337676e-04
7.22355769230769e+00 2.22750184221094e-02 2.84376487568398e-04
7.24759615384615e+00 2.21276319654626e-02 2.82964514944192e-04
7.27163461538462e+00 2.19812207164618e-02 2.81558004356463e-04
7.29567307692308e+00 2.18357782222813e-02 2.80156954166804e-04
7.31971153846154e+00 2.16912980731887e-02 2.78761362403027e-04
7.34375000000000e+00 2.15477739016630e-02 2.77371226957211e-04
7.36778846153846e+00 2.14051993823151e-02 2.75986545302883e-04
7.39182692307692e+00 2.12635682316088e-02 2.74607314597752e-04
7.41586538461539e+00 2.11228742075840e-02 2.73233531779184e-04
7.43990384615385e+00 2.09831111093956e-02 2.71865193300139e-04
7.46394230769231e+00 2.08442727776017e-02 2.70502295315445e-04
7.48798076923077e+00 2.07063530933271e-02 2.69144833870082e-04
7.51201923076923e+00 2.05693459781835e-02 2.67792804629814e-04
7.53605769230769e+00 2.04332453940009e-02 2.66446202978643e-04
7.56009615384615e+00 2.02980453425621e-02 2.65105024024201e-04
7.58413461538462e+00 2.01637398653382e-02 2.63769262687635e-04
