Energy (eV)          EEDF (eV^-(3/2))     First Anisotropy
7.31707317073171e-03 4.91314472520538e-01 2.85996038358258e-04
2.19512195121951e-02 4.87189671361687e-01 4.71864646711626e-04
3.65853658536585e-02 4.83099499713154e-01 6.21866348284575e-04
5.12195121951220e-02 4.79043666860944e-01 7.35187701968828e-04
6.58536585365854e-02 4.75021884505423e-01 8.29174142939819e-04
8.04878048780488e-02 4.71033866785487e-01 9.10398479540114e-04
9.51219512195122e-02 4.67079330230544e-01 9.82269396835244e-04
1.09756097560976e-01 4.63157993761233e-01 1.04684957984908e-03
1.24390243902439e-01 4.59269578613988e-01 1.10550983912163e-03
1.39024390243902e-01 4.55413808434328e-01 1.15922100308895e-03
1.53658536585366e-01 4.51590409149738e-01 1.20870318470897e-03
1.68292682926829e-01 4.47799108968419e-01 1.25450970235683e-03
1.82926829268293e-01 4.44039638428198e-01 1.29707773127033e-03
1.97560975609756e-01 4.40311730303305e-01 1.33676058147950e-03
2.12195121951220e-01 4.36615119595237e-01 1.37384917020335e-03
2.26829268292683e-01 4.32949543566506e-01 1.40858684809235e-03
2.41463414634146e-01 4.29314741666154e-01 1.44117993834737e-03
2.56097560975610e-01 4.25710455517349e-01 1.47180540807319e-03
2.70731707317073e-01 4.22136428941348e-01 1.50061659598484e-03
2.85365853658537e-01 4.18592407894949e-01 1.52774756252483e-03
3.00000000000000e-01 4.15078140456573e-01 1.55331643780457e-03
3.14634146341463e-01 4.11593376843471e-01 1.57742805694214e-03
3.29268292682927e-01 4.08137869346973e-01 1.60017604731961e-03
3.43902439024390e-01 4.04711372360068e-01 1.62164450527602e-03
3.58536585365854e-01 4.01313642326263e-01 1.64190936378027e-03
3.73170731707317e-01 3.97944437724910e-01 1.66103950295422e-03
3.87804878048780e-01 3.94603519081801e-01 1.67909767833363e-03
4.02439024390244e-01 3.91290648923475e-01 1.69614129530783e-03
4.17073170731707e-01 3.88005591762417e-01 1.71222305074662e-03
4.31707317073171e-01 3.84748114104378e-01 1.72739148466034e-03
4.46341463414634e-01 3.81517984406973e-01 1.74169145009330e-03
4.60975609756098e-01 3.78314973064907e-01 1.75516450715203e-03
4.75609756097561e-01 3.75138852414762e-01 1.76784927053635e-03
4.90243902439024e-01 3.71989396697078e-01 1.77978171051226e-03
5.04878048780488e-01 3.68866382041705e-01 1.79099540685326e-03
5.19512195121951e-01 3.65769586470587e-01 1.80152177836023e-03
5.34146341463415e-01 3.62698789862750e-01 1.81139028434906e-03
5.48780487804878e-01 3.59653773939824e-01 1.82062859481597e-03
5.63414634146342e-01 3.56634322267242e-01 1.82926274806536e-03
5.78048780487805e-01 3.53640220221681e-01 1.83731729065938e-03
5.92682926829268e-01 3.50671254976804e-01 1.84481539515145e-03
6.07317073170732e-01 3.47727215503172e-01 1.85177897197370e-03
6.21951219512195e-01 3.44807892537801e-01 1.85822876972962e-03
6.36585365853659e-01 3.41913078570146e-01 1.86418445884402e-03
6.51219512195122e-01 3.39042567840969e-01 1.86966471325970e-03
6.65853658536585e-01 3.36196156313750e-01 1.87468728427367e-03
6.80487804878049e-01 3.33373641660915e-01 1.87926906130626e-03
6.95121951219512e-01 3.30574823261854e-01 1.88342613303390e-03
7.09756097560976e-01 3.27799502175973e-01 1.88717384304084e-03
7.24390243902439e-01 3.25047481129176e-01 1.89052683479879e-03
7.39024390243902e-01 3.22318564511190e-01 1.89349909840803e-03
7.53658536585366e-01 3.19612558350068e-01 1.89610401341917e-03
7.68292682926829e-01 3.16929270298945e-01 1.89835438265535e-03
7.82926829268293e-01 3.14268509632784e-01 1.90026246863828e-03
7.97560975609756e-01 3.11630087224188e-01 1.90184002714858e-03
8.12195121951220e-01 3.09013815530437e-01 1.90309833299815e-03
8.26829268292683e-01 3.06419508589743e-01 1.90404820890534e-03
8.41463414634146e-01 3.03846981998268e-01 1.90470005223298e-03
8.56097560975610e-01 3.01296052897420e-01 1.90506385484652e-03
8.70731707317073e-01 2.98766539969727e-01 1.90514922635655e-03
8.85365853658537e-01 2.96258263416932e-01 1.90496541573961e-03
9.00000000000000e-01 2.93771044947564e-01 1.90452132678053e-03
9.14634146341463e-01 2.91304707772493e-01 1.90382553753605e-03
9.29268292682927e-01 2.88859076581410e-01 1.90288631607210e-03
9.43902439024390e-01 2.86433977541112e-01 1.90171163503852e-03
9.58536585365854e-01 2.84029238275106e-01 1.90030918784232e-03
9.73170731707317e-01 2.81644687851659e-01 1.89868639892912e-03
9.87804878048781e-01 2.79280156779013e-01 1.89685043769925e-03
1.00243902439024e+00 2.76935476985861e-01 1.89480823248720e-03
1.01707317073171e+00 2.74610481805111e-01 1.89256647329330e-03
1.03170731707317e+00 2.72305005995948e-01 1.89013163507039e-03
1.04634146341463e+00 2.70018885662560e-01 1.88750998133996e-03
1.06097560975610e+00 2.67751958307414e-01 1.88470755942615e-03
1.07560975609756e+00 2.65504062818078e-01 1.88173023506220e-03
1.09024390243902e+00 2.63275039392929e-01 1.87858368746753e-03
1.10487804878049e+00 2.61064729592891e-01 1.87527340419470e-03
1.11951219512195e+00 2.58872976328611e-01 1.87180471374305e-03
1.13414634146341e+00 2.56699623790313e-01 1.86818277597927e-03
1.14878048780488e+00 2.54544517514568e-01 1.86441259208613e-03
1.16341463414634e+00 2.52407504297461e-01 1.86049901540405e-03
1.17804878048781e+00 2.50288432239992e-01 1.85644674127724e-03
1.19268292682927e+00 2.48187150735906e-01 1.85226033600075e-03
1.20731707317073e+00 2.46103510408263e-01 1.84794423054141e-03
1.22195121951220e+00 2.44037363151769e-01 1.84350271419331e-03
1.23658536585366e+00 2.41988562121063e-01 1.83893996180507e-03
1.25121951219512e+00 2.39956961670516e-01 1.83426002723424e-03
1.26585365853659e+00 2.37942417393850e-01 1.82946683677178e-03
1.28048780487805e+00 2.35944786112690e-01 1.82456421483255e-03
1.29512195121951e+00 2.33963925819477e-01 1.81955587386876e-03
1.30975609756098e+00 2.31999695729373e-01 1.81444542108724e-03
1.32439024390244e+00 2.30051956209708e-01 1.80923636599793e-03
1.33902439024390e+00 2.28120568815025e-01 1.80393211017262e-03
1.35365853658537e+00 2.26205396276215e-01 1.79853597051401e-03
1.36829268292683e+00 2.24306302448442e-01 1.79305117250341e-03
1.38292682926829e+00 2.22423152343970e-01 1.78748084347946e-03
1.39756097560976e+00 2.20555812121642e-01 1.78182803473749e-03
1.41219512195122e+00 2.18704149037295e-01 1.77609571477056e-03
1.42682926829268e+00 2.16868031474585e-01 1.77028676256601e-03
1.44146341463415e+00 2.15047328934715e-01 1.76440398863160e-03
1.45609756097561e+00 2.13241911989225e-01 1.75845012537612e-03
1.47073170731707e+00 2.11451652320982e-01 1.75242783200303e-03
1.48536585365854e+00 2.09676422665963e-01 1.74633970013806e-03
1.50000000000000e+00 2.07916096840696e-01 1.74018824421927e-03
1.51463414634146e+00 2.06170549732511e-01 1.73397592077676e-03
1.52926829268293e+00 2.04439657256179e-01 1.72770512190210e-03
1.54390243902439e+00 2.02723296379715e-01 1.72137816878414e-03
1.55853658536585e+00 2.01021345114895e-01 1.71499733012728e-03
1.57317073170732e+00 1.99333682475862e-01 1.70856481312813e-03
1.58780487804878e+00 1.97660188513810e-01 1.70208276748345e-03
1.60243902439024e+00 1.96000744266077e-01 1.69555329006059e-03
1.61707317073171e+00 1.94355231779226e-01 1.68897841593395e-03
1.63170731707317e+00 1.92723534099975e-01 1.68236013537668e-03
1.64634146341463e+00 1.91105535237070e-01 1.67570038767306e-03
1.66097560975610e+00 1.89501120182999e-01 1.66900105501398e-03
1.67560975609756e+00 1.87910174905209e-01 1.66226397877674e-03
1.69024390243902e+00 1.86332586309610e-01 1.65549095347007e-03
1.70487804878049e+00 1.84768242261061e-01 1.64868372075652e-03
1.71951219512195e+00 1.83217031574797e-01 1.64184398506401e-03
1.73414634146341e+00 1.81678843981519e-01 1.63497340541097e-03
1.74878048780488e+00 1.80153570155316e-01 1.62807359857188e-03
1.76341463414634e+00 1.78641101670836e-01 1.62114614281547e-03
1.77804878048780e+00 1.77141331021675e-01 1.61419256982069e-03
1.79268292682927e+00 1.75654151612197e-01 1.60721437916517e-03
1.80731707317073e+00 1.74179457725217e-01 1.60021303267826e-03
1.82195121951220e+00 1.72717144539344e-01 1.59318994887257e-03
1.83658536585366e+00 1.71267108121038e-01 1.58614651686539e-03
1.85121951219512e+00 1.69829245393625e-01 1.57908409087401e-03
1.86585365853659e+00 1.68403454153680e-01 1.57200398478900e-03
1.88048780487805e+00 1.66989633063279e-01 1.56490748555853e-03
1.89512195121951e+00 1.65587681620298e-01 1.55779584585703e-03
1.90975609756098e+00 1.64197500181068e-01 1.55067028665772e-03
1.92439024390244e+00 1.62818989924056e-01 1.54353200030022e-03
1.93902439024390e+00 1.61452052864612e-01 1.53638214325795e-03
1.95365853658537e+00 1.60096591847568e-01 1.52922184861292e-03
1.96829268292683e+00 1.58752510519653e-01 1.52205222096081e-03
1.98292682926829e+00 1.57419713343421e-01 1.51487433139160e-03
1.99756097560976e+00 1.56098105590065e-01 1.50768922950038e-03
2.01219512195122e+00 1.54787593312911e-01 1.50049793842945e-03
2.02682926829268e+00 1.53488083360613e-01 1.49330144998923e-03
2.04146341463415e+00 1.52199483370122e-01 1.48610073622667e-03
2.05609756097561e+00 1.50921701741254e-01 1.47889674288242e-03
2.07073170731707e+00 1.49654647655192e-01 1.47169039152467e-03
2.08536585365854e+00 1.48398231043464e-01 1.46448258211212e-03
2.10000000000000e+00 1.47152362599840e-01 1.45727418654780e-03
2.11463414634146e+00 1.45916953773631e-01 1.45006605949592e-03
2.12926829268293e+00 1.44691916745981e-01 1.44285903381337e-03
2.14390243902439e+00 1.43477164441123e-01 1.43565391605142e-03
2.15853658536585e+00 1.42272610519854e-01 1.42845149688613e-03
2.17317073170732e+00 1.41078169356737e-01 1.42125254511931e-03
2.18780487804878e+00 1.39893756056096e-01 1.41405780955371e-03
2.20243902439024e+00 1.38719286424282e-01 1.40686802125475e-03
2.21707317073171e+00 1.37554676979865e-01 1.39968388764299e-03
2.23170731707317e+00 1.36399844947383e-01 1.39250610226562e-03
2.24634146341463e+00 1.35254708236060e-01 1.38533534058927e-03
2.26097560975610e+00 1.34119185449447e-01 1.37817225586157e-03
2.27560975609756e+00 1.32993195879349e-01 1.37101748854132e-03
2.29024390243902e+00 1.31876659485333e-01 1.36387166221499e-03
2.30487804878049e+00 1.30769496903865e-01 1.35673537957722e-03
2.31951219512195e+00 1.29671629442387e-01 1.34960923153416e-03
2.33414634146341e+00 1.28582979059595e-01 1.34249379186449e-03
2.34878048780488e+00 1.27503468378624e-01 1.33538961881246e-03
2.36341463414634e+00 1.26433020663128e-01 1.32829725701682e-03
2.37804878048781e+00 1.25371559825563e-01 1.32121723225599e-03
2.39268292682927e+00 1.24319010421509e-01 1.31415005999377e-03
2.40731707317073e+00 1.23275297631226e-01 1.30709624162433e-03
2.42195121951220e+00 1.22240347267485e-01 1.30005626077671e-03
2.43658536585366e+00 1.21214085770056e-01 1.29303059157033e-03
2.45121951219512e+00 1.20196440187924e-01 1.28601969497070e-03
2.46585365853659e+00 1.19187338186724e-01 1.27902401520283e-03
2.48048780487805e+00 1.18186708043357e-01 1.27204398772811e-03
2.49512195121951e+00 1.17194478628858e-01 1.26508003449437e-03
2.50975609756098e+00 1.16210579419307e-01 1.25813256530143e-03
2.52439024390244e+00 1.15234940475107e-01 1.25120197945983e-03
2.53902439024390e+00 1.14267492447725e-01 1.24428866111672e-03
2.55365853658537e+00 1.13308166574549e-01 1.23739298675710e-03
2.56829268292683e+00 1.12356894662816e-01 1.23051532185392e-03
2.58292682926829e+00 1.11413609096004e-01 1.22365601757168e-03
2.59756097560976e+00 1.10478242828819e-01 1.21681541801862e-03
2.61219512195122e+00 1.09550729371700e-01 1.20999385699496e-03
2.62682926829268e+00 1.08631002796882e-01 1.20319165479529e-03
2.64146341463415e+00 1.07718997733502e-01 1.19640912522086e-03
2.65609756097561e+00 1.06814649352659e-01 1.18964657135263e-03
2.67073170731707e+00 1.05917893376470e-01 1.18290428673031e-03
2.68536585365854e+00 1.05028666060050e-01 1.17618255678806e-03
2.70000000000000e+00 1.04146904197012e-01 1.16948165469559e-03
2.71463414634146e+00 1.03272545114794e-01 1.16280184796158e-03
2.72926829268293e+00 1.02405526660618e-01 1.15614339544598e-03
2.74390243902439e+00 1.01545787206705e-01 1.14950654442025e-03
2.75853658536585e+00 1.00693265645722e-01 1.14289153695595e-03
2.77317073170732e+00 9.98479013772308e-02 1.13629860604775e-03
2.78780487804878e+00 9.90096343155938e-02 1.12972797667430e-03
2.80243902439024e+00 9.81784048736768e-02 1.12317986709178e-03
2.81707317073171e+00 9.73541539675895e-02 1.11665448501951e-03
2.83170731707317e+00 9.65368230123203e-02 1.11015203366164e-03
2.84634146341463e+00 9.57263539089939e-02 1.10367270895952e-03
2.86097560975610e+00 9.49226890493645e-02 1.09721669689025e-03
2.87560975609756e+00 9.41257713115692e-02 1.09078417929438e-03
2.89024390243902e+00 9.33355440478178e-02 1.08437533121080e-03
2.90487804878049e+00 9.25519510886577e-02 1.07799031825447e-03
2.91951219512195e+00 9.17749367388322e-02 1.07162930225737e-03
2.93414634146342e+00 9.10044457653925e-02 1.06529243781504e-03
2.94878048780488e+00 9.02404234042939e-02 1.05897987321086e-03
2.96341463414634e+00 8.94828153461387e-02 1.05269175154512e-03
2.97804878048780e+00 8.87315677400512e-02 1.04642820733695e-03
2.99268292682927e+00 8.79866271897105e-02 1.04018937184699e-03
3.00731707317073e+00 8.72479407421561e-02 1.03397537062625e-03
3.02195121951220e+00 8.65154558914604e-02 1.02778632110480e-03
3.03658536585366e+00 8.57891205748684e-02 1.02162233774582e-03
3.05121951219512e+00 8.50688831619757e-02 1.01548352966709e-03
3.06585365853659e+00 8.43546924582158e-02 1.00936999830096e-03
3.08048780487805e+00 8.36464977010929e-02 1.00328184238559e-03
3.09512195121951e+00 8.29442485497257e-02 9.97219154886329e-04
3.10975609756098e+00 8.22478950903595e-02 9.91182023804397e-04
3.12439024390244e+00 8.15573878238609e-02 9.85170533165671e-04
3.13902439024390e+00 8.08726776688851e-02 9.79184759991534e-04
3.15365853658537e+00 8.01937159582689e-02 9.73224779012739e-04
3.16829268292683e+00 7.95204544291710e-02 9.67290660481124e-04
3.18292682926829e+00 7.88528452260746e-02 9.61382468017009e-04
3.19756097560976e+00 7.81908408972748e-02 9.55500263175430e-04
3.21219512195122e+00 7.75343943853428e-02 9.49644103322072e-04
3.22682926829268e+00 7.68834590299764e-02 9.43814039544530e-04
3.24146341463415e+00 7.62379885645727e-02 9.38010121075882e-04
3.25609756097561e+00 7.55979371070086e-02 9.32232392548803e-04
3.27073170731707e+00 7.49632591642541e-02 9.26480894705236e-04
3.28536585365854e+00 7.43339096213775e-02 9.20755665264830e-04
3.30000000000000e+00 7.37098437441309e-02 9.15056736222608e-04
3.31463414634146e+00 7.30910171756715e-02 9.09384138030670e-04
3.32926829268293e+00 7.24773859278564e-02 9.03737897643437e-04
3.34390243902439e+00 7.18689063836963e-02 8.98118036594830e-04
3.35853658536585e+00 7.12655352941585e-02 8.92524575050491e-04
3.37317073170732e+00 7.06672297697456e-02 8.86957529283235e-04
3.38780487804878e+00 7.00739472845455e-02 8.81416912318230e-04
3.40243902439024e+00 6.94856456662101e-02 8.75902734723138e-04
3.41707317073171e+00 6.89022830981839e-02 8.70415002123657e-04
3.43170731707317e+00 6.83238181166390e-02 8.64953719036091e-04
3.44634146341463e+00 6.77502096025221e-02 8.59518887067130e-04
3.46097560975610e+00 6.71814167836638e-02 8.54110503143820e-04
3.47560975609756e+00 6.66173992317958e-02 8.48728563228398e-04
3.49024390243902e+00 6.60581168548508e-02 8.43373060571351e-04
3.50487804878049e+00 6.55035298989635e-02 8.38043983992662e-04
3.51951219512195e+00 6.49535989455615e-02 8.32741321482904e-04
3.53414634146341e+00 6.44082849039131e-02 8.27465057948264e-04
3.54878048780488e+00 6.38675490145229e-02 8.22215175779248e-04
3.56341463414634e+00 6.33313528402886e-02 8.16991655547901e-04
3.57804878048780e+00 6.27996582683154e-02 8.11794473788325e-04
3.59268292682927e+00 6.22724275071277e-02 8.06623606404636e-04
3.60731707317073e+00 6.17496230796247e-02 8.01479027061593e-04
3.62195121951220e+00 6.12312078247974e-02 7.96360705601499e-04
3.63658536585366e+00 6.07171448950144e-02 7.91268611348465e-04
3.65121951219512e+00 6.02073977491980e-02 7.86202711546047e-04
3.66585365853659e+00 5.97019301544533e-02 7.81162969820358e-04
3.68048780487805e+00 5.92007061834196e-02 7.76149349384040e-04
3.69512195121951e+00 5.87036902076642e-02 7.71161811020634e-04
3.70975609756098e+00 5.82108469005325e-02 7.66200313587126e-04
3.72439024390244e+00 5.77221412293275e-02 7.61264814630061e-04
3.73902439024390e+00 5.72375384567845e-02 7.56355268401554e-04
3.75365853658537e+00 5.67570041385347e-02 7.51471628893417e-04
3.76829268292683e+00 5.62805041168529e-02 7.46613848397167e-04
3.78292682926829e+00 5.58080045220532e-02 7.41781876087561e-04
3.79756097560976e+00 5.53394717700173e-02 7.36975660965230e-04
3.81219512195122e+00 5.48748725561381e-02 7.32195150458132e-04
3.82682926829268e+00 5.44141738566411e-02 7.27440289046620e-04
3.84146341463415e+00 5.39573429261737e-02 7.22711021117386e-04
3.85609756097561e+00 5.35043472919390e-02 7.18007289160460e-04
3.87073170731707e+00 5.30551547560881e-02 7.13329034214087e-04
3.88536585365854e+00 5.26097333887944e-02 7.08676196410197e-04
3.90000000000000e+00 5.21680515294466e-02 7.04048713199665e-04
3.91463414634146e+00 5.17300777843405e-02 6.99446522056465e-04
3.92926829268293e+00 5.12957810211231e-02 6.94869559188477e-04
3.94390243902439e+00 5.08651303699215e-02 6.90317758269416e-04
3.95853658536585e+00 5.04380952210924e-02 6.85791053062033e-04
3.97317073170732e+00 5.00146452198385e-02 6.81289375757175e-04
3.98780487804878e+00 4.95947502683116e-02 6.76812657380320e-04
4.00243902439024e+00 4.91783805192687e-02 6.72360828290494e-04
4.01707317073171e+00 4.87655063770919e-02 6.67933816545130e-04
4.03170731707317e+00 4.83560984956300e-02 6.63531550386519e-04
4.04634146341463e+00 4.79501277730997e-02 6.59153957052452e-04
4.06097560975610e+00 4.75475653530462e-02 6.54800961606845e-04
4.07560975609756e+00 4.71483826222427e-02 6.50472489352141e-04
4.09024390243902e+00 4.67525512057457e-02 6.46168464674473e-04
4.10487804878049e+00 4.63600429678039e-02 6.41888809907716e-04
4.11951219512195e+00 4.59708300098096e-02 6.37633447674220e-04
4.13414634146342e+00 4.55848846655055e-02 6.33402299397479e-04
4.14878048780488e+00 4.52021795027508e-02 6.29195285662837e-04
4.16341463414634e+00 4.48226873178880e-02 6.25012326660351e-04
4.17804878048781e+00 4.44463811365605e-02 6.20853340720430e-04
4.19268292682927e+00 4.40732342117495e-02 6.16718246533481e-04
4.20731707317073e+00 4.37032200192300e-02 6.12606962084260e-04
4.22195121951220e+00 4.33363122583421e-02 6.08519403603691e-04
4.23658536585366e+00 4.29724848500777e-02 6.04455487722814e-04
4.25121951219512e+00 4.26117119326749e-02 6.00415130437854e-04
4.26585365853659e+00 4.22539678623450e-02 5.96398246092028e-04
4.28048780487805e+00 4.18992272114071e-02 5.92404749465892e-04
4.29512195121951e+00 4.15474647640162e-02 5.88434554444877e-04
4.30975609756098e+00 4.11986555176451e-02 5.84487574339668e-04
4.32439024390244e+00 4.08527746780753e-02 5.80563722279721e-04
4.33902439024390e+00 4.05097976600488e-02 5.76662909901163e-04
4.35365853658537e+00 4.01697000854807e-02 5.72785049329941e-04
4.36829268292683e+00 3.98324577794071e-02 5.68930052226243e-04
4.38292682926829e+00 3.94980467705978e-02 5.65097828844663e-04
4.39756097560976e+00 3.91664432898150e-02 5.61288289959075e-04
4.41219512195122e+00 3.88376237658823e-02 5.57501345934307e-04
4.42682926829268e+00 3.85115648262624e-02 5.53736905813219e-04
4.44146341463415e+00 3.81882432953582e-02 5.49994879185015e-04
4.45609756097561e+00 3.78676361907007e-02 5.46275174990593e-04
4.47073170731707e+00 3.75497207241918e-02 5.42577701807580e-04
4.48536585365854e+00 3.72344742976451e-02 5.38902368200439e-04
4.50000000000000e+00 3.69218745033006e-02 5.35249081544017e-04
4.51463414634146e+00 3.66118991221975e-02 5.31617749796752e-04
4.52926829268293e+00 3.63045261205554e-02 5.28008280643422e-04
4.54390243902439e+00 3.59997336502586e-02 5.24420580652076e-04
4.55853658536585e+00 3.56975000472690e-02 5.20854556995290e-04
4.57317073170732e+00 3.53978038281158e-02 5.17310116347572e-04
4.58780487804878e+00 3.51006236909868e-02 5.13787165146888e-04
4.60243902439024e+00 3.48059385116289e-02 5.10285609915888e-04
4.61707317073171e+00 3.45137273437785e-02 5.06805356176067e-04
