Energy (eV)          EEDF (eV^-(3/2))     First Anisotropy
2.64285714285714e-04 6.88773776151119e+01 3.08457966588020e-02
7.92857142857143e-04 6.83137193519603e+01 5.08978721504364e-02
1.32142857142857e-03 6.77546737871796e+01 6.70922033310236e-02
1.85000000000000e-03 6.72002031740443e+01 7.93352225199352e-02
2.37857142857143e-03 6.66502700748946e+01 8.94965663100048e-02
2.90714285714286e-03 6.61048373549482e+01 9.82844832732723e-02
3.43571428571429e-03 6.55638681854134e+01 1.06066163689405e-01
3.96428571428571e-03 6.50273260388569e+01 1.13063738763088e-01
4.49285714285714e-03 6.44951746867315e+01 1.19424789244728e-01
5.02142857142857e-03 6.39673781969856e+01 1.25253804256099e-01
5.55000000000000e-03 6.34439009316081e+01 1.30628266145253e-01
6.07857142857143e-03 6.29247075447653e+01 1.35607694495231e-01
6.60714285714286e-03 6.24097629787519e+01 1.40239102545694e-01
7.13571428571429e-03 6.18990324633406e+01 1.44560473866003e-01
7.66428571428571e-03 6.13924815128439e+01 1.48603076422191e-01
8.19285714285714e-03 6.08900759237806e+01 1.52393058814674e-01
8.72142857142857e-03 6.03917817725791e+01 1.55952584775327e-01
9.25000000000000e-03 5.98975654132799e+01 1.59300660183877e-01
9.77857142857143e-03 5.94073934755735e+01 1.62453749242834e-01
1.03071428571429e-02 5.89212328627111e+01 1.65426242492843e-01
1.08357142857143e-02 5.84390507449432e+01 1.68230817779903e-01
1.13642857142857e-02 5.79608145670434e+01 1.70878723481975e-01
1.18928571428571e-02 5.74864920372638e+01 1.73380003485317e-01
1.24214285714286e-02 5.70160511258871e+01 1.75743677296043e-01
1.29500000000000e-02 5.65494600700661e+01 1.77977886920788e-01
1.34785714285714e-02 5.60866873644087e+01 1.80090017213442e-01
1.40071428571429e-02 5.56277017613597e+01 1.82086795186462e-01
1.45357142857143e-02 5.51724722672251e+01 1.83974372841450e-01
1.50642857142857e-02 5.47209681458199e+01 1.85758397009686e-01
1.55928571428571e-02 5.42731589104695e+01 1.87444068480139e-01
1.61214285714286e-02 5.38290143223581e+01 1.89036191835389e-01
1.66500000000000e-02 5.33885043935490e+01 1.90539218647756e-01
1.71785714285714e-02 5.29515993797454e+01 1.91957284611083e-01
1.77071428571429e-02 5.25182697800686e+01 1.93294241468278e-01
1.82357142857143e-02 5.20884863336630e+01 1.94553684792048e-01
1.87642857142857e-02 5.16622200220231e+01 1.95738978460881e-01
1.92928571428571e-02 5.12394420626186e+01 1.96853276175820e-01
1.98214285714286e-02 5.08201239072070e+01 1.97899539978512e-01
2.03500000000000e-02 5.04042372437782e+01 1.98880557064799e-01
2.08785714285714e-02 4.99917539906733e+01 1.99798954650320e-01
2.14071428571429e-02 4.95826462960429e+01 2.00657213017883e-01
2.19357142857143e-02 4.91768865348650e+01 2.01457677183265e-01
2.24642857142857e-02 4.87744473104486e+01 2.02202567520373e-01
2.29928571428571e-02 4.83753014491385e+01 2.02893989346512e-01
2.35214285714286e-02 4.79794219986564e+01 2.03533941176904e-01
2.40500000000000e-02 4.75867822293529e+01 2.04124322562745e-01
2.45785714285714e-02 4.71973556292634e+01 2.04666941143754e-01
2.51071428571429e-02 4.68111159033859e+01 2.05163518882744e-01
2.56357142857143e-02 4.64280369710158e+01 2.05615697749422e-01
2.61642857142857e-02 4.60480929667010e+01 2.06025045053105e-01
2.66928571428571e-02 4.56712582357247e+01 2.06393058350686e-01
2.72214285714286e-02 4.52975073325002e+01 2.06721169603176e-01
2.77500000000000e-02 4.49268150213533e+01 2.07010749323761e-01
2.82785714285714e-02 4.45591562722688e+01 2.07263110351125e-01
2.88071428571429e-02 4.41945062600658e+01 2.07479511173906e-01
2.93357142857143e-02 4.38328403619875e+01 2.07661159007647e-01
2.98642857142857e-02 4.34741341582764e+01 2.07809212768859e-01
3.03928571428571e-02 4.31183634282471e+01 2.07924785859115e-01
3.09214285714286e-02 4.27655041487457e+01 2.08008948445074e-01
3.14500000000000e-02 4.24155324946038e+01 2.08062729871699e-01
3.19785714285714e-02 4.20684248349166e+01 2.08087120871325e-01
3.25071428571429e-02 4.17241577321641e+01 2.08083075485450e-01
3.30357142857143e-02 4.13827079400126e+01 2.08051512866078e-01
3.35642857142857e-02 4.10440524036190e+01 2.07993319073069e-01
3.40928571428571e-02 4.07081682561690e+01 2.07909348783144e-01
3.46214285714286e-02 4.03750328174070e+01 2.07800426619978e-01
3.51500000000000e-02 4.00446235938520e+01 2.07667348665325e-01
3.56785714285714e-02 3.97169182755028e+01 2.07510883846406e-01
3.62071428571429e-02 3.93918947349326e+01 2.07331775117302e-01
3.67357142857143e-02 3.90695310252728e+01 2.07130740578771e-01
3.72642857142857e-02 3.87498053803201e+01 2.06908474635605e-01
3.77928571428571e-02 3.84326962114529e+01 2.06665649113622e-01
3.83214285714286e-02 3.81181821062321e+01 2.06402914070811e-01
3.88500000000000e-02 3.78062418284445e+01 2.06120898801011e-01
3.93785714285714e-02 3.74968543151566e+01 2.05820212755696e-01
3.99071428571429e-02 3.71899986758040e+01 2.05501446305887e-01
4.04357142857143e-02 3.68856541903325e+01 2.05165171472028e-01
4.09642857142857e-02 3.65838003091616e+01 2.04811942708439e-01
4.14928571428571e-02 3.62844166504144e+01 2.04442297671596e-01
4.20214285714286e-02 3.59874829985888e+01 2.04056757730433e-01
4.25500000000000e-02 3.56929793044738e+01 2.03655828665871e-01
4.30785714285714e-02 3.54008856824957e+01 2.03240001312122e-01
4.36071428571429e-02 3.51111824098149e+01 2.02809752067127e-01
4.41357142857143e-02 3.48238499246064e+01 2.02365543386704e-01
4.46642857142857e-02 3.45388688259166e+01 2.01907824339071e-01
4.51928571428571e-02 3.42562198711592e+01 2.01437031156092e-01
4.57214285714286e-02 3.39758839748550e+01 2.00953587560823e-01
4.62500000000000e-02 3.36978422084540e+01 2.00457905274853e-01
4.67785714285714e-02 3.34220757979310e+01 1.99950384481918e-01
4.73071428571429e-02 3.31485661228984e+01 1.99431414180471e-01
4.78357142857143e-02 3.28772947150110e+01 1.98901372528632e-01
4.83642857142857e-02 3.26082432577448e+01 1.98360627250287e-01
4.88928571428571e-02 3.23413935841208e+01 1.97809536044793e-01
4.94214285714286e-02 3.20767276755109e+01 1.97248446799204e-01
4.99500000000000e-02 3.18142276613910e+01 1.96677697968745e-01
5.04785714285714e-02 3.15538758171515e+01 1.96097618922873e-01
5.10071428571429e-02 3.12956545632329e+01 1.95508530194925e-01
5.15357142857143e-02 3.10395464636419e+01 1.94910743729074e-01
5.20642857142857e-02 3.07855342256730e+01 1.94304563186646e-01
5.25928571428571e-02 3.05336006978308e+01 1.93690284259780e-01
5.31214285714286e-02 3.02837288686993e+01 1.93068194808749e-01
5.36500000000000e-02 3.00359018666448e+01 1.92438575155386e-01
5.41785714285714e-02 2.97901029578140e+01 1.91801698348545e-01
5.47071428571429e-02 2.95463155452955e+01 1.91157830344426e-01
5.52357142857143e-02 2.93045231677384e+01 1.90507230187075e-01
5.57642857142857e-02 2.90647094990314e+01 1.89850150245327e-01
5.62928571428571e-02 2.88268583463998e+01 1.89186836459068e-01
5.68214285714286e-02 2.85909536493358e+01 1.88517528426635e-01
5.73500000000000e-02 2.83569794792644e+01 1.87842459636572e-01
5.78785714285714e-02 2.81249200377082e+01 1.87161857676071e-01
5.84071428571429e-02 2.78947596554768e+01 1.86475944363284e-01
5.89357142857143e-02 2.76664827913782e+01 1.85784935881560e-01
5.94642857142857e-02 2.74400740318689e+01 1.85089042966687e-01
5.99928571428571e-02 2.72155180893051e+01 1.84388471104374e-01
6.05214285714286e-02 2.69927998009308e+01 1.83683420583865e-01
6.10500000000000e-02 2.67719041285188e+01 1.82974086684686e-01
6.15785714285714e-02 2.65528161566826e+01 1.82260659843554e-01
6.21071428571429e-02 2.63355210920955e+01 1.81543325752753e-01
6.26357142857143e-02 2.61200042622877e+01 1.80822265461350e-01
6.31642857142857e-02 2.59062511152759e+01 1.80097655525930e-01
6.36928571428571e-02 2.56942472179532e+01 1.79369668171854e-01
6.42214285714286e-02 2.54839782551311e+01 1.78638471323603e-01
6.47500000000000e-02 2.52754300291646e+01 1.77904228757907e-01
6.52785714285714e-02 2.50685884583955e+01 1.77167100239690e-01
6.58071428571429e-02 2.48634395764029e+01 1.76427241595922e-01
6.63357142857143e-02 2.46599695308776e+01 1.75684804792841e-01
6.68642857142857e-02 2.44581645832402e+01 1.74939938059176e-01
6.73928571428571e-02 2.42580111071541e+01 1.74192786019921e-01
6.79214285714286e-02 2.40594955876197e+01 1.73443489710572e-01
6.84500000000000e-02 2.38626046205903e+01 1.72692186704493e-01
6.89785714285714e-02 2.36673249115328e+01 1.71939011225266e-01
6.95071428571429e-02 2.34736432747101e+01 1.71184094202555e-01
7.00357142857143e-02 2.32815466321274e+01 1.70427563331565e-01
7.05642857142857e-02 2.30910220131440e+01 1.69669543175176e-01
7.10928571428572e-02 2.29020565530972e+01 1.68910155276369e-01
7.16214285714286e-02 2.27146374924466e+01 1.68149518161213e-01
7.21500000000000e-02 2.25287521763852e+01 1.67387747446183e-01
7.26785714285714e-02 2.23443880535072e+01 1.66624955932207e-01
7.32071428571429e-02 2.21615326751211e+01 1.65861253647096e-01
7.37357142857143e-02 2.19801736942631e+01 1.65096747891627e-01
7.42642857142857e-02 2.18002988653070e+01 1.64331543325238e-01
7.47928571428571e-02 2.16218960426886e+01 1.63565742061614e-01
7.53214285714286e-02 2.14449531800973e+01 1.62799443663790e-01
7.58500000000000e-02 2.12694583300868e+01 1.62032745235572e-01
7.63785714285714e-02 2.10953996428396e+01 1.61265741501133e-01
7.69071428571429e-02 2.09227653655112e+01 1.60498524837288e-01
7.74357142857143e-02 2.07515438413052e+01 1.59731185309441e-01
7.79642857142857e-02 2.05817235090843e+01 1.58963810744192e-01
7.84928571428571e-02 2.04132929021877e+01 1.58196486811389e-01
7.90214285714286e-02 2.02462406476658e+01 1.57429297013809e-01
7.95500000000000e-02 2.00805554658945e+01 1.56662322765750e-01
8.00785714285714e-02 1.99162261694280e+01 1.55895643461040e-01
8.06071428571429e-02 1.97532416623729e+01 1.55129336497575e-01
8.11357142857143e-02 1.95915909395204e+01 1.54363477305435e-01
8.16642857142857e-02 1.94312630859628e+01 1.53598139408963e-01
8.21928571428572e-02 1.92722472759931e+01 1.52833394497803e-01
8.27214285714286e-02 1.91145327723833e+01 1.52069312412886e-01
8.32500000000000e-02 1.89581089260030e+01 1.51305961214551e-01
8.37785714285714e-02 1.88029651747531e+01 1.50543407241102e-01
8.43071428571429e-02 1.86490910429696e+01 1.49781715127397e-01
8.48357142857143e-02 1.84964761406090e+01 1.49020947826887e-01
8.53642857142857e-02 1.83451101628710e+01 1.48261166665122e-01
8.58928571428571e-02 1.81949828891754e+01 1.47502431401690e-01
8.64214285714286e-02 1.80460841824796e+01 1.46744800213726e-01
8.69500000000000e-02 1.78984039889050e+01 1.45988329755386e-01
8.74785714285714e-02 1.77519323367442e+01 1.45233075208658e-01
8.80071428571429e-02 1.76066593358933e+01 1.44479090297321e-01
8.85357142857143e-02 1.74625751770874e+01 1.43726427304215e-01
8.90642857142857e-02 1.73196701315312e+01 1.42975137117645e-01
8.95928571428571e-02 1.71779345499462e+01 1.42225269285754e-01
9.01214285714286e-02 1.70373588619260e+01 1.41476871998497e-01
9.06500000000000e-02 1.68979335755716e+01 1.40729992139840e-01
9.11785714285714e-02 1.67596492765658e+01 1.39984675332113e-01
9.17071428571429e-02 1.66224966276340e+01 1.39240965946399e-01
9.22357142857143e-02 1.64864663678251e+01 1.38498907116004e-01
9.27642857142857e-02 1.63515493121524e+01 1.37758540776960e-01
9.32928571428571e-02 1.62177363507051e+01 1.37019907716032e-01
9.38214285714286e-02 1.60850184480390e+01 1.36283047551753e-01
9.43500000000000e-02 1.59533866428219e+01 1.35547998780554e-01
9.48785714285714e-02 1.58228320469708e+01 1.34814798815679e-01
9.54071428571429e-02 1.56933458451382e+01 1.34083483994723e-01
9.59357142857143e-02 1.55649192940376e+01 1.33354089590134e-01
9.64642857142857e-02 1.54375437220937e+01 1.32626649844737e-01
9.69928571428571e-02 1.53112105286143e+01 1.31901198014290e-01
9.75214285714286e-02 1.51859111832142e+01 1.31177766348149e-01
9.80500000000000e-02 1.50616372254713e+01 1.30456386130138e-01
9.85785714285714e-02 1.49383802641214e+01 1.29737087712904e-01
9.91071428571429e-02 1.48161319765703e+01 1.29019900523226e-01
9.96357142857143e-02 1.46948841082593e+01 1.28304853070103e-01
1.00164285714286e-01 1.45746284723271e+01 1.27591972952316e-01
1.00692857142857e-01 1.44553569491177e+01 1.26881286997754e-01
1.01221428571429e-01 1.43370614844371e+01 1.26172821084103e-01
1.01750000000000e-01 1.42197340914051e+01 1.25466600287093e-01
1.02278571428571e-01 1.41033668471169e+01 1.24762648878572e-01
1.02807142857143e-01 1.39879518948731e+01 1.24060990323747e-01
1.03335714285714e-01 1.38734814409181e+01 1.23361647317699e-01
1.03864285714286e-01 1.37599477566113e+01 1.22664641726931e-01
1.04392857142857e-01 1.36473431758856e+01 1.21969994847175e-01
1.04921428571429e-01 1.35356600947773e+01 1.21277727069372e-01
1.05450000000000e-01 1.34248909728268e+01 1.20587858119987e-01
1.05978571428571e-01 1.33150283300204e+01 1.19900407033565e-01
1.06507142857143e-01 1.32060647488035e+01 1.19215392148892e-01
1.07035714285714e-01 1.30979928710914e+01 1.18532831141922e-01
1.07564285714286e-01 1.29908054002312e+01 1.17852740970313e-01
1.08092857142857e-01 1.28844950986676e+01 1.17175138111652e-01
1.08621428571429e-01 1.27790547874979e+01 1.16500038252565e-01
1.09150000000000e-01 1.26744773477326e+01 1.15827456510541e-01
1.09678571428571e-01 1.25707557174897e+01 1.15157407407667e-01
1.10207142857143e-01 1.24678828938150e+01 1.14489904865987e-01
1.10735714285714e-01 1.23658519299397e+01 1.13824962237224e-01
1.11264285714286e-01 1.22646559370538e+01 1.13162592250329e-01
1.11792857142857e-01 1.21642880821616e+01 1.12502807231783e-01
1.12321428571429e-01 1.20647415876591e+01 1.11845618816166e-01
1.12850000000000e-01 1.19660097324701e+01 1.11191038151152e-01
1.13378571428571e-01 1.18680858494697e+01 1.10539075872425e-01
1.13907142857143e-01 1.17709633271315e+01 1.09889742098462e-01
1.14435714285714e-01 1.16746356070089e+01 1.09243046457480e-01
1.14964285714286e-01 1.15790961853398e+01 1.08598998037849e-01
1.15492857142857e-01 1.14843386110742e+01 1.07957605592018e-01
1.16021428571429e-01 1.13903564854732e+01 1.07318877266999e-01
1.16550000000000e-01 1.12971434631339e+01 1.06682820793989e-01
1.17078571428571e-01 1.12046932496206e+01 1.06049443464465e-01
1.17607142857143e-01 1.11129996029570e+01 1.05418752124588e-01
1.18135714285714e-01 1.10220563313105e+01 1.04790753199669e-01
1.18664285714286e-01 1.09318572944459e+01 1.04165452647353e-01
1.19192857142857e-01 1.08423964019090e+01 1.03542856146564e-01
1.19721428571429e-01 1.07536676126469e+01 1.02922968846442e-01
1.20250000000000e-01 1.06656649359326e+01 1.02305795541874e-01
1.20778571428571e-01 1.05783824291855e+01 1.01691340650804e-01
1.21307142857143e-01 1.04918141993245e+01 1.01079608208378e-01
1.21835714285714e-01 1.04059544006364e+01 1.00470601889184e-01
1.22364285714286e-01 1.03207972360946e+01 9.98643249631214e-02
1.22892857142857e-01 1.02363369556845e+01 9.92607804705860e-02
1.23421428571429e-01 1.01525678560436e+01 9.86599709885131e-02
1.23950000000000e-01 1.00694842812972e+01 9.80618987930339e-02
1.24478571428571e-01 9.98708062105056e+00 9.74665658379402e-02
1.25007142857143e-01 9.90535131161704e+00 9.68739737486701e-02
1.25535714285714e-01 9.82429083405425e+00 9.62841238425962e-02
1.26064285714286e-01 9.74389371536123e+00 9.56970170874453e-02
1.26592857142857e-01 9.66415452693324e+00 9.51126542638164e-02
1.27121428571429e-01 9.58506788422117e+00 9.45310357471356e-02
1.27650000000000e-01 9.50662844748637e+00 9.39521616584552e-02
1.28178571428571e-01 9.42883091995046e+00 9.33760318440599e-02
1.28707142857143e-01 9.35167004891035e+00 9.28026458693972e-02
1.29235714285714e-01 9.27514062392765e+00 9.22320030375903e-02
1.29764285714286e-01 9.19923747791617e+00 9.16641023502817e-02
1.30292857142857e-01 9.12395548571516e+00 9.10989426585184e-02
1.30821428571429e-01 9.04928956376670e+00 9.05365224594728e-02
1.31350000000000e-01 8.97523467079854e+00 8.99768400363276e-02
1.31878571428571e-01 8.90178580611707e+00 8.94198934389917e-02
1.32407142857143e-01 8.82893801062083e+00 8.88656804780364e-02
1.32935714285714e-01 8.75668636512978e+00 8.83141987416240e-02
1.33464285714286e-01 8.68502599137388e+00 8.77654455586594e-02
1.33992857142857e-01 8.61395205067466e+00 8.72194181389338e-02
1.34521428571429e-01 8.54345974363975e+00 8.66761133835494e-02
1.35050000000000e-01 8.47354431078093e+00 8.61355280147917e-02
1.35578571428571e-01 8.40420103093804e+00 8.55976585579122e-02
1.36107142857143e-01 8.33542522220075e+00 8.50625013350927e-02
1.36635714285714e-01 8.26721224036583e+00 8.45300524809580e-02
1.37164285714286e-01 8.19955747983643e+00 8.40003079079173e-02
1.37692857142857e-01 8.13245637240273e+00 8.34732634363923e-02
1.38221428571429e-01 8.06590438695295e+00 8.29489146180019e-02
1.38750000000000e-01 7.99989703003289e+00 8.24272568561800e-02
1.39278571428571e-01 7.93442984438975e+00 8.19082853889561e-02
1.39807142857143e-01 7.86949840981109e+00 8.13919952830388e-02
1.40335714285714e-01 7.80509834169915e+00 8.08783814480320e-02
1.40864285714286e-01 7.74122529188947e+00 8.03674386038367e-02
1.41392857142857e-01 7.67787494752247e+00 7.98591614017414e-02
1.41921428571429e-01 7.61504303076993e+00 7.93535442594373e-02
1.42450000000000e-01 7.55272529934199e+00 7.88505814731158e-02
1.42978571428571e-01 7.49091754514070e+00 7.83502672012217e-02
1.43507142857143e-01 7.42961559502415e+00 7.78525954586527e-02
1.44035714285714e-01 7.36881530948803e+00 7.73575601298108e-02
1.44564285714286e-01 7.30851258341132e+00 7.68651549379557e-02
1.45092857142857e-01 7.24870334501129e+00 7.63753735578417e-02
1.45621428571429e-01 7.18938355558471e+00 7.58882094617468e-02
1.46150000000000e-01 7.13054920996741e+00 7.54036560236975e-02
1.46678571428571e-01 7.07219633528853e+00 7.49217065041332e-02
1.47207142857143e-01 7.01432099166685e+00 7.44423540442575e-02
1.47735714285714e-01 6.95691927099077e+00 7.39655916780329e-02
1.48264285714286e-01 6.89998729759794e+00 7.34914123033686e-02
1.48792857142857e-01 6.84352122730699e+00 7.30198087869569e-02
1.49321428571429e-01 6.78751724717258e+00 7.25507738205230e-02
1.49850000000000e-01 6.73197157590222e+00 7.20843000177648e-02
1.50378571428571e-01 6.67688046270298e+00 7.16203798999188e-02
1.50907142857143e-01 6.62224018791632e+00 7.11590058902654e-02
1.51435714285714e-01 6.56804706188857e+00 7.07001703251526e-02
1.51964285714286e-01 6.51429742559058e+00 7.02438654269280e-02
1.52492857142857e-01 6.46098764971999e+00 6.97900834015230e-02
1.53021428571429e-01 6.40811413446957e+00 6.93388163042471e-02
1.53550000000000e-01 6.35567330990530e+00 6.88900561299920e-02
1.54078571428571e-01 6.30366163489806e+00 6.84437947996219e-02
1.54607142857143e-01 6.25207559770276e+00 6.80000241546596e-02
1.55135714285714e-01 6.20091171491188e+00 6.75587359674256e-02
1.55664285714286e-01 6.15016653202083e+00 6.71199219156099e-02
1.56192857142857e-01 6.09983662259516e+00 6.66835736731578e-02
1.56721428571429e-01 6.04991858805139e+00 6.62496827849214e-02
1.57250000000000e-01 6.00040905800014e+00 6.58182407506358e-02
1.57778571428571e-01 5.95130468925596e+00 6.53892390120919e-02
1.58307142857143e-01 5.90260216636596e+00 6.49626689480156e-02
1.58835714285714e-01 5.85429820063969e+00 6.45385218834019e-02
1.59364285714286e-01 5.80638953066528e+00 6.41167890656201e-02
1.59892857142857e-01 5.75887292153639e+00 6.36974617490896e-02
1.60421428571429e-01 5.71174516464501e+00 6.32805310781838e-02
1.60950000000000e-01 5.66500307799286e+00 6.28659881654390e-02
1.61478571428571e-01 5.61864350527326e+00 6.24538240794699e-02
1.62007142857143e-01 5.57266331635372e+00 6.20440298400342e-02
1.62535714285714e-01 5.52705940637634e+00 6.16365964266406e-02
1.63064285714286e-01 5.48182869622903e+00 6.12315147560889e-02
1.63592857142857e-01 5.43696813182770e+00 6.08287757613932e-02
1.64121428571429e-01 5.39247468392027e+00 6.04283702823789e-02
1.64650000000000e-01 5.34834534836947e+00 6.00302891385288e-02
1.65178571428571e-01 5.30457714530095e+00 5.96345231176075e-02
1.65707142857143e-01 5.26116711954417e+00 5.92410629709121e-02
1.66235714285714e-01 5.21811233979763e+00 5.88498994212140e-02
1.66764285714286e-01 5.17540989905939e+00 5.84610231416669e-02
