Energy (eV)          EEDF (eV^-(3/2))     First Anisotropy
4.20588235294118e-02 1.32868100452046e-01 1.19969952368521e-04
1.26176470588235e-01 1.30191745877393e-01 1.96770791429436e-04
2.10294117647059e-01 1.27569300963815e-01 2.56250344337467e-04
2.94411764705882e-01 1.24999679808720e-01 2.99357294295092e-04
3.78529411764706e-01 1.22481818386099e-01 3.33627292659607e-04
4.62647058823529e-01 1.20014674102584e-01 3.61969146790353e-04
5.46764705882353e-01 1.17597225365720e-01 3.85917838631838e-04
6.30882352941176e-01 1.15228471160937e-01 4.06417811149481e-04
7.15000000000000e-01 1.12907430637043e-01 4.24106834347001e-04
7.99117647058824e-01 1.10633142697119e-01 4.39443566005256e-04
8.83235294117647e-01 1.08404665609868e-01 4.52773233353866e-04
9.67352941176471e-01 1.06221076609820e-01 4.64364821258178e-04
1.05147058823529e+00 1.04081471528631e-01 4.74433667054428e-04
1.13558823529412e+00 1.01984964384521e-01 4.83155955765533e-04
1.21970588235294e+00 9.99306870590103e-02 4.90678436157516e-04
1.30382352941176e+00 9.79177889198813e-02 4.97125173189505e-04
1.38794117647059e+00 9.59454364840677e-02 5.02602382786674e-04
1.47205882352941e+00 9.40128130268726e-02 5.07201979044896e-04
1.55617647058824e+00 9.21191182900190e-02 5.11004235446314e-04
1.64029411764706e+00 9.02635681465910e-02 5.14079828360099e-04
1.72441176470588e+00 8.84453942405969e-02 5.16491420336668e-04
1.80852941176471e+00 8.66638437049145e-02 5.18294910761555e-04
1.89264705882353e+00 8.49181788373993e-02 5.19540439905194e-04
1.97676470588235e+00 8.32076768042929e-02 5.20273201788508e-04
2.06088235294118e+00 8.15316293136446e-02 5.20534107355791e-04
2.14500000000000e+00 7.98893423497483e-02 5.20360331860204e-04
2.22911764705882e+00 7.82801358838171e-02 5.19785777002198e-04
2.31323529411765e+00 7.67033435698949e-02 5.18841454479125e-04
2.39735294117647e+00 7.51583124917071e-02 5.17555810824440e-04
2.48147058823529e+00 7.36444028908051e-02 5.15955009476273e-04
2.56558823529412e+00 7.21609878828802e-02 5.14063168447963e-04
2.64970588235294e+00 7.07074532172328e-02 5.11902565986713e-04
2.73382352941176e+00 6.92831970159550e-02 5.09493821355260e-04
2.81794117647059e+00 6.78876295297591e-02 5.06856052455712e-04
2.90205882352941e+00 6.65201728784532e-02 5.04007012529848e-04
2.98617647058824e+00 6.51802608271694e-02 5.00963210076123e-04
3.07029411764706e+00 6.38673385510115e-02 4.97740018813657e-04
3.15441176470588e+00 6.25808623921604e-02 4.94351771779659e-04
3.23852941176471e+00 6.13202996480669e-02 4.90811845541237e-04
3.32264705882353e+00 6.00851283463835e-02 4.87132737252858e-04
3.40676470588235e+00 5.88748370324066e-02 4.83326133660845e-04
3.49088235294118e+00 5.76889245463478e-02 4.79402971975362e-04
3.57500000000000e+00 5.65268998269261e-02 4.75373494441832e-04
3.65911764705882e+00 5.53882817074170e-02 4.71247300824434e-04
3.74323529411765e+00 5.42725987068731e-02 4.67033393171114e-04
3.82735294117647e+00 5.31793888445522e-02 4.62740216537110e-04
3.91147058823529e+00 5.21081994481043e-02 4.58375698911586e-04
3.99558823529412e+00 5.10585869577926e-02 4.53947285102260e-04
4.07970588235294e+00 5.00301167512811e-02 4.49461968030549e-04
4.16382352941176e+00 4.90223629607993e-02 4.44926318696082e-04
4.24794117647059e+00 4.80349082991417e-02 4.40346513608900e-04
4.33205882352941e+00 4.70673438797693e-02 4.35728359139009e-04
4.41617647058824e+00 4.61192690546986e-02 4.31077313703184e-04
4.50029411764706e+00 4.51902912482476e-02 4.26398510523923e-04
4.58441176470588e+00 4.42800257881869e-02 4.21696776568443e-04
4.66852941176471e+00 4.33880957528253e-02 4.16976650315132e-04
4.75264705882353e+00 4.25141318127854e-02 4.12242399256098e-04
4.83676470588235e+00 4.16577720798431e-02 4.07498036063943e-04
4.92088235294118e+00 4.08186619516710e-02 4.02747332880292e-04
5.00500000000000e+00 3.99964539704908e-02 3.97993834406236e-04
5.08911764705882e+00 3.91908076789310e-02 3.93240871951201e-04
5.17323529411765e+00 3.84013894742323e-02 3.88491574806614e-04
5.25735294117647e+00 3.76278724749901e-02 3.83748880881175e-04
5.34147058823529e+00 3.68699363855669e-02 3.79015548333542e-04
5.42558823529412e+00 3.61272673591650e-02 3.74294164868285e-04
5.50970588235294e+00 3.53995578722294e-02 3.69587156613863e-04
5.59382352941176e+00 3.46865065956316e-02 3.64896797206237e-04
5.67794117647059e+00 3.39878182711278e-02 3.60225216240232e-04
5.76205882352941e+00 3.33032035853571e-02 3.55574406640704e-04
5.84617647058824e+00 3.26323790538336e-02 3.50946231426536e-04
5.93029411764706e+00 3.19750669033899e-02 3.46342431460704e-04
6.01441176470588e+00 3.13309949537950e-02 3.41764631427683e-04
6.09852941176471e+00 3.06998965084555e-02 3.37214345600565e-04
6.18264705882353e+00 3.00815102428331e-02 3.32692983901902e-04
6.26676470588235e+00 2.94755800971986e-02 3.28201857556410e-04
6.35088235294118e+00 2.88818551676651e-02 3.23742183952124e-04
6.43500000000000e+00 2.83000896052746e-02 3.19315091094745e-04
6.51911764705882e+00 2.77300425140622e-02 3.14921622961723e-04
6.60323529411765e+00 2.71714778486556e-02 3.10562743467667e-04
6.68735294117647e+00 2.66241643192189e-02 3.06239340218942e-04
6.77147058823529e+00 2.60878752955610e-02 3.01952229120003e-04
6.85558823529412e+00 2.55623887108997e-02 2.97702157724204e-04
6.93970588235294e+00 2.50474869723350e-02 2.93489808511499e-04
7.02382352941177e+00 2.45429568699272e-02 2.89315802467257e-04
7.10794117647059e+00 2.40485894891047e-02 2.85180702423368e-04
7.19205882352941e+00 2.35641801220493e-02 2.81085015862051e-04
7.27617647058824e+00 2.30895281850666e-02 2.77029197469143e-04
7.36029411764706e+00 2.26244371354370e-02 2.73013652432735e-04
7.44441176470588e+00 2.21687143881205e-02 2.69038738731644e-04
7.52852941176471e+00 2.17221712379470e-02 2.65104769393699e-04
7.61264705882353e+00 2.12846227808245e-02 2.61212015034605e-04
7.69676470588235e+00 2.08558878377273e-02 2.57360706226418e-04
7.78088235294118e+00 2.04357888779862e-02 2.53551035442366e-04
7.86500000000000e+00 2.00241519474886e-02 2.49783158817036e-04
7.94911764705882e+00 1.96208065965743e-02 2.46057198550037e-04
8.03323529411765e+00 1.92255858079211e-02 2.42373244486704e-04
8.11735294117647e+00 1.88383259289418e-02 2.38731355623080e-04
8.20147058823529e+00 1.84588666039524e-02 2.35131562212015e-04
8.28558823529412e+00 1.80870507063771e-02 2.31573867115316e-04
8.36970588235294e+00 1.77227242751005e-02 2.28058247156577e-04
8.45382352941177e+00 1.73657364502365e-02 2.24584654711664e-04
8.53794117647059e+00 1.70159394110680e-02 2.21153019188493e-04
8.62205882352941e+00 1.66731883135992e-02 2.17763248198778e-04
8.70617647058824e+00 1.63373412318333e-02 2.14415228604309e-04
8.79029411764706e+00 1.60082590989528e-02 2.11108828078036e-04
8.87441176470588e+00 1.56858056486045e-02 2.07843896044028e-04
8.95852941176471e+00 1.53698473596193e-02 2.04620264627361e-04
9.04264705882353e+00 1.50602534003378e-02 2.01437749812821e-04
9.12676470588235e+00 1.47568955747651e-02 1.98296152519705e-04
9.21088235294118e+00 1.44596482684827e-02 1.95195259425834e-04
9.29500000000000e+00 1.41683883976533e-02 1.92134843694413e-04
9.37911764705882e+00 1.38829953580126e-02 1.89114666140300e-04
9.46323529411765e+00 1.36033509740106e-02 1.86134475881377e-04
9.54735294117647e+00 1.33293394508087e-02 1.83194010959413e-04
9.63147058823530e+00 1.30608473262930e-02 1.80292999370348e-04
9.71558823529412e+00 1.27977634232527e-02 1.77431159619855e-04
9.79970588235294e+00 1.25399788041950e-02 1.74608201295110e-04
9.88382352941177e+00 1.22873867259488e-02 1.71823825806415e-04
9.96794117647059e+00 1.20398825957105e-02 1.69077727070963e-04
1.00520588235294e+01 1.17973639269856e-02 1.66369591813672e-04
1.01361764705882e+01 1.15597302990618e-02 1.63699100813451e-04
1.02202941176471e+01 1.13268833105413e-02 1.61065928399660e-04
1.03044117647059e+01 1.10987265466642e-02 1.58469743630274e-04
1.03885294117647e+01 1.08751655303278e-02 1.55910210691398e-04
1.04726470588235e+01 1.06561076917745e-02 1.53386989216832e-04
1.05567647058824e+01 1.04414623216933e-02 1.50899734853910e-04
1.06408823529412e+01 1.02311405419918e-02 1.48448099547134e-04
1.07250000000000e+01 1.00250552608884e-02 1.46031732057296e-04
1.08091176470588e+01 9.82312114473393e-03 1.43650278212469e-04
1.08932352941176e+01 9.62525457500654e-03 1.41303381384204e-04
1.09773529411765e+01 9.43137362114939e-03 1.38990682708869e-04
1.10614705882353e+01 9.24139799938447e-03 1.36711821524308e-04
1.11455882352941e+01 9.05524904653311e-03 1.34466435564272e-04
1.12297058823529e+01 8.87284968056948e-03 1.32254161358708e-04
1.13138235294118e+01 8.69412437539118e-03 1.30074634403714e-04
1.13979411764706e+01 8.51899912303670e-03 1.27927489528334e-04
1.14820588235294e+01 8.34740140937431e-03 1.25812360783131e-04
1.15661764705882e+01 8.17926017934710e-03 1.23728882818275e-04
1.16502941176471e+01 8.01450580777617e-03 1.21676689462369e-04
1.17344117647059e+01 7.85307007475790e-03 1.19655414991824e-04
1.18185294117647e+01 7.69488613179370e-03 1.17664694134772e-04
1.19026470588235e+01 7.53988847958211e-03 1.15704162172998e-04
1.19867647058824e+01 7.38801293556926e-03 1.13773455209769e-04
1.20708823529412e+01 7.23919661255895e-03 1.11872210255885e-04
1.21550000000000e+01 7.09337788762274e-03 1.10000065474358e-04
1.22391176470588e+01 6.95049638149958e-03 1.08156660252061e-04
1.23232352941176e+01 6.81049292880720e-03 1.06341635423066e-04
1.24073529411765e+01 6.67330955820389e-03 1.04554633327253e-04
1.24914705882353e+01 6.53888946384533e-03 1.02795298013950e-04
1.25755882352941e+01 6.40717698628188e-03 1.01063275288740e-04
1.26597058823529e+01 6.27811758510756e-03 9.93582128989413e-05
1.27438235294118e+01 6.15165782056709e-03 9.76797605697260e-05
1.28279411764706e+01 6.02774532734601e-03 9.60275701728537e-05
1.29120588235294e+01 5.90632879686243e-03 9.44012955801886e-05
1.29961764705882e+01 5.78735795305346e-03 9.28005935124221e-05
1.30802941176471e+01 5.67078353169365e-03 9.12251225232376e-05
1.31644117647059e+01 5.55655726266023e-03 8.96745437806211e-05
1.32485294117647e+01 5.44463184640236e-03 8.81485210057415e-05
1.33326470588235e+01 5.33496093780696e-03 8.66467204799357e-05
1.34167647058824e+01 5.22749912364570e-03 8.51688111637393e-05
1.35008823529412e+01 5.12220190704608e-03 8.37144646971365e-05
1.35850000000000e+01 5.01902568587491e-03 8.22833555069795e-05
1.36691176470588e+01 4.91792773779274e-03 8.08751608012168e-05
1.37532352941176e+01 4.81886619953421e-03 7.94895606656004e-05
1.38373529411765e+01 4.72180005252486e-03 7.81262380525168e-05
1.39214705882353e+01 4.62668910302033e-03 7.67848788678283e-05
1.40055882352941e+01 4.53349396826524e-03 7.54651719548797e-05
1.40897058823529e+01 4.44217605745501e-03 7.41668091722483e-05
1.41738235294118e+01 4.35269755841713e-03 7.28894853734640e-05
1.42579411764706e+01 4.26502141936089e-03 7.16328984763759e-05
1.43420588235294e+01 4.17911133606198e-03 7.03967493229290e-05
1.44261764705882e+01 4.09493173494291e-03 6.91807422077751e-05
1.45102941176471e+01 4.01244775842719e-03 6.79845841567720e-05
1.45944117647059e+01 3.93162525220510e-03 6.68079854130070e-05
1.46785294117647e+01 3.85243074883121e-03 6.56506593582830e-05
1.47626470588235e+01 3.77483145606900e-03 6.45123224817601e-05
1.48467647058824e+01 3.69879524116513e-03 6.33926944245221e-05
1.49308823529412e+01 3.62429061963692e-03 6.22914979457683e-05
1.50150000000000e+01 3.55128674019509e-03 6.12084589616507e-05
1.50991176470588e+01 3.47975337395771e-03 6.01433065093447e-05
1.51832352941176e+01 3.40966089999428e-03 5.90957727806140e-05
1.52673529411765e+01 3.34098029495038e-03 5.80655930840543e-05
1.53514705882353e+01 3.27368311918711e-03 5.70525058738186e-05
1.54355882352941e+01 3.20774150680122e-03 5.60562527103088e-05
1.55197058823529e+01 3.14312815233508e-03 5.50765782844614e-05
1.56038235294118e+01 3.07981630117755e-03 5.41132303771281e-05
1.56879411764706e+01 3.01777973682070e-03 5.31659598792932e-05
1.57720588235294e+01 2.95699277162724e-03 5.22345206719970e-05
1.58561764705882e+01 2.89743023498185e-03 5.13186699579255e-05
1.59402941176471e+01 2.83906746292142e-03 5.04181677504579e-05
1.60244117647059e+01 2.78188028901700e-03 4.95327771780298e-05
1.61085294117647e+01 2.72584503291137e-03 4.86622644081591e-05
1.61926470588235e+01 2.67093849193298e-03 4.78063986041039e-05
1.62767647058824e+01 2.61713793010393e-03 4.69649519331569e-05
1.63608823529412e+01 2.56442107007546e-03 4.61376995228293e-05
1.64450000000000e+01 2.51276608258685e-03 4.53244194664541e-05
1.65291176470588e+01 2.46215157871031e-03 4.45248927790454e-05
1.66132352941176e+01 2.41255659974207e-03 4.37389034004462e-05
1.66973529411765e+01 2.36396060974514e-03 4.29662381509927e-05
1.67814705882353e+01 2.31634348585464e-03 4.22066867324332e-05
1.68655882352941e+01 2.26968551110710e-03 4.14600416835210e-05
1.69497058823529e+01 2.22396736514298e-03 4.07260983789067e-05
1.70338235294118e+01 2.17917011731174e-03 4.00046549847652e-05
1.71179411764706e+01 2.13527521775501e-03 3.92955124558591e-05
1.72020588235294e+01 2.09226449077702e-03 3.85984744381938e-05
1.72861764705882e+01 2.05012012653321e-03 3.79133474779214e-05
1.73702941176471e+01 2.00882467368911e-03 3.72399406599554e-05
1.74544117647059e+01 1.96836103290502e-03 3.65780657993134e-05
1.75385294117647e+01 1.92871244881027e-03 3.59275373751202e-05
1.76226470588235e+01 1.88986250398732e-03 3.52881724871903e-05
1.77067647058824e+01 1.85179511127409e-03 3.46597908478495e-05
1.77908823529412e+01 1.81449450798018e-03 3.40422147389068e-05
1.78750000000000e+01 1.77794524850368e-03 3.34352690023500e-05
1.79591176470588e+01 1.74213219877084e-03 3.28387809977610e-05
1.80432352941176e+01 1.70704052915434e-03 3.22525805920142e-05
1.81273529411765e+01 1.67265570912782e-03 3.16765001171841e-05
1.82114705882353e+01 1.63896350047330e-03 3.11103743593567e-05
1.82955882352941e+01 1.60594995214237e-03 3.05540405170818e-05
1.83797058823529e+01 1.57360139374078e-03 3.00073381894014e-05
1.84638235294118e+01 1.54190443058848e-03 2.94701093348825e-05
1.85479411764706e+01 1.51084593747002e-03 2.89421982589623e-05
1.86320588235294e+01 1.48041305388575e-03 2.84234515374950e-05
1.87161764705882e+01 1.45059317821419e-03 2.79137181486580e-05
1.88002941176471e+01 1.42137396251551e-03 2.74128492174643e-05
1.88844117647059e+01 1.39274330788324e-03 2.69206981362699e-05
1.89685294117647e+01 1.36468935881642e-03 2.64371205105326e-05
1.90526470588235e+01 1.33720049891353e-03 2.59619741202143e-05
1.91367647058824e+01 1.31026534547391e-03 2.54951189052993e-05
1.92208823529412e+01 1.28387274535868e-03 2.50364169278936e-05
1.93050000000000e+01 1.25801176981206e-03 2.45857323574134e-05
1.93891176470588e+01 1.23267171048291e-03 2.41429314333993e-05
1.94732352941176e+01 1.20784207445687e-03 2.37078824504337e-05
1.95573529411765e+01 1.18351258043242e-03 2.32804557216824e-05
1.96414705882353e+01 1.15967315395513e-03 2.28605235635988e-05
1.97255882352941e+01 1.13631392374232e-03 2.24479602602034e-05
1.98097058823529e+01 1.11342521711123e-03 2.20426420476243e-05
1.98938235294118e+01 1.09099755644648e-03 2.16444470791236e-05
1.99779411764706e+01 1.06902165481417e-03 2.12532554095211e-05
2.00620588235294e+01 1.04748841256678e-03 2.08689489363520e-05
2.01461764705882e+01 1.02638891323878e-03 2.04914114832022e-05
2.02302941176471e+01 1.00571441986848e-03 2.01205286190902e-05
2.03144117647059e+01 9.85456371685771e-04 1.97561877343652e-05
2.03985294117647e+01 9.65606380161009e-04 1.93982779975831e-05
2.04826470588235e+01 9.46156225928127e-04 1.90466903232297e-05
2.05667647058824e+01 9.27097854993988e-04 1.87013173559914e-05
2.06508823529412e+01 9.08423375781355e-04 1.83620534392307e-05
2.07350000000000e+01 8.90125055492190e-04 1.80287945993063e-05
2.08191176470588e+01 8.72195317265858e-04 1.77014385147968e-05
2.09032352941176e+01 8.54626736690079e-04 1.73798845008985e-05
2.09873529411765e+01 8.37412039069909e-04 1.70640334793937e-05
2.10714705882353e+01 8.20544096080325e-04 1.67537879631505e-05
2.11555882352941e+01 8.04015923141694e-04 1.64490520268316e-05
2.12397058823529e+01 7.87820676208213e-04 1.61497312915164e-05
2.13238235294118e+01 7.71951649245755e-04 1.58557328961444e-05
2.14079411764706e+01 7.56402271150607e-04 1.55669654822805e-05
2.14920588235294e+01 7.41166103325741e-04 1.52833391494544e-05
2.15761764705882e+01 7.26236836792749e-04 1.50047655077587e-05
2.16602941176471e+01 7.11608289588478e-04 1.47311575501333e-05
2.17444117647059e+01 6.97274404407163e-04 1.44624297000962e-05
2.18285294117647e+01 6.83229245823714e-04 1.41984977781956e-05
2.19126470588235e+01 6.69466998098157e-04 1.39392789759937e-05
2.19967647058824e+01 6.55981962511464e-04 1.36846918414276e-05
2.20808823529412e+01 6.42768555255795e-04 1.34346562534846e-05
2.21650000000000e+01 6.29821304878290e-04 1.31890934077769e-05
2.22491176470588e+01 6.17134850253781e-04 1.29479257918975e-05
2.23332352941176e+01 6.04703938132144e-04 1.27110771712154e-05
2.24173529411765e+01 5.92523421190285e-04 1.24784725649035e-05
2.25014705882353e+01 5.80588255678841e-04 1.22500382319641e-05
2.25855882352941e+01 5.68893499550354e-04 1.20257016479157e-05
2.26697058823529e+01 5.57434310201279e-04 1.18053914910557e-05
2.27538235294118e+01 5.46205942673392e-04 1.15890376197959e-05
2.28379411764706e+01 5.35203747487226e-04 1.13765710591691e-05
2.29220588235294e+01 5.24423168913858e-04 1.11679239672667e-05
2.30061764705882e+01 5.13859742941324e-04 1.09630296683614e-05
2.30902941176471e+01 5.03509095432084e-04 1.07618225625704e-05
2.31744117647059e+01 4.93366940445845e-04 1.05642381557807e-05
2.32585294117647e+01 4.83429078286604e-04 1.03702130339456e-05
2.33426470588235e+01 4.73691393937713e-04 1.01796848426139e-05
2.34267647058824e+01 4.64149855187937e-04 9.99259227430244e-06
2.35108823529412e+01 4.54800511127827e-04 9.80887504861659e-06
2.35950000000000e+01 4.45639490351586e-04 9.62847389988378e-06
2.36791176470588e+01 4.36662999512360e-04 9.45133055785190e-06
2.37632352941176e+01 4.27867321596830e-04 9.27738773558589e-06
2.38473529411765e+01 4.19248814537132e-04 9.10658911073234e-06
2.39314705882353e+01 4.10803909555216e-04 8.93887931367841e-06
2.40155882352941e+01 4.02529109829192e-04 8.77420390937049e-06
2.40997058823529e+01 3.94420988904626e-04 8.61250938573617e-06
2.41838235294118e+01 3.86476189413183e-04 8.45374313604242e-06
2.42679411764706e+01 3.78691421548144e-04 8.29785344758117e-06
2.43520588235294e+01 3.71063461833312e-04 8.14478947663857e-06
2.44361764705882e+01 3.63589151690288e-04 7.99450126927278e-06
2.45202941176471e+01 3.56265396134478e-04 7.84693969739259e-06
2.46044117647059e+01 3.49089162582837e-04 7.70205647743264e-06
2.46885294117647e+01 3.42057479479391e-04 7.55980415087859e-06
2.47726470588235e+01 3.35167435180776e-04 7.42013606843258e-06
2.48567647058824e+01 3.28416176637279e-04 7.28300637959417e-06
2.49408823529412e+01 3.21800908322134e-04 7.14837001730882e-06
2.50250000000000e+01 3.15318890965831e-04 7.01618268780501e-06
2.51091176470588e+01 3.08967440527465e-04 6.88640085571425e-06
2.51932352941176e+01 3.02743926980151e-04 6.75898173416187e-06
2.52773529411765e+01 2.96645773322776e-04 6.63388327034545e-06
2.53614705882353e+01 2.90670454414464e-04 6.51106413587644e-06
2.54455882352941e+01 2.84815496025141e-04 6.39048371280631e-06
2.55297058823529e+01 2.79078473717059e-04 6.27210208421540e-06
2.56138235294118e+01 2.73457011932666e-04 6.15588002067392e-06
2.56979411764706e+01 2.67948782921281e-04 6.04177897107528e-06
2.57820588235294e+01 2.62551505862809e-04 5.92976104407701e-06
2.58661764705882e+01 2.57262945857882e-04 5.81978902106358e-06
2.59502941176471e+01 2.52080913005012e-04 5.71182631090052e-06
2.60344117647059e+01 2.47003261553521e-04 5.60583696151225e-06
2.61185294117647e+01 2.42027888935630e-04 5.50178564525124e-06
2.62026470588235e+01 2.37152734973400e-04 5.39963764680303e-06
2.62867647058824e+01 2.32375780949875e-04 5.29935885483569e-06
2.63708823529412e+01 2.27695048847207e-04 5.20091575028831e-06
2.64550000000000e+01 2.23108600455272e-04 5.10427539824827e-06
2.65391176470588e+01 2.18614536639765e-04 5.00940543661335e-06
