Energy (eV)          EEDF (eV^-(3/2))     First Anisotropy
3.90909090909091e-03 1.73398899064110e+00 1.11125662235620e-03
1.17272727272727e-02 1.71596656707985e+00 1.83162193935131e-03
1.95454545454545e-02 1.69813146178565e+00 2.40901455575699e-03
2.73636363636364e-02 1.68048172773422e+00 2.84226503861117e-03
3.51818181818182e-02 1.66301543834697e+00 3.19916073403674e-03
4.30000000000000e-02 1.64573068695705e+00 3.50546636926601e-03
5.08181818181818e-02 1.62862558672124e+00 3.77458201353945e-03
5.86363636363636e-02 1.61169827041073e+00 4.01463906507676e-03
6.64545454545454e-02 1.59494689020575e+00 4.23105631923724e-03
7.42727272727273e-02 1.57836961747013e+00 4.42768184707328e-03
8.20909090909091e-02 1.56196464262159e+00 4.60737756089867e-03
8.99090909090909e-02 1.54573017486024e+00 4.77234829442050e-03
9.77272727272727e-02 1.52966444199895e+00 4.92434058132848e-03
1.05545454545455e-01 1.51376569020760e+00 5.06476944039804e-03
1.13363636363636e-01 1.49803218412668e+00 5.19480291522099e-03
1.21181818181818e-01 1.48246220611097e+00 5.31542042147892e-03
1.29000000000000e-01 1.46705405651541e+00 5.42745424219726e-03
1.36818181818182e-01 1.45180605335891e+00 5.53161987368992e-03
1.44636363636364e-01 1.43671653214207e+00 5.62853862376804e-03
1.52454545454545e-01 1.42178384566621e+00 5.71875479286705e-03
1.60272727272727e-01 1.40700636394444e+00 5.80274898847893e-03
1.68090909090909e-01 1.39238247374313e+00 5.88094853318955e-03
1.75909090909091e-01 1.37791057869208e+00 5.95373573540143e-03
1.83727272727273e-01 1.36358909901203e+00 6.02145458336498e-03
1.91545454545455e-01 1.34941647134420e+00 6.08441615038670e-03
1.99363636363636e-01 1.33539114864777e+00 6.14290306807936e-03
2.07181818181818e-01 1.32151159982009e+00 6.19717319876831e-03
2.15000000000000e-01 1.30777630974406e+00 6.24746269996128e-03
2.22818181818182e-01 1.29418377904972e+00 6.29398863759380e-03
2.30636363636364e-01 1.28073252395094e+00 6.33695117331160e-03
2.38454545454545e-01 1.26742107608372e+00 6.37653542987616e-03
2.46272727272727e-01 1.25424798239815e+00 6.41291311473034e-03
2.54090909090909e-01 1.24121180483978e+00 6.44624389182242e-03
2.61909090909091e-01 1.22831112035510e+00 6.47667656911276e-03
2.69727272727273e-01 1.21554452068082e+00 6.50435016278645e-03
2.77545454545455e-01 1.20291061219099e+00 6.52939480018294e-03
2.85363636363636e-01 1.19040801578717e+00 6.55193253980660e-03
2.93181818181818e-01 1.17803536661787e+00 6.57207806953438e-03
3.01000000000000e-01 1.16579131406141e+00 6.58993932363601e-03
3.08818181818182e-01 1.15367452153379e+00 6.60561805755517e-03
3.16636363636364e-01 1.14168366634292e+00 6.61921034001909e-03
3.24454545454545e-01 1.12981743954439e+00 6.63080699372000e-03
3.32272727272727e-01 1.11807454583295e+00 6.64049400900267e-03
3.40090909090909e-01 1.10645370329621e+00 6.64835289398284e-03
3.47909090909091e-01 1.09495364338099e+00 6.65446098948618e-03
3.55727272727273e-01 1.08357311071875e+00 6.65889177711453e-03
3.63545454545455e-01 1.07231086298894e+00 6.66171513652215e-03
3.71363636363636e-01 1.06116567081239e+00 6.66299760019558e-03
3.79181818181818e-01 1.05013631752850e+00 6.66280256561766e-03
3.87000000000000e-01 1.03922159915209e+00 6.66119048820492e-03
3.94818181818182e-01 1.02842032421167e+00 6.65821907867991e-03
4.02636363636364e-01 1.01773131361944e+00 6.65394346779647e-03
4.10454545454545e-01 1.00715340054264e+00 6.64841635804412e-03
4.18272727272727e-01 9.96685430300480e-01 6.64168817782531e-03
4.26090909090909e-01 9.86326260164162e-01 6.63380720581881e-03
4.33909090909091e-01 9.76074759306919e-01 6.62481968518165e-03
4.41727272727273e-01 9.65929808655247e-01 6.61476994768956e-03
4.49545454545455e-01 9.55890300766972e-01 6.60370051094816e-03
4.57363636363636e-01 9.45955139731314e-01 6.59165218541959e-03
4.65181818181818e-01 9.36123240985338e-01 6.57866415768331e-03
4.73000000000000e-01 9.26393531260196e-01 6.56477406736603e-03
4.80818181818182e-01 9.16764948442135e-01 6.55001809564042e-03
4.88636363636364e-01 9.07236441456605e-01 6.53443103460411e-03
4.96454545454545e-01 8.97806970153559e-01 6.51804635240991e-03
5.04272727272727e-01 8.88475505211840e-01 6.50089626602686e-03
5.12090909090909e-01 8.79241027972322e-01 6.48301179484110e-03
5.19909090909091e-01 8.70102530381797e-01 6.46442281045045e-03
5.27727272727273e-01 8.61059014864304e-01 6.44515809848141e-03
5.35545454545455e-01 8.52109494212371e-01 6.42524540209353e-03
5.43363636363636e-01 8.43252991494967e-01 6.40471147668390e-03
5.51181818181818e-01 8.34488539903005e-01 6.38358212807077e-03
5.59000000000000e-01 8.25815182692155e-01 6.36188224808265e-03
5.66818181818182e-01 8.17231973062096e-01 6.33963586193111e-03
5.74636363636364e-01 8.08737974053184e-01 6.31686616206679e-03
5.82454545454545e-01 8.00332258444200e-01 6.29359554043511e-03
5.90272727272727e-01 7.92013908664770e-01 6.26984562875302e-03
5.98090909090909e-01 7.83782016653792e-01 6.24563732460073e-03
6.05909090909091e-01 7.75635683802143e-01 6.22099081580213e-03
6.13727272727273e-01 7.67574020840454e-01 6.19592561600316e-03
6.21545454545455e-01 7.59596147742127e-01 6.17046058634691e-03
6.29363636363636e-01 7.51701193639357e-01 6.14461396748862e-03
6.37181818181818e-01 7.43888296691297e-01 6.11840339893926e-03
6.45000000000000e-01 7.36156604027120e-01 6.09184593716353e-03
6.52818181818182e-01 7.28505271640390e-01 6.06495808426254e-03
6.60636363636364e-01 7.20933464296954e-01 6.03775580622996e-03
6.68454545454545e-01 7.13440355443779e-01 6.01025455056792e-03
6.76272727272727e-01 7.06025127129325e-01 5.98246927122428e-03
6.84090909090909e-01 6.98686969882091e-01 5.95441444232447e-03
6.91909090909091e-01 6.91425082654735e-01 5.92610407102249e-03
6.99727272727273e-01 6.84238672725661e-01 5.89755172017621e-03
7.07545454545454e-01 6.77126955612552e-01 5.86877051990973e-03
7.15363636363636e-01 6.70089154996207e-01 5.83977318823661e-03
7.23181818181818e-01 6.63124502606998e-01 5.81057204150005e-03
7.31000000000000e-01 6.56232238170083e-01 5.78117900413772e-03
7.38818181818182e-01 6.49411609312612e-01 5.75160562763363e-03
7.46636363636364e-01 6.42661871481612e-01 5.72186310107661e-03
7.54454545454545e-01 6.35982287862722e-01 5.69196226146823e-03
7.62272727272727e-01 6.29372129308136e-01 5.66191361044823e-03
7.70090909090909e-01 6.22830674231604e-01 5.63172732187734e-03
7.77909090909091e-01 6.16357208555307e-01 5.60141324891599e-03
7.85727272727273e-01 6.09951025623258e-01 5.57098093956788e-03
7.93545454545455e-01 6.03611426124205e-01 5.54043964310027e-03
8.01363636363636e-01 5.97337718022830e-01 5.50979832427826e-03
8.09181818181818e-01 5.91129216461310e-01 5.47906566920890e-03
8.17000000000000e-01 5.84985243707669e-01 5.44825009078363e-03
8.24818181818182e-01 5.78905129074010e-01 5.41735974201302e-03
8.32636363636364e-01 5.72888208843309e-01 5.38640252244262e-03
8.40454545454545e-01 5.66933826196972e-01 5.35538608448927e-03
8.48272727272727e-01 5.61041331149843e-01 5.32431784532831e-03
8.56090909090909e-01 5.55210080458916e-01 5.29320499118054e-03
8.63909090909091e-01 5.49439437573643e-01 5.26205448128714e-03
8.71727272727273e-01 5.43728772559520e-01 5.23087305914110e-03
8.79545454545455e-01 5.38077462029359e-01 5.19966725610942e-03
8.87363636363636e-01 5.32484889081304e-01 5.16844340176231e-03
8.95181818181818e-01 5.26950443213074e-01 5.13720762718860e-03
9.03000000000000e-01 5.21473520273901e-01 5.10596586805391e-03
9.10818181818182e-01 5.16053522392321e-01 5.07472387441944e-03
9.18636363636364e-01 5.10689857910922e-01 5.04348721477769e-03
9.26454545454545e-01 5.05381941321759e-01 5.01226128008679e-03
9.34272727272727e-01 5.00129193207863e-01 4.98105129258303e-03
9.42090909090909e-01 4.94931040163553e-01 4.94986230820523e-03
9.49909090909091e-01 4.89786914748430e-01 4.91869921881090e-03
9.57727272727273e-01 4.84696255419843e-01 4.88756676061003e-03
9.65545454545454e-01 4.79658506471611e-01 4.85646951618896e-03
9.73363636363636e-01 4.74673117978295e-01 4.82541192228663e-03
9.81181818181818e-01 4.69739545720208e-01 4.79439827165234e-03
9.89000000000000e-01 4.64857251139096e-01 4.76343271472697e-03
9.96818181818182e-01 4.60025701274270e-01 4.73251926389842e-03
1.00463636363636e+00 4.55244368718133e-01 4.70166180372781e-03
1.01245454545455e+00 4.50512731526087e-01 4.67086410288357e-03
1.02027272727273e+00 4.45830273138907e-01 4.64012977931606e-03
1.02809090909091e+00 4.41196482455542e-01 4.60946233062543e-03
1.03590909090909e+00 4.36610853642057e-01 4.57886515794549e-03
1.04372727272727e+00 4.32072886121884e-01 4.54834153646103e-03
1.05154545454545e+00 4.27582084521358e-01 4.51789463932071e-03
1.05936363636364e+00 4.23137958575127e-01 4.48752751119112e-03
1.06718181818182e+00 4.18740023195116e-01 4.45724309103973e-03
1.07500000000000e+00 4.14387798293844e-01 4.42704423519912e-03
1.08281818181818e+00 4.10080808773648e-01 4.39693368967890e-03
1.09063636363636e+00 4.05818584474861e-01 4.36691410311406e-03
1.09845454545455e+00 4.01600660124524e-01 4.33698803838503e-03
1.10627272727273e+00 3.97426575249237e-01 4.30715794806018e-03
1.11409090909091e+00 3.93295874234927e-01 4.27742619508150e-03
1.12190909090909e+00 3.89208106165974e-01 4.24779507372135e-03
1.12972727272727e+00 3.85162824813346e-01 4.21826678392189e-03
1.13754545454545e+00 3.81159588586022e-01 4.18884345135513e-03
1.14536363636364e+00 3.77197960449398e-01 4.15952710434993e-03
1.15318181818182e+00 3.73277507978517e-01 4.13031969302736e-03
1.16100000000000e+00 3.69397803208925e-01 4.10122310869851e-03
1.16881818181818e+00 3.65558422624244e-01 4.07223915977883e-03
1.17663636363636e+00 3.61758947109973e-01 4.04336958253960e-03
1.18445454545455e+00 3.57998961907765e-01 4.01461605074797e-03
1.19227272727273e+00 3.54278056540085e-01 3.98598015425985e-03
1.20009090909091e+00 3.50595824856376e-01 3.95746341646426e-03
1.20790909090909e+00 3.46951864896857e-01 3.92906731197764e-03
1.21572727272727e+00 3.43345778879519e-01 3.90079324432833e-03
1.22354545454545e+00 3.39777173156807e-01 3.87264256290872e-03
1.23136363636364e+00 3.36245658144973e-01 3.84461654287066e-03
1.23918181818182e+00 3.32750848365207e-01 3.81671640130837e-03
1.24700000000000e+00 3.29292362317088e-01 3.78894331368296e-03
1.25481818181818e+00 3.25869822465346e-01 3.76129839287978e-03
1.26263636363636e+00 3.22482855198676e-01 3.73378269821438e-03
1.27045454545455e+00 3.19131090788974e-01 3.70639724350217e-03
1.27827272727273e+00 3.15814163325988e-01 3.67914297841011e-03
1.28609090909091e+00 3.12531710752986e-01 3.65202080325673e-03
1.29390909090909e+00 3.09283374750894e-01 3.62503158403908e-03
1.30172727272727e+00 3.06068800724836e-01 3.59817613302820e-03
1.30954545454545e+00 3.02887637765504e-01 3.57145522317469e-03
1.31736363636364e+00 2.99739538587803e-01 3.54486957059611e-03
1.32518181818182e+00 2.96624159562621e-01 3.51841984833832e-03
1.33300000000000e+00 2.93541160608973e-01 3.49210670035440e-03
1.34081818181818e+00 2.90490205180531e-01 3.46593072329156e-03
1.34863636363636e+00 2.87470960228908e-01 3.43989247408702e-03
1.35645454545455e+00 2.84483096167317e-01 3.41399247676910e-03
1.36427272727273e+00 2.81526286813722e-01 3.38823120621346e-03
1.37209090909091e+00 2.78600209418371e-01 3.36260910075939e-03
1.37990909090909e+00 2.75704544564832e-01 3.33712657502959e-03
1.38772727272727e+00 2.72838976156534e-01 3.31178400305079e-03
1.39554545454545e+00 2.70003191382333e-01 3.28658173054974e-03
1.40336363636364e+00 2.67196880663074e-01 3.26152005969603e-03
1.41118181818182e+00 2.64419737676093e-01 3.23659926085460e-03
1.41900000000000e+00 2.61671459262937e-01 3.21181958453296e-03
1.42681818181818e+00 2.58951745416056e-01 3.18718124553336e-03
1.43463636363636e+00 2.56260299246068e-01 3.16268442939370e-03
1.44245454545455e+00 2.53596826949365e-01 3.13832929815185e-03
1.45027272727273e+00 2.50961037758539e-01 3.11411597619048e-03
1.45809090909091e+00 2.48352643963579e-01 3.09004456103323e-03
1.46590909090909e+00 2.45771360827037e-01 3.06611513432320e-03
1.47372727272727e+00 2.43216906570893e-01 3.04232774713019e-03
1.48154545454545e+00 2.40689002345853e-01 3.01868243048370e-03
1.48936363636364e+00 2.38187372184706e-01 2.99517918207483e-03
1.49718181818182e+00 2.35711743021158e-01 2.97181797632841e-03
1.50500000000000e+00 2.33261844610614e-01 2.94859877464881e-03
1.51281818181818e+00 2.30837409517290e-01 2.92552151162065e-03
1.52063636363636e+00 2.28438173085031e-01 2.90258610049371e-03
1.52845454545455e+00 2.26063873408434e-01 2.87979243809038e-03
1.53627272727273e+00 2.23714251289527e-01 2.85714039246365e-03
1.54409090909091e+00 2.21389050254020e-01 2.83462981216520e-03
1.55190909090909e+00 2.19088016478355e-01 2.81226053567553e-03
1.55972727272727e+00 2.16810898777105e-01 2.79003237860464e-03
1.56754545454545e+00 2.14557448575590e-01 2.76794514274292e-03
1.57536363636364e+00 2.12327419869098e-01 2.74599860446293e-03
1.58318181818182e+00 2.10120569237274e-01 2.72419252337649e-03
1.59100000000000e+00 2.07936655775931e-01 2.70252665114598e-03
1.59881818181818e+00 2.05775441084738e-01 2.68100071945946e-03
1.60663636363636e+00 2.03636689241212e-01 2.65961444471888e-03
1.61445454545455e+00 2.01520166774968e-01 2.63836753223242e-03
1.62227272727273e+00 1.99425642629808e-01 2.61725966544652e-03
1.63009090909091e+00 1.97352888176085e-01 2.59629051392324e-03
1.63790909090909e+00 1.95301677147820e-01 2.57545974146149e-03
1.64572727272727e+00 1.93271785630741e-01 2.55476699493820e-03
1.65354545454545e+00 1.91262992037874e-01 2.53421191210452e-03
1.66136363636364e+00 1.89275077073823e-01 2.51379411146369e-03
1.66918181818182e+00 1.87307823745683e-01 2.49351319973044e-03
1.67700000000000e+00 1.85361017304189e-01 2.47336877942700e-03
1.68481818181818e+00 1.83434445232091e-01 2.45336043839521e-03
1.69263636363636e+00 1.81527897220965e-01 2.43348775381567e-03
1.70045454545455e+00 1.79641165148261e-01 2.41375029580039e-03
1.70827272727273e+00 1.77774043044066e-01 2.39414761799145e-03
1.71609090909091e+00 1.75926327100436e-01 2.37467926444285e-03
1.72390909090909e+00 1.74097815617044e-01 2.35534477662958e-03
1.73172727272727e+00 1.72288308989950e-01 2.33614368371131e-03
1.73954545454545e+00 1.70497609689834e-01 2.31707550926230e-03
1.74736363636364e+00 1.68725522230667e-01 2.29813976243106e-03
1.75518181818182e+00 1.66971853177899e-01 2.27933594438126e-03
1.76300000000000e+00 1.65236411097552e-01 2.26066355485318e-03
1.77081818181818e+00 1.63519006545332e-01 2.24212208300962e-03
1.77863636363636e+00 1.61819452045962e-01 2.22371101088986e-03
1.78645454545455e+00 1.60137562072717e-01 2.20542981649606e-03
1.79427272727273e+00 1.58473153018248e-01 2.18727796557920e-03
1.80209090909091e+00 1.56826043201534e-01 2.16925491758755e-03
1.80990909090909e+00 1.55196052820814e-01 2.15136013172738e-03
1.81772727272727e+00 1.53583003943112e-01 2.13359305846063e-03
1.82554545454545e+00 1.51986720484827e-01 2.11595314532562e-03
1.83336363636364e+00 1.50407028184218e-01 2.09843982921021e-03
1.84118181818182e+00 1.48843754607466e-01 2.08105254192357e-03
1.84900000000000e+00 1.47296729104542e-01 2.06379071587441e-03
1.85681818181818e+00 1.45765782799083e-01 2.04665377607395e-03
1.86463636363636e+00 1.44250748569967e-01 2.02964114311109e-03
1.87245454545455e+00 1.42751461033070e-01 2.01275223580964e-03
1.88027272727273e+00 1.41267756515619e-01 1.99598646404631e-03
1.88809090909091e+00 1.39799473061292e-01 1.97934323390123e-03
1.89590909090909e+00 1.38346450389370e-01 1.96282195290711e-03
1.90372727272727e+00 1.36908529885026e-01 1.94642202261891e-03
1.91154545454545e+00 1.35485554582021e-01 1.93014284365608e-03
1.91936363636364e+00 1.34077369138508e-01 1.91398380894442e-03
1.92718181818182e+00 1.32683819841433e-01 1.89794430854371e-03
1.93500000000000e+00 1.31304754568207e-01 1.88202373456892e-03
1.94281818181818e+00 1.29940022777341e-01 1.86622147419908e-03
1.95063636363636e+00 1.28589475492020e-01 1.85053691224434e-03
1.95845454545455e+00 1.27252965283842e-01 1.83496943343833e-03
1.96627272727273e+00 1.25930346250251e-01 1.81951841615427e-03
1.97409090909091e+00 1.24621474018186e-01 1.80418323687089e-03
1.98190909090909e+00 1.23326205708574e-01 1.78896327472555e-03
1.98972727272727e+00 1.22044399927368e-01 1.77385790501574e-03
1.99754545454545e+00 1.20775916750125e-01 1.75886650357318e-03
2.00536363636364e+00 1.19520617700699e-01 1.74398844084922e-03
2.01318181818182e+00 1.18278365754355e-01 1.72922308610307e-03
2.02100000000000e+00 1.17049025304423e-01 1.71456981167308e-03
2.02881818181818e+00 1.15832462153673e-01 1.70002798686052e-03
2.03663636363636e+00 1.14628543499676e-01 1.68559698014824e-03
2.04445454545455e+00 1.13437137920299e-01 1.67127616118132e-03
2.05227272727273e+00 1.12258115353843e-01 1.65706489526527e-03
2.06009090909091e+00 1.11091347101550e-01 1.64296254724337e-03
2.06790909090909e+00 1.09936705796699e-01 1.62896848545143e-03
2.07572727272727e+00 1.08794065396369e-01 1.61508207603015e-03
2.08354545454545e+00 1.07663301167684e-01 1.60130268672433e-03
2.09136363636364e+00 1.06544289669049e-01 1.58762968170290e-03
2.09918181818182e+00 1.05436908752247e-01 1.57406242519743e-03
2.10700000000000e+00 1.04341037533398e-01 1.56060028521367e-03
2.11481818181818e+00 1.03256556385040e-01 1.54724262817682e-03
2.12263636363636e+00 1.02183346923076e-01 1.53398882085212e-03
2.13045454545455e+00 1.01121291993848e-01 1.52083823205857e-03
2.13827272727273e+00 1.00070275656628e-01 1.50779022784859e-03
2.14609090909091e+00 9.90301831852522e-02 1.49484417487872e-03
2.15390909090909e+00 9.80009010411797e-02 1.48199944384824e-03
2.16172727272727e+00 9.69823168659429e-02 1.46925540451786e-03
2.16954545454545e+00 9.59743194688906e-02 1.45661142901363e-03
2.17736363636364e+00 9.49767988106383e-02 1.44406688728741e-03
2.18518181818182e+00 9.39896460043893e-02 1.43162115028108e-03
2.19300000000000e+00 9.30127532906019e-02 1.41927359315554e-03
2.20081818181818e+00 9.20460140297443e-02 1.40702359059967e-03
2.20863636363636e+00 9.10893226906565e-02 1.39487051849463e-03
2.21645454545455e+00 9.01425748390317e-02 1.38281375539864e-03
2.22427272727273e+00 8.92056671219641e-02 1.37085267832134e-03
2.23209090909091e+00 8.82784972689193e-02 1.35898666565697e-03
2.23990909090909e+00 8.73609640682134e-02 1.34721510017741e-03
2.24772727272727e+00 8.64529673601150e-02 1.33553736466668e-03
2.25554545454545e+00 8.55544080259196e-02 1.32395284479697e-03
2.26336363636364e+00 8.46651879733459e-02 1.31246092514783e-03
2.27118181818182e+00 8.37852101372610e-02 1.30106099196121e-03
2.27900000000000e+00 8.29143784575546e-02 1.28975243595312e-03
2.28681818181818e+00 8.20525978725280e-02 1.27853464820128e-03
2.29463636363636e+00 8.11997743085176e-02 1.26740702158925e-03
2.30245454545455e+00 8.03558146696284e-02 1.25636895209425e-03
2.31027272727273e+00 7.95206268240935e-02 1.24541983508084e-03
2.31809090909091e+00 7.86941196047307e-02 1.23455906785554e-03
2.32590909090909e+00 7.78762027883885e-02 1.22378605227449e-03
2.33372727272727e+00 7.70667870896576e-02 1.21310019091554e-03
2.34154545454545e+00 7.62657841511309e-02 1.20250088958392e-03
2.34936363636364e+00 7.54731065305100e-02 1.19198755381975e-03
2.35718181818182e+00 7.46886677008765e-02 1.18155959129866e-03
2.36500000000000e+00 7.39123820313470e-02 1.17121641428224e-03
2.37281818181818e+00 7.31441647810522e-02 1.16095743601115e-03
2.38063636363636e+00 7.23839320898874e-02 1.15078207195942e-03
2.38845454545455e+00 7.16316009693598e-02 1.14068974095252e-03
2.39627272727273e+00 7.08870892905410e-02 1.13067986191448e-03
2.40409090909091e+00 7.01503157841368e-02 1.12075185609512e-03
2.41190909090909e+00 6.94212000225049e-02 1.11090514934393e-03
2.41972727272727e+00 6.86996624139349e-02 1.10113916875129e-03
2.42754545454545e+00 6.79856241939656e-02 1.09145334483360e-03
2.43536363636364e+00 6.72790074139934e-02 1.08184710846746e-03
2.44318181818182e+00 6.65797349412045e-02 1.07231989298313e-03
2.45100000000000e+00 6.58877304416433e-02 1.06287113630217e-03
2.45881818181818e+00 6.52029183747392e-02 1.05350027777183e-03
2.46663636363636e+00 6.45252239850622e-02 1.04420675925556e-03
