Energy (eV)          EEDF (eV^-(3/2))     First Anisotropy
2.50769230769231e-04 3.88929592461937e+01 1.54618267447917e-02
7.52307692307692e-04 3.86865437811266e+01 2.55500125028521e-02
1.25384615384615e-03 3.84812238194349e+01 3.37770067651998e-02
1.75538461538462e-03 3.82769935464124e+01 4.00564785566755e-02
2.25692307692308e-03 3.80738471780352e+01 4.53179976053723e-02
2.75846153846154e-03 3.78717789626287e+01 4.99122230643806e-02
3.26000000000000e-03 3.76707831780682e+01 5.40202303653072e-02
3.76153846153846e-03 3.74708541326271e+01 5.77511356959713e-02
4.26307692307692e-03 3.72719861648077e+01 6.11771563568463e-02
4.76461538461538e-03 3.70741736431734e+01 6.43492284458533e-02
5.26615384615385e-03 3.68774109658939e+01 6.73049796456461e-02
5.76769230769231e-03 3.66816925614724e+01 7.00732052645775e-02
6.26923076923077e-03 3.64870128876594e+01 7.26765646825539e-02
6.77076923076923e-03 3.62933664316223e+01 7.51332968199834e-02
7.27230769230769e-03 3.61007477097853e+01 7.74583602809304e-02
7.77384615384615e-03 3.59091512676805e+01 7.96642186612537e-02
8.27538461538462e-03 3.57185716797896e+01 8.17613978718346e-02
8.77692307692308e-03 3.55290035492294e+01 8.37588917695559e-02
9.27846153846154e-03 3.53404415080909e+01 8.56644639737231e-02
9.78000000000000e-03 3.51528802167820e+01 8.74848766736264e-02
1.02815384615385e-02 3.49663143644378e+01 8.92260671226266e-02
1.07830769230769e-02 3.47807386670827e+01 9.08932855241379e-02
1.12846153846154e-02 3.45961478697201e+01 9.24912042965524e-02
1.17861538461538e-02 3.44125367464463e+01 9.40240062890165e-02
1.22876923076923e-02 3.42299000966821e+01 9.54954555913344e-02
1.27892307692308e-02 3.40482327497192e+01 9.69089558740198e-02
1.32907692307692e-02 3.38675295601605e+01 9.82675986064642e-02
1.37923076923077e-02 3.36877854109730e+01 9.95742027757345e-02
1.42938461538462e-02 3.35089952132371e+01 1.00831349003282e-01
1.47953846153846e-02 3.33311539031401e+01 1.02041407601730e-01
1.52969230769231e-02 3.31542564455483e+01 1.03206562776142e-01
1.57984615384615e-02 3.29782978303362e+01 1.04328833343868e-01
1.63000000000000e-02 3.28032730748245e+01 1.05410090167822e-01
1.68015384615385e-02 3.26291772235551e+01 1.06452071935078e-01
1.73030769230769e-02 3.24560053458169e+01 1.07456398242050e-01
1.78046153846154e-02 3.22837525378419e+01 1.08424580990627e-01
1.83061538461538e-02 3.21124139225938e+01 1.09358034984427e-01
1.88076923076923e-02 3.19419846475057e+01 1.10258086591024e-01
1.93092307692308e-02 3.17724598871226e+01 1.11125981696207e-01
1.98107692307692e-02 3.16038348402978e+01 1.11962892770699e-01
2.03123076923077e-02 3.14361047320135e+01 1.12769924821253e-01
2.08138461538462e-02 3.12692648131962e+01 1.13548121317616e-01
2.13153846153846e-02 3.11033103587765e+01 1.14298468894731e-01
2.18169230769231e-02 3.09382366699182e+01 1.15021901851396e-01
2.23184615384615e-02 3.07740390716089e+01 1.15719306214037e-01
2.28200000000000e-02 3.06107129142047e+01 1.16391523100310e-01
2.33215384615385e-02 3.04482535732556e+01 1.17039352328280e-01
2.38230769230769e-02 3.02866564478208e+01 1.17663555190673e-01
2.43246153846154e-02 3.01259169618943e+01 1.18264856964288e-01
2.48261538461538e-02 2.99660305642368e+01 1.18843949686545e-01
2.53276923076923e-02 2.98069927268011e+01 1.19401494156542e-01
2.58292307692308e-02 2.96487989465044e+01 1.19938122014953e-01
2.63307692307692e-02 2.94914447432601e+01 1.20454437663239e-01
2.68323076923077e-02 2.93349256612089e+01 1.20951019756564e-01
2.73338461538461e-02 2.91792372685637e+01 1.21428423082559e-01
2.78353846153846e-02 2.90243751562119e+01 1.21887179798636e-01
2.83369230769231e-02 2.88703349392626e+01 1.22327800805617e-01
2.88384615384615e-02 2.87171122552987e+01 1.22750777029606e-01
2.93400000000000e-02 2.85647027654551e+01 1.23156580359876e-01
2.98415384615385e-02 2.84131021542689e+01 1.23545664988498e-01
3.03430769230769e-02 2.82623061284304e+01 1.23918468239874e-01
3.08446153846154e-02 2.81123104177905e+01 1.24275411334741e-01
3.13461538461538e-02 2.79631107752160e+01 1.24616900510238e-01
3.18476923076923e-02 2.78147029754075e+01 1.24943327619248e-01
3.23492307692308e-02 2.76670828161789e+01 1.25255070900159e-01
3.28507692307692e-02 2.75202461169761e+01 1.25552495707160e-01
3.33523076923077e-02 2.73741887197670e+01 1.25835954969043e-01
3.38538461538462e-02 2.72289064889046e+01 1.26105790044401e-01
3.43553846153846e-02 2.70843953100566e+01 1.26362331107818e-01
3.48569230769231e-02 2.69406510913452e+01 1.26605897709263e-01
3.53584615384615e-02 2.67976697620056e+01 1.26836799309927e-01
3.58600000000000e-02 2.66554472731798e+01 1.27055335576646e-01
3.63615384615385e-02 2.65139795977843e+01 1.27261797057940e-01
3.68630769230769e-02 2.63732627295357e+01 1.27456465469273e-01
3.73646153846154e-02 2.62332926836995e+01 1.27639613957407e-01
3.78661538461538e-02 2.60940654969607e+01 1.27811507697690e-01
3.83676923076923e-02 2.59555772264948e+01 1.27972404079714e-01
3.88692307692308e-02 2.58178239509347e+01 1.28122553063195e-01
3.93707692307692e-02 2.56808017692056e+01 1.28262197524018e-01
3.98723076923077e-02 2.55445068011961e+01 1.28391573390912e-01
4.03738461538461e-02 2.54089351876356e+01 1.28510910139421e-01
4.08753846153846e-02 2.52740830892401e+01 1.28620430904143e-01
4.13769230769231e-02 2.51399466875866e+01 1.28720352755065e-01
4.18784615384615e-02 2.50065221840430e+01 1.28810886968720e-01
4.23800000000000e-02 2.48738058003751e+01 1.28892239106291e-01
4.28815384615385e-02 2.47417937786266e+01 1.28964609431464e-01
4.33830769230769e-02 2.46104823803336e+01 1.29028193004932e-01
4.38846153846154e-02 2.44798678870993e+01 1.29083179771136e-01
4.43861538461538e-02 2.43499466004771e+01 1.29129754940928e-01
4.48876923076923e-02 2.42207148412171e+01 1.29168099029522e-01
4.53892307692308e-02 2.40921689500196e+01 1.29198388049064e-01
4.58907692307692e-02 2.39643052865911e+01 1.29220793700349e-01
4.63923076923077e-02 2.38371202301654e+01 1.29235483390987e-01
4.68938461538461e-02 2.37106101793911e+01 1.29242620568658e-01
4.73953846153846e-02 2.35847715516331e+01 1.29242364730631e-01
4.78969230769231e-02 2.34596007836597e+01 1.29234871580776e-01
4.83984615384615e-02 2.33350943307685e+01 1.29220293187295e-01
4.89000000000000e-02 2.32112486672607e+01 1.29198777977819e-01
4.94015384615385e-02 2.30880602863321e+01 1.29170471033873e-01
4.99030769230769e-02 2.29655256994243e+01 1.29135514108917e-01
5.04046153846154e-02 2.28436414366769e+01 1.29094045643289e-01
5.09061538461538e-02 2.27224040468196e+01 1.29046201040087e-01
5.14076923076923e-02 2.26018100965484e+01 1.28992112644688e-01
5.19092307692308e-02 2.24818561711252e+01 1.28931909861927e-01
5.24107692307692e-02 2.23625388735969e+01 1.28865719275456e-01
5.29123076923077e-02 2.22438548252078e+01 1.28793664618422e-01
5.34138461538461e-02 2.21258006652965e+01 1.28715867021776e-01
5.39153846153846e-02 2.20083730507130e+01 1.28632444982375e-01
5.44169230769231e-02 2.18915686563690e+01 1.28543514462078e-01
5.49184615384615e-02 2.17753841745100e+01 1.28449188989616e-01
5.54200000000000e-02 2.16598163150938e+01 1.28349579622058e-01
5.59215384615385e-02 2.15448618056895e+01 1.28244795170318e-01
5.64230769230769e-02 2.14305173909327e+01 1.28134942184321e-01
5.69246153846154e-02 2.13167798328871e+01 1.28020124936884e-01
5.74261538461538e-02 2.12036459109452e+01 1.27900445638059e-01
5.79276923076923e-02 2.10911124213026e+01 1.27776004390981e-01
5.84292307692308e-02 2.09791761774434e+01 1.27646899269809e-01
5.89307692307692e-02 2.08678340094832e+01 1.27513226400900e-01
5.94323076923077e-02 2.07570827645011e+01 1.27375079914428e-01
5.99338461538461e-02 2.06469193064445e+01 1.27232552141366e-01
6.04353846153846e-02 2.05373405156348e+01 1.27085733564980e-01
6.09369230769231e-02 2.04283432892159e+01 1.26934712888703e-01
6.14384615384615e-02 2.03199245405380e+01 1.26779577107327e-01
6.19400000000000e-02 2.02120811994641e+01 1.26620411455282e-01
6.24415384615385e-02 2.01048102122766e+01 1.26457299588765e-01
6.29430769230769e-02 1.99981085412134e+01 1.26290323556565e-01
6.34446153846154e-02 1.98919731647604e+01 1.26119563770455e-01
6.39461538461538e-02 1.97864010775606e+01 1.25945099179880e-01
6.44476923076923e-02 1.96813892899647e+01 1.25767007218969e-01
6.49492307692308e-02 1.95769348284290e+01 1.25585363862084e-01
6.54507692307692e-02 1.94730347349565e+01 1.25400243682810e-01
6.59523076923077e-02 1.93696860673663e+01 1.25211719798906e-01
6.64538461538461e-02 1.92668858992059e+01 1.25019864035019e-01
6.69553846153846e-02 1.91646313193275e+01 1.24824746868562e-01
6.74569230769231e-02 1.90629194322568e+01 1.24626437479127e-01
6.79584615384615e-02 1.89617473576666e+01 1.24425003801330e-01
6.84600000000000e-02 1.88611122306267e+01 1.24220512469129e-01
6.89615384615384e-02 1.87610112015177e+01 1.24013028967962e-01
6.94630769230769e-02 1.86614414356315e+01 1.23802617599866e-01
6.99646153846154e-02 1.85624001134112e+01 1.23589341448508e-01
7.04661538461538e-02 1.84638844303661e+01 1.23373262526031e-01
7.09676923076923e-02 1.83658915966845e+01 1.23154441718047e-01
7.14692307692308e-02 1.82684188375635e+01 1.22932938825331e-01
7.19707692307692e-02 1.81714633927274e+01 1.22708812608979e-01
7.24723076923077e-02 1.80750225166497e+01 1.22482120734350e-01
7.29738461538461e-02 1.79790934784715e+01 1.22252919909052e-01
7.34753846153846e-02 1.78836735616346e+01 1.22021265828311e-01
7.39769230769231e-02 1.77887600641881e+01 1.21787213212705e-01
7.44784615384615e-02 1.76943502983341e+01 1.21550815849241e-01
7.49800000000000e-02 1.76004415906332e+01 1.21312126535884e-01
7.54815384615384e-02 1.75070312819249e+01 1.21071197211626e-01
7.59830769230769e-02 1.74141167269808e+01 1.20828078920065e-01
7.64846153846154e-02 1.73216952947020e+01 1.20582821773029e-01
7.69861538461538e-02 1.72297643680409e+01 1.20335475076582e-01
7.74876923076923e-02 1.71383213436641e+01 1.20086087277200e-01
7.79892307692308e-02 1.70473636322277e+01 1.19834705994407e-01
7.84907692307692e-02 1.69568886579597e+01 1.19581378056615e-01
7.89923076923077e-02 1.68668938588437e+01 1.19326149446775e-01
7.94938461538461e-02 1.67773766865430e+01 1.19069065421540e-01
7.99953846153846e-02 1.66883346060806e+01 1.18810170458473e-01
8.04969230769231e-02 1.65997650960960e+01 1.18549508285955e-01
8.09984615384615e-02 1.65116656484499e+01 1.18287121916193e-01
8.15000000000000e-02 1.64240337683947e+01 1.18023053592032e-01
8.20015384615384e-02 1.63368669745005e+01 1.17757344899863e-01
8.25030769230769e-02 1.62501627983519e+01 1.17490036733736e-01
8.30046153846154e-02 1.61639187847116e+01 1.17221169259575e-01
8.35061538461538e-02 1.60781324914482e+01 1.16950782024865e-01
8.40076923076923e-02 1.59928014892408e+01 1.16678913907478e-01
8.45092307692308e-02 1.59079233618099e+01 1.16405603141998e-01
8.50107692307692e-02 1.58234957055537e+01 1.16130887349029e-01
8.55123076923077e-02 1.57395161296999e+01 1.15854803483774e-01
8.60138461538461e-02 1.56559822562359e+01 1.15577387940249e-01
8.65153846153846e-02 1.55728917196277e+01 1.15298676501424e-01
8.70169230769231e-02 1.54902421670360e+01 1.15018704363556e-01
8.75184615384615e-02 1.54080312579703e+01 1.14737506163472e-01
8.80200000000000e-02 1.53262566644311e+01 1.14455115928517e-01
8.85215384615384e-02 1.52449160708410e+01 1.14171567175685e-01
8.90230769230769e-02 1.51640071737781e+01 1.13886892877260e-01
8.95246153846154e-02 1.50835276821123e+01 1.13601125426562e-01
9.00261538461538e-02 1.50034753169383e+01 1.13314296734469e-01
9.05276923076923e-02 1.49238478113152e+01 1.13026438181498e-01
9.10292307692308e-02 1.48446429104622e+01 1.12737580639555e-01
9.15307692307692e-02 1.47658583714381e+01 1.12447754496452e-01
9.20323076923077e-02 1.46874919632691e+01 1.12156989607883e-01
9.25338461538461e-02 1.46095414668834e+01 1.11865315389405e-01
9.30353846153846e-02 1.45320046748633e+01 1.11572760769910e-01
9.35369230769231e-02 1.44548793916280e+01 1.11279354211942e-01
9.40384615384615e-02 1.43781634331290e+01 1.10985123734638e-01
9.45400000000000e-02 1.43018546269695e+01 1.10690096867131e-01
9.50415384615385e-02 1.42259508123403e+01 1.10394300736336e-01
9.55430769230769e-02 1.41504498397836e+01 1.10097762034558e-01
9.60446153846154e-02 1.40753495713079e+01 1.09800506987262e-01
9.65461538461538e-02 1.40006478803249e+01 1.09502561438657e-01
9.70476923076923e-02 1.39263426514194e+01 1.09203950807175e-01
9.75492307692307e-02 1.38524317805154e+01 1.08904700103818e-01
9.80507692307692e-02 1.37789131745931e+01 1.08604833953024e-01
9.85523076923077e-02 1.37057847517963e+01 1.08304376548146e-01
9.90538461538461e-02 1.36330444413715e+01 1.08003351733207e-01
9.95553846153846e-02 1.35606901834478e+01 1.07701782959827e-01
1.00056923076923e-01 1.34887199291924e+01 1.07399693268810e-01
1.00558461538462e-01 1.34171316406962e+01 1.07097105476189e-01
1.01060000000000e-01 1.33459232903525e+01 1.06794041833440e-01
1.01561538461538e-01 1.32750928622380e+01 1.06490524351208e-01
1.02063076923077e-01 1.32046383501114e+01 1.06186574672301e-01
1.02564615384615e-01 1.31345577593864e+01 1.05882214086756e-01
1.03066153846154e-01 1.30648491050649e+01 1.05577463552465e-01
1.03567692307692e-01 1.29955104136718e+01 1.05272343685540e-01
1.04069230769231e-01 1.29265397212270e+01 1.04966874780507e-01
1.04570769230769e-01 1.28579350751431e+01 1.04661076689585e-01
1.05072307692308e-01 1.27896945327070e+01 1.04354969287852e-01
1.05573846153846e-01 1.27218161610525e+01 1.04048571797703e-01
1.06075384615385e-01 1.26542980385072e+01 1.03741903241241e-01
1.06576923076923e-01 1.25871382526707e+01 1.03434982343645e-01
1.07078461538462e-01 1.25203349022101e+01 1.03127827523719e-01
1.07580000000000e-01 1.24538860949745e+01 1.02820456912614e-01
1.08081538461538e-01 1.23877899497553e+01 1.02512888344378e-01
1.08583076923077e-01 1.23220445944362e+01 1.02205139374324e-01
1.09084615384615e-01 1.22566481677203e+01 1.01897227269600e-01
1.09586153846154e-01 1.21915988173138e+01 1.01589169027232e-01
1.10087692307692e-01 1.21268947016205e+01 1.01280981364690e-01
1.10589230769231e-01 1.20625339879592e+01 1.00972680737624e-01
1.11090769230769e-01 1.19985148542262e+01 1.00664283229882e-01
1.11592307692308e-01 1.19348354875590e+01 1.00355804974070e-01
1.12093846153846e-01 1.18714940843095e+01 1.00047261539408e-01
1.12595384615385e-01 1.18084888512237e+01 9.97386683406461e-02
1.13096923076923e-01 1.17458180037504e+01 9.94300405501135e-02
1.13598461538462e-01 1.16834797676165e+01 9.91213930885416e-02
1.14100000000000e-01 1.16214723771662e+01 9.88127406415532e-02
1.14601538461538e-01 1.15597940769062e+01 9.85040976505248e-02
1.15103076923077e-01 1.14984431198755e+01 9.81954783287967e-02
1.15604615384615e-01 1.14374177691623e+01 9.78868966525725e-02
1.16106153846154e-01 1.13767162963025e+01 9.75783663768328e-02
1.16607692307692e-01 1.13163369827689e+01 9.72699010262948e-02
1.17109230769231e-01 1.12562781183985e+01 9.69615139110350e-02
1.17610769230769e-01 1.11965380028542e+01 9.66532180263070e-02
1.18112307692308e-01 1.11371149444452e+01 9.63450264334939e-02
1.18613846153846e-01 1.10780072600998e+01 9.60369517045545e-02
1.19115384615385e-01 1.10192132764034e+01 9.57290062924326e-02
1.19616923076923e-01 1.09607313281047e+01 9.54212024509144e-02
1.20118461538462e-01 1.09025597595017e+01 9.51135522258499e-02
1.20620000000000e-01 1.08446969229746e+01 9.48060674697895e-02
1.21121538461538e-01 1.07871411803468e+01 9.44987598332821e-02
1.21623076923077e-01 1.07298909014433e+01 9.41916407792216e-02
1.22124615384615e-01 1.06729444654274e+01 9.38847215742105e-02
1.22626153846154e-01 1.06163002593842e+01 9.35780133026776e-02
1.23127692307692e-01 1.05599566796332e+01 9.32715268582855e-02
1.23629230769231e-01 1.05039121303371e+01 9.29652729578293e-02
1.24130769230769e-01 1.04481650247899e+01 9.26592620498536e-02
1.24632307692308e-01 1.03927137843736e+01 9.23535046603750e-02
1.25133846153846e-01 1.03375568385301e+01 9.20480108879927e-02
1.25635384615385e-01 1.02826926256778e+01 9.17427907399496e-02
1.26136923076923e-01 1.02281195918873e+01 9.14378540590757e-02
1.26638461538462e-01 1.01738361921063e+01 9.11332105155178e-02
1.27140000000000e-01 1.01198408888581e+01 9.08288696197585e-02
1.27641538461538e-01 1.00661321534447e+01 9.05248407143747e-02
1.28143076923077e-01 1.00127084646680e+01 9.02211329868544e-02
1.28644615384615e-01 9.95956831001096e+00 8.99177554614341e-02
1.29146153846154e-01 9.90671018438165e+00 8.96147170117018e-02
1.29647692307692e-01 9.85413259127312e+00 8.93120263524967e-02
1.30149230769231e-01 9.80183404152885e+00 8.90096920523130e-02
1.30650769230769e-01 9.74981305448247e+00 8.87077224499093e-02
1.31152307692308e-01 9.69806815703039e+00 8.84061259685306e-02
1.31653846153846e-01 9.64659788360517e+00 8.81049106564535e-02
1.32155384615385e-01 9.59540077698590e+00 8.78040844923893e-02
1.32656923076923e-01 9.54447538712208e+00 8.75036553188479e-02
1.33158461538462e-01 9.49382027221759e+00 8.72036308343430e-02
1.33660000000000e-01 9.44343399757457e+00 8.69040186050492e-02
1.34161538461538e-01 9.39331513665846e+00 8.66048260570614e-02
1.34663076923077e-01 9.34346226996145e+00 8.63060604878812e-02
1.35164615384615e-01 9.29387398604900e+00 8.60077290587519e-02
1.35666153846154e-01 9.24454888044252e+00 8.57098388059424e-02
1.36167692307692e-01 9.19548555664769e+00 8.54123966331588e-02
1.36669230769231e-01 9.14668262505596e+00 8.51154093226554e-02
1.37170769230769e-01 9.09813870395513e+00 8.48188834590879e-02
1.37672307692308e-01 9.04985241870361e+00 8.45228257154960e-02
1.38173846153846e-01 9.00182240170464e+00 8.42272424347085e-02
1.38675384615385e-01 8.95404729312498e+00 8.39321399072607e-02
1.39176923076923e-01 8.90652573984738e+00 8.36375243105634e-02
1.39678461538462e-01 8.85925639643268e+00 8.33434017015951e-02
1.40180000000000e-01 8.81223792408980e+00 8.30497780273867e-02
1.40681538461538e-01 8.76546899162137e+00 8.27566591177986e-02
1.41183076923077e-01 8.71894827441078e+00 8.24640506957987e-02
1.41684615384615e-01 8.67267445535167e+00 8.21719583703210e-02
1.42186153846154e-01 8.62664622385182e+00 8.18803876464185e-02
1.42687692307692e-01 8.58086227674678e+00 8.15893439181635e-02
1.43189230769231e-01 8.53532131732020e+00 8.12988324786454e-02
1.43690769230769e-01 8.49002205620195e+00 8.10088584503796e-02
1.44192307692308e-01 8.44496321063126e+00 8.07194270459099e-02
1.44693846153846e-01 8.40014350443180e+00 8.04305431860254e-02
1.45195384615385e-01 8.35556166865054e+00 8.01422117529837e-02
1.45696923076923e-01 8.31121644062259e+00 7.98544375349283e-02
1.46198461538462e-01 8.26710656482717e+00 7.95672252190996e-02
1.46700000000000e-01 8.22323079196777e+00 7.92805794012473e-02
1.47201538461538e-01 8.17958787981369e+00 7.89945045788914e-02
1.47703076923077e-01 8.13617659229526e+00 7.87090051606291e-02
1.48204615384615e-01 8.09299570033119e+00 7.84240854594399e-02
1.48706153846154e-01 8.05004398093857e+00 7.81397497018525e-02
1.49207692307692e-01 8.00732021804637e+00 7.78560020213269e-02
1.49709230769231e-01 7.96482320161989e+00 7.75728464672727e-02
1.50210769230769e-01 7.92255172846061e+00 7.72902869414087e-02
1.50712307692308e-01 7.88050460154727e+00 7.70083274355024e-02
1.51213846153846e-01 7.83868063001188e+00 7.67269716828131e-02
1.51715384615385e-01 7.79707862970876e+00 7.64462233890781e-02
1.52216923076923e-01 7.75569742237807e+00 7.61660861817050e-02
1.52718461538462e-01 7.71453583640877e+00 7.58865636034126e-02
1.53220000000000e-01 7.67359270601567e+00 7.56076591207774e-02
1.53721538461538e-01 7.63286687198971e+00 7.53293761179479e-02
1.54223076923077e-01 7.59235718088825e+00 7.50517179050405e-02
1.54724615384615e-01 7.55206248577294e+00 7.47746877119316e-02
1.55226153846154e-01 7.51198164541300e+00 7.44982886965281e-02
1.55727692307692e-01 7.47211352501091e+00 7.42225239386305e-02
1.56229230769231e-01 7.43245699541847e+00 7.39473964480827e-02
1.56730769230769e-01 7.39301093385049e+00 7.36729091065219e-02
1.57232307692308e-01 7.35377422329432e+00 7.33990648844755e-02
1.57733846153846e-01 7.31474575248706e+00 7.31258665228673e-02
1.58235384615385e-01 7.27592441642317e+00 7.28533167439276e-02
