Energy (eV)          EEDF (eV^-(3/2))     First Anisotropy
8.38709677419355e-05 2.15181563791178e+02 3.86879497944891e-02
2.51612903225806e-04 2.13986789580546e+02 6.39223387673615e-02
4.19354838709677e-04 2.12798649235284e+02 8.44842319927208e-02
5.87096774193548e-04 2.11617105921352e+02 1.00165975894625e-01
7.54838709677419e-04 2.10442123008983e+02 1.13295101264132e-01
9.22580645161290e-04 2.09273664072392e+02 1.24749925217668e-01
1.09032258064516e-03 2.08111692888093e+02 1.34984148885720e-01
1.25806451612903e-03 2.06956173432454e+02 1.44271261806634e-01
1.42580645161290e-03 2.05807069884243e+02 1.52792327862970e-01
1.59354838709677e-03 2.04664346618584e+02 1.60675095120257e-01
1.76129032258065e-03 2.03527968210603e+02 1.68013964328962e-01
1.92903225806452e-03 2.02397899430196e+02 1.74881200233180e-01
2.09677419354839e-03 2.01274105243808e+02 1.81333687390034e-01
2.26451612903226e-03 2.00156550813200e+02 1.87417227352698e-01
2.43225806451613e-03 1.99045201491992e+02 1.93169396154535e-01
2.60000000000000e-03 1.97940022827610e+02 1.98621512368355e-01
2.76774193548387e-03 1.96840980557461e+02 2.03800033802726e-01
2.93548387096774e-03 1.95748040610404e+02 2.08727574529944e-01
3.10322580645161e-03 1.94661169103357e+02 2.13423661365333e-01
3.27096774193548e-03 1.93580332342407e+02 2.17905307697604e-01
3.43870967741936e-03 1.92505496819758e+02 2.22187455631603e-01
3.60645161290323e-03 1.91436629214140e+02 2.26283322651606e-01
3.77419354838710e-03 1.90373696389728e+02 2.30204675344092e-01
3.94193548387097e-03 1.89316665393818e+02 2.33962049999768e-01
4.10967741935484e-03 1.88265503457490e+02 2.37564931099101e-01
4.27741935483871e-03 1.87220177992998e+02 2.41021897425533e-01
4.44516129032258e-03 1.86180656594266e+02 2.44340742883421e-01
4.61290322580645e-03 1.85146907034459e+02 2.47528576997512e-01
4.78064516129032e-03 1.84118897266335e+02 2.50591909334378e-01
4.94838709677419e-03 1.83096595419964e+02 2.53536720719720e-01
5.11612903225806e-03 1.82079969802971e+02 2.56368523874022e-01
5.28387096774194e-03 1.81068988898377e+02 2.59092415094464e-01
5.45161290322581e-03 1.80063621364481e+02 2.61713119187178e-01
5.61935483870968e-03 1.79063836033871e+02 2.64235027438143e-01
5.78709677419355e-03 1.78069601911657e+02 2.66662231384962e-01
5.95483870967742e-03 1.77080888175556e+02 2.68998551931575e-01
6.12258064516129e-03 1.76097664173935e+02 2.71247564866164e-01
6.29032258064516e-03 1.75119899425817e+02 2.73412623368768e-01
6.45806451612903e-03 1.74147563619019e+02 2.75496877820070e-01
6.62580645161290e-03 1.73180626610099e+02 2.77503293408552e-01
6.79354838709677e-03 1.72219058422560e+02 2.79434665726632e-01
6.96129032258065e-03 1.71262829246757e+02 2.81293634730235e-01
7.12903225806452e-03 1.70311909438163e+02 2.83082697105387e-01
7.29677419354839e-03 1.69366269517049e+02 2.84804217746813e-01
7.46451612903226e-03 1.68425880167552e+02 2.86460439381264e-01
7.63225806451613e-03 1.67490712236213e+02 2.88053491906692e-01
7.80000000000000e-03 1.66560736731804e+02 2.89585400536083e-01
7.96774193548387e-03 1.65635924823720e+02 2.91058093201926e-01
8.13548387096774e-03 1.64716247841771e+02 2.92473407320458e-01
8.30322580645161e-03 1.63801677274631e+02 2.93833095910030e-01
8.47096774193548e-03 1.62892184769595e+02 2.95138833207476e-01
8.63870967741936e-03 1.61987742131076e+02 2.96392219704975e-01
8.80645161290323e-03 1.61088321320195e+02 2.97594787091676e-01
8.97419354838710e-03 1.60193894453902e+02 2.98748002177061e-01
9.14193548387097e-03 1.59304433803673e+02 2.99853271077179e-01
9.30967741935484e-03 1.58419911795225e+02 3.00911942799779e-01
9.47741935483871e-03 1.57540301007107e+02 3.01925312578267e-01
9.64516129032258e-03 1.56665574170389e+02 3.02894624978960e-01
9.81290322580645e-03 1.55795704167287e+02 3.03821076746598e-01
9.98064516129032e-03 1.54930664030841e+02 3.04705819626540e-01
1.01483870967742e-02 1.54070426943934e+02 3.05549961954159e-01
1.03161290322581e-02 1.53214966237036e+02 3.06354572595880e-01
1.04838709677419e-02 1.52364255390968e+02 3.07120682170304e-01
1.06516129032258e-02 1.51518268032575e+02 3.07849283420052e-01
1.08193548387097e-02 1.50676977934041e+02 3.08541336169395e-01
1.09870967741935e-02 1.49840359015415e+02 3.09197767467208e-01
1.11548387096774e-02 1.49008385340414e+02 3.09819471661833e-01
1.13225806451613e-02 1.48181031115733e+02 3.10407314941737e-01
1.14903225806452e-02 1.47358270693383e+02 3.10962135234453e-01
1.16580645161290e-02 1.46540078566713e+02 3.11484742054333e-01
1.18258064516129e-02 1.45726429369729e+02 3.11975920655341e-01
1.19935483870968e-02 1.44917297879249e+02 3.12436431287111e-01
1.21612903225806e-02 1.44112659010199e+02 3.12867010714139e-01
1.23290322580645e-02 1.43312487818701e+02 3.13268373760586e-01
1.24967741935484e-02 1.42516759498400e+02 3.13641212405505e-01
1.26645161290323e-02 1.41725449379797e+02 3.13986199453585e-01
1.28322580645161e-02 1.40938532932164e+02 3.14303988025922e-01
1.30000000000000e-02 1.40155985760064e+02 3.14595211040535e-01
1.31677419354839e-02 1.39377783602680e+02 3.14860484633449e-01
1.33354838709677e-02 1.38603902335598e+02 3.15100407565338e-01
1.35032258064516e-02 1.37834317967489e+02 3.15315560628604e-01
1.36709677419355e-02 1.37069006639446e+02 3.15506509852361e-01
1.38387096774194e-02 1.36307944626641e+02 3.15673805849621e-01
1.40064516129032e-02 1.35551108335160e+02 3.15817983168681e-01
1.41741935483871e-02 1.34798474301346e+02 3.15939563309510e-01
1.43419354838710e-02 1.34050019193340e+02 3.16039053637996e-01
1.45096774193548e-02 1.33305719807329e+02 3.16116948258845e-01
1.46774193548387e-02 1.32565553069821e+02 3.16173728923219e-01
1.48451612903226e-02 1.31829496034684e+02 3.16209863901758e-01
1.50129032258065e-02 1.31097525882502e+02 3.16225810755287e-01
1.51806451612903e-02 1.30369619921964e+02 3.16222015584509e-01
1.53483870967742e-02 1.29645755587040e+02 3.16198912292544e-01
1.55161290322581e-02 1.28925910436340e+02 3.16156925216699e-01
1.56838709677419e-02 1.28210062154407e+02 3.16096468362081e-01
1.58516129032258e-02 1.27498188549015e+02 3.16017944653781e-01
1.60193548387097e-02 1.26790267550535e+02 3.15921748442957e-01
1.61870967741936e-02 1.26086277213143e+02 3.15808264732542e-01
1.63548387096774e-02 1.25386195712223e+02 3.15677868423259e-01
1.65225806451613e-02 1.24690001343749e+02 3.15530926705543e-01
1.66903225806452e-02 1.23997672525404e+02 3.15367798284338e-01
1.68580645161290e-02 1.23309187794100e+02 3.15188832622282e-01
1.70258064516129e-02 1.22624525805348e+02 3.14994372227612e-01
1.71935483870968e-02 1.21943665334327e+02 3.14784751556362e-01
1.73612903225806e-02 1.21266585272924e+02 3.14560297557011e-01
1.75290322580645e-02 1.20593264631351e+02 3.14321330243232e-01
1.76967741935484e-02 1.19923682535797e+02 3.14068161598260e-01
1.78645161290323e-02 1.19257818227820e+02 3.13801097722214e-01
1.80322580645161e-02 1.18595651065311e+02 3.13520438060229e-01
1.82000000000000e-02 1.17937160520228e+02 3.13226474652388e-01
1.83677419354839e-02 1.17282326178008e+02 3.12919494196296e-01
1.85354838709677e-02 1.16631127738460e+02 3.12599777283367e-01
1.87032258064516e-02 1.15983545013588e+02 3.12267597658371e-01
1.88709677419355e-02 1.15339557927007e+02 3.11923224203023e-01
1.90387096774194e-02 1.14699146514782e+02 3.11566920183243e-01
1.92064516129032e-02 1.14062290923329e+02 3.11198942518621e-01
1.93741935483871e-02 1.13428971408842e+02 3.10819543692411e-01
1.95419354838710e-02 1.12799168338069e+02 3.10428970728524e-01
1.97096774193548e-02 1.12172862185852e+02 3.10027465602000e-01
1.98774193548387e-02 1.11550033536352e+02 3.09615265670895e-01
2.00451612903226e-02 1.10930663081076e+02 3.09192602666865e-01
2.02129032258065e-02 1.10314731618308e+02 3.08759704504160e-01
2.03806451612903e-02 1.09702220053820e+02 3.08316794554901e-01
2.05483870967742e-02 1.09093109398962e+02 3.07864090945689e-01
2.07161290322581e-02 1.08487380770103e+02 3.07401808303941e-01
2.08838709677419e-02 1.07885015389298e+02 3.06930157045932e-01
2.10516129032258e-02 1.07285994582442e+02 3.06449342687926e-01
2.12193548387097e-02 1.06690299778718e+02 3.05959567533179e-01
2.13870967741936e-02 1.06097912511227e+02 3.05461029973999e-01
2.15548387096774e-02 1.05508814415198e+02 3.04953923816582e-01
2.17225806451613e-02 1.04922987227447e+02 3.04438439911972e-01
2.18903225806452e-02 1.04340412786968e+02 3.03914765473289e-01
2.20580645161290e-02 1.03761073033200e+02 3.03383083413698e-01
2.22258064516129e-02 1.03184950005497e+02 3.02843573924392e-01
2.23935483870968e-02 1.02612025843676e+02 3.02296413566460e-01
2.25612903225806e-02 1.02042282785992e+02 3.01741775583654e-01
2.27290322580645e-02 1.01475703170040e+02 3.01179830230206e-01
2.28967741935484e-02 1.00912269431122e+02 3.00610743880649e-01
2.30645161290323e-02 1.00351964101720e+02 3.00034680533720e-01
2.32322580645161e-02 9.97947698119993e+01 2.99451801163612e-01
2.34000000000000e-02 9.92406692882174e+01 2.98862263092155e-01
2.35677419354839e-02 9.86896453522124e+01 2.98266221445970e-01
2.37354838709677e-02 9.81416809218707e+01 2.97663828521728e-01
2.39032258064516e-02 9.75967590095877e+01 2.97055233172744e-01
2.40709677419355e-02 9.70548627217631e+01 2.96440582221527e-01
2.42387096774194e-02 9.65159752592392e+01 2.95820019839639e-01
2.44064516129032e-02 9.59800799158094e+01 2.95193686947776e-01
2.45741935483871e-02 9.54471600777207e+01 2.94561722585797e-01
2.47419354838710e-02 9.49171992240846e+01 2.93924263095455e-01
2.49096774193548e-02 9.43901809251309e+01 2.93281442380725e-01
2.50774193548387e-02 9.38660888429202e+01 2.92633392179257e-01
2.52451612903226e-02 9.33449067299221e+01 2.91980241263787e-01
2.54129032258065e-02 9.28266184285301e+01 2.91322116751987e-01
2.55806451612903e-02 9.23112078714346e+01 2.90659143520685e-01
2.57483870967742e-02 9.17986590802438e+01 2.89991443638884e-01
2.59161290322581e-02 9.12889561650058e+01 2.89319137639500e-01
2.60838709677419e-02 9.07820833245587e+01 2.88642343946697e-01
2.62516129032258e-02 9.02780248451906e+01 2.87961178322694e-01
2.64193548387097e-02 8.97767651001706e+01 2.87275755102844e-01
2.65870967741936e-02 8.92782885500755e+01 2.86586186636319e-01
2.67548387096774e-02 8.87825797414895e+01 2.85892582745808e-01
2.69225806451613e-02 8.82896233065420e+01 2.85195051927437e-01
2.70903225806452e-02 8.77994039632132e+01 2.84493700805092e-01
2.72580645161290e-02 8.73119065140717e+01 2.83788633602294e-01
2.74258064516129e-02 8.68271158458187e+01 2.83079953308458e-01
2.75935483870968e-02 8.63450169295742e+01 2.82367760963867e-01
2.77612903225806e-02 8.58655948194058e+01 2.81652155873658e-01
2.79290322580645e-02 8.53888346528608e+01 2.80933235829428e-01
2.80967741935484e-02 8.49147216497597e+01 2.80211096411992e-01
2.82645161290323e-02 8.44432411117525e+01 2.79485832109590e-01
2.84322580645161e-02 8.39743784225767e+01 2.78757535802965e-01
2.86000000000000e-02 8.35081190468849e+01 2.78026298267728e-01
2.87677419354839e-02 8.30444485298077e+01 2.77292209261915e-01
2.89354838709677e-02 8.25833524971954e+01 2.76555357022980e-01
2.91032258064516e-02 8.21248166544766e+01 2.75815827782181e-01
2.92709677419355e-02 8.16688267862297e+01 2.75073706822447e-01
2.94387096774194e-02 8.12153687564064e+01 2.74329077987496e-01
2.96064516129032e-02 8.07644285072240e+01 2.73582023207470e-01
2.97741935483871e-02 8.03159920587412e+01 2.72832623528369e-01
2.99419354838710e-02 7.98700455090680e+01 2.72080958470899e-01
3.01096774193548e-02 7.94265750330783e+01 2.71327106215741e-01
3.02774193548387e-02 7.89855668828298e+01 2.70571143794459e-01
3.04451612903226e-02 7.85470073865018e+01 2.69813146465160e-01
3.06129032258065e-02 7.81108829479834e+01 2.69053188700878e-01
3.07806451612903e-02 7.76771800470619e+01 2.68291343727232e-01
3.09483870967742e-02 7.72458852383887e+01 2.67527683075278e-01
3.11161290322581e-02 7.68169851510744e+01 2.66762277543896e-01
3.12838709677419e-02 7.63904664888637e+01 2.65995196747936e-01
3.14516129032258e-02 7.59663160291285e+01 2.65226508681993e-01
3.16193548387097e-02 7.55445206224702e+01 2.64456280657675e-01
3.17870967741936e-02 7.51250671928810e+01 2.63684578862296e-01
3.19548387096774e-02 7.47079427367644e+01 2.62911467932895e-01
3.21225806451613e-02 7.42931343225430e+01 2.62137011869111e-01
3.22903225806452e-02 7.38806290908084e+01 2.61361273602605e-01
3.24580645161290e-02 7.34704142533674e+01 2.60584314580777e-01
3.26258064516129e-02 7.30624770928554e+01 2.59806195656145e-01
3.27935483870968e-02 7.26568049628759e+01 2.59026976525140e-01
3.29612903225806e-02 7.22533852868971e+01 2.58246715885487e-01
3.31290322580645e-02 7.18522055585670e+01 2.57465471597248e-01
3.32967741935484e-02 7.14532533407978e+01 2.56683300136896e-01
3.34645161290323e-02 7.10565162653892e+01 2.55900257452598e-01
3.36322580645161e-02 7.06619820331531e+01 2.55116398558271e-01
3.38000000000000e-02 7.02696384130202e+01 2.54331777141428e-01
3.39677419354839e-02 6.98794732416709e+01 2.53546446396791e-01
3.41354838709677e-02 6.94914744236490e+01 2.52760458629653e-01
3.43032258064516e-02 6.91056299304917e+01 2.51973864873091e-01
3.44709677419355e-02 6.87219278003657e+01 2.51186715700487e-01
3.46387096774194e-02 6.83403561381722e+01 2.50399060838252e-01
3.48064516129032e-02 6.79609031146985e+01 2.49610948791862e-01
3.49741935483871e-02 6.75835569662602e+01 2.48822427638038e-01
3.51419354838710e-02 6.72083059947969e+01 2.48033544520609e-01
3.53096774193548e-02 6.68351385668959e+01 2.47244345789450e-01
3.54774193548387e-02 6.64640431140396e+01 2.46454877141903e-01
3.56451612903226e-02 6.60950081317915e+01 2.45665183132756e-01
3.58129032258065e-02 6.57280221794473e+01 2.44875307936773e-01
3.59806451612903e-02 6.53630738801185e+01 2.44085294983719e-01
3.61483870967742e-02 6.50001519199383e+01 2.43295186605690e-01
3.63161290322581e-02 6.46392450477183e+01 2.42505024780900e-01
3.64838709677419e-02 6.42803420750249e+01 2.41714850776861e-01
3.66516129032258e-02 6.39234318754041e+01 2.40924704806099e-01
3.68193548387097e-02 6.35685033840443e+01 2.40134626751708e-01
3.69870967741936e-02 6.32155455978449e+01 2.39344655818701e-01
3.71548387096774e-02 6.28645475746604e+01 2.38554830197648e-01
3.73225806451613e-02 6.25154984329686e+01 2.37765187772493e-01
3.74903225806452e-02 6.21683873519319e+01 2.36975765780205e-01
3.76580645161290e-02 6.18232035706603e+01 2.36186600481888e-01
3.78258064516129e-02 6.14799363878845e+01 2.35397727853411e-01
3.79935483870968e-02 6.11385751620110e+01 2.34609183142774e-01
3.81612903225807e-02 6.07991093102768e+01 2.33821000990009e-01
3.83290322580645e-02 6.04615283089324e+01 2.33033215548709e-01
3.84967741935484e-02 6.01258216925326e+01 2.32245860056020e-01
3.86645161290323e-02 5.97919790536184e+01 2.31458967498017e-01
3.88322580645161e-02 5.94599900427632e+01 2.30672570288546e-01
3.90000000000000e-02 5.91298443678807e+01 2.29886699959167e-01
3.91677419354839e-02 5.88015317939118e+01 2.29101387808585e-01
3.93354838709677e-02 5.84750421428657e+01 2.28316664588718e-01
3.95032258064516e-02 5.81503652931431e+01 2.27532560201835e-01
3.96709677419355e-02 5.78274911792292e+01 2.26749104334396e-01
3.98387096774194e-02 5.75064097917286e+01 2.25966326150360e-01
4.00064516129032e-02 5.71871111767054e+01 2.25184253995128e-01
4.01741935483871e-02 5.68695854353802e+01 2.24402916014323e-01
4.03419354838710e-02 5.65538227241608e+01 2.23622339755109e-01
4.05096774193548e-02 5.62398132538871e+01 2.22842552273177e-01
4.06774193548387e-02 5.59275472899739e+01 2.22063580240629e-01
4.08451612903226e-02 5.56170151517746e+01 2.21285449558859e-01
4.10129032258065e-02 5.53082072122872e+01 2.20508185955150e-01
4.11806451612903e-02 5.50011138981772e+01 2.19731814693327e-01
4.13483870967742e-02 5.46957256891570e+01 2.18956360294254e-01
4.15161290322581e-02 5.43920331176959e+01 2.18181847118399e-01
4.16838709677419e-02 5.40900267690394e+01 2.17408299082834e-01
4.18516129032258e-02 5.37896972806023e+01 2.16635739388231e-01
4.20193548387097e-02 5.34910353416838e+01 2.15864191087725e-01
4.21870967741935e-02 5.31940316934823e+01 2.15093676810322e-01
4.23548387096774e-02 5.28986771285030e+01 2.14324218493985e-01
4.25225806451613e-02 5.26049624902768e+01 2.13555837941185e-01
4.26903225806452e-02 5.23128786733721e+01 2.12788556548710e-01
4.28580645161290e-02 5.20224166228150e+01 2.12022395046555e-01
4.30258064516129e-02 5.17335673338136e+01 2.11257374040633e-01
4.31935483870968e-02 5.14463218517654e+01 2.10493513661594e-01
4.33612903225806e-02 5.11606712715979e+01 2.09730833658049e-01
4.35290322580645e-02 5.08766067378709e+01 2.08969353490291e-01
4.36967741935484e-02 5.05941194442187e+01 2.08209091989412e-01
4.38645161290323e-02 5.03132006330815e+01 2.07450067880841e-01
4.40322580645161e-02 5.00338415957075e+01 2.06692299529039e-01
4.42000000000000e-02 4.97560336716072e+01 2.05935804691098e-01
4.43677419354839e-02 4.94797682482899e+01 2.05180601028228e-01
4.45354838709677e-02 4.92050367612622e+01 2.04426705856052e-01
4.47032258064516e-02 4.89318306934947e+01 2.03674135903749e-01
4.48709677419355e-02 4.86601415751627e+01 2.02922907813765e-01
4.50387096774194e-02 4.83899609836416e+01 2.02173037897757e-01
4.52064516129032e-02 4.81212805429856e+01 2.01424541900968e-01
4.53741935483871e-02 4.78540919236725e+01 2.00677435490530e-01
4.55419354838710e-02 4.75883868425967e+01 1.99931733938401e-01
4.57096774193548e-02 4.73241570624770e+01 1.99187452205042e-01
4.58774193548387e-02 4.70613943919342e+01 1.98444605023193e-01
4.60451612903226e-02 4.68000906849878e+01 1.97703206590208e-01
4.62129032258065e-02 4.65402378408073e+01 1.96963271039376e-01
4.63806451612903e-02 4.62818278037019e+01 1.96224812209340e-01
4.65483870967742e-02 4.60248525626281e+01 1.95487843421461e-01
4.67161290322581e-02 4.57693041509459e+01 1.94752377940472e-01
4.68838709677419e-02 4.55151746464049e+01 1.94018428748881e-01
4.70516129032258e-02 4.52624561706639e+01 1.93286008329323e-01
4.72193548387097e-02 4.50111408890501e+01 1.92555129114773e-01
4.73870967741936e-02 4.47612210105435e+01 1.91825803267902e-01
4.75548387096774e-02 4.45126887873066e+01 1.91098042468246e-01
4.77225806451613e-02 4.42655365144480e+01 1.90371858352239e-01
4.78903225806452e-02 4.40197565300041e+01 1.89647262297466e-01
4.80580645161290e-02 4.37753412144795e+01 1.88924265214400e-01
4.82258064516129e-02 4.35322829906143e+01 1.88202877976618e-01
4.83935483870968e-02 4.32905743233636e+01 1.87483111140564e-01
4.85612903225806e-02 4.30502077193781e+01 1.86764975018986e-01
4.87290322580645e-02 4.28111757270555e+01 1.86048479754263e-01
4.88967741935484e-02 4.25734709360969e+01 1.85333635046600e-01
4.90645161290323e-02 4.23370859772801e+01 1.84620450569413e-01
4.92322580645161e-02 4.21020135224373e+01 1.83908935765393e-01
4.94000000000000e-02 4.18682462840200e+01 1.83199099649630e-01
4.95677419354839e-02 4.16357770148773e+01 1.82490951215754e-01
4.97354838709677e-02 4.14045985082307e+01 1.81784499236361e-01
4.99032258064516e-02 4.11747035972493e+01 1.81079752070478e-01
5.00709677419355e-02 4.09460851548311e+01 1.80376718060680e-01
5.02387096774194e-02 4.07187360935763e+01 1.79675405337854e-01
5.04064516129032e-02 4.04926493653718e+01 1.78975821632801e-01
5.05741935483871e-02 4.02678179611758e+01 1.78277974664547e-01
5.07419354838710e-02 4.00442349109899e+01 1.77581871886797e-01
5.09096774193548e-02 3.98218932833902e+01 1.76887520554141e-01
5.10774193548387e-02 3.96007861855637e+01 1.76194927787878e-01
5.12451612903226e-02 3.93809067629063e+01 1.75504100330160e-01
5.14129032258065e-02 3.91622481988131e+01 1.74815044919106e-01
5.15806451612903e-02 3.89448037146490e+01 1.74127768104176e-01
5.17483870967742e-02 3.87285665693557e+01 1.73442276067997e-01
5.19161290322581e-02 3.85135300592451e+01 1.72758574993180e-01
5.20838709677419e-02 3.82996875179690e+01 1.72076670881618e-01
5.22516129032258e-02 3.80870323161337e+01 1.71396569380223e-01
5.24193548387097e-02 3.78755578610978e+01 1.70718276139689e-01
5.25870967741936e-02 3.76652575969395e+01 1.70041796637652e-01
5.27548387096774e-02 3.74561250040804e+01 1.69367136008149e-01
5.29225806451613e-02 3.72481535990860e+01 1.68694299392531e-01
