Energy (eV)          EEDF (eV^-(3/2))     First Anisotropy
2.40769230769231e-02 4.11888226492337e-02 1.91706532186298e-05
7.22307692307692e-02 4.09707587018084e-02 3.16788976286305e-05
1.20384615384615e-01 4.07538492400263e-02 4.18799147211553e-05
1.68538461538462e-01 4.05380881518479e-02 4.96664454777031e-05
2.16692307692308e-01 4.03234693558622e-02 5.61909933536332e-05
2.64846153846154e-01 4.01099868058484e-02 6.18883060437360e-05
3.13000000000000e-01 3.98976344861216e-02 6.69828772418257e-05
3.61153846153846e-01 3.96864064128903e-02 7.16099846576123e-05
4.09307692307692e-01 3.94762966340744e-02 7.58591587746362e-05
4.57461538461538e-01 3.92672992291274e-02 7.97935459310799e-05
5.05615384615385e-01 3.90594083084223e-02 8.34597929706024e-05
5.53769230769231e-01 3.88526180144250e-02 8.68935966782353e-05
6.01923076923077e-01 3.86469225201260e-02 9.01230468621241e-05
6.50076923076923e-01 3.84423160293690e-02 9.31707530838473e-05
6.98230769230769e-01 3.82387927766823e-02 9.60552582045659e-05
7.46384615384615e-01 3.80363470271259e-02 9.87920119835466e-05
7.94538461538462e-01 3.78349730761233e-02 1.01394062042058e-04
8.42692307692308e-01 3.76346652490590e-02 1.03872556692146e-04
8.90846153846154e-01 3.74354179018611e-02 1.06237119145213e-04
9.39000000000000e-01 3.72372254200784e-02 1.08496131245560e-04
9.87153846153846e-01 3.70400822189836e-02 1.10656952090730e-04
1.03530769230769e+00 3.68439827432205e-02 1.12726089187623e-04
1.08346153846154e+00 3.66489214664935e-02 1.14709333659277e-04
1.13161538461538e+00 3.64548928941726e-02 1.16611869910817e-04
1.17976923076923e+00 3.62618915570720e-02 1.18438363206954e-04
1.22792307692308e+00 3.60699120183942e-02 1.20193032005203e-04
1.27607692307692e+00 3.58789488669022e-02 1.21879707929263e-04
1.32423076923077e+00 3.56889967216050e-02 1.23501884426115e-04
1.37238461538462e+00 3.55000502314453e-02 1.25062759875714e-04
1.42053846153846e+00 3.53121040708203e-02 1.26565271859264e-04
1.46869230769231e+00 3.51251529450503e-02 1.28012127247655e-04
1.51684615384615e+00 3.49391915848940e-02 1.29405828051906e-04
1.56500000000000e+00 3.47542147503015e-02 1.30748692526197e-04
1.61315384615385e+00 3.45702172301397e-02 1.32042875450447e-04
1.66130769230769e+00 3.43871938385161e-02 1.33290384002425e-04
1.70946153846154e+00 3.42051394181648e-02 1.34493091528148e-04
1.75761538461538e+00 3.40240488401917e-02 1.35652751364387e-04
1.80576923076923e+00 3.38439170007169e-02 1.36771007138019e-04
1.85392307692308e+00 3.36647388249363e-02 1.37849402708346e-04
1.90207692307692e+00 3.34865092629438e-02 1.38889391061882e-04
1.95023076923077e+00 3.33092232925489e-02 1.39892341256103e-04
1.99838461538462e+00 3.31328759190602e-02 1.40859546387510e-04
2.04653846153846e+00 3.29574621724139e-02 1.41792229023024e-04
2.09469230769231e+00 3.27829771106073e-02 1.42691546853023e-04
2.14284615384615e+00 3.26094158161163e-02 1.43558597848128e-04
2.19100000000000e+00 3.24367733982944e-02 1.44394424035969e-04
2.23915384615385e+00 3.22650449931691e-02 1.45200016541762e-04
2.28730769230769e+00 3.20942257609548e-02 1.45976318750644e-04
2.33546153846154e+00 3.19243108882703e-02 1.46724229138919e-04
2.38361538461538e+00 3.17552955879444e-02 1.47444605259940e-04
2.43176923076923e+00 3.15871750966944e-02 1.48138265873448e-04
2.47992307692308e+00 3.14199446778668e-02 1.48805993594548e-04
2.52807692307692e+00 3.12535996185192e-02 1.49448537375688e-04
2.57623076923077e+00 3.10881352313417e-02 1.50066614010750e-04
2.62438461538462e+00 3.09235468544817e-02 1.50660910965558e-04
2.67253846153846e+00 3.07598298494870e-02 1.51232087587634e-04
2.72069230769231e+00 3.05969796037052e-02 1.51780776875111e-04
2.76884615384615e+00 3.04349915276975e-02 1.52307587159288e-04
2.81700000000000e+00 3.02738610569267e-02 1.52813102947548e-04
2.86515384615385e+00 3.01135836515885e-02 1.53297887048931e-04
2.91330769230769e+00 2.99541547947783e-02 1.53762481374005e-04
2.96146153846154e+00 2.97955699940725e-02 1.54207407652808e-04
3.00961538461538e+00 2.96378247813657e-02 1.54633169272222e-04
3.05776923076923e+00 2.94809147111377e-02 1.55040251727397e-04
3.10592307692308e+00 2.93248353624468e-02 1.55429123637160e-04
3.15407692307692e+00 2.91695823367418e-02 1.55800237732290e-04
3.20223076923077e+00 2.90151512592653e-02 1.56154031136852e-04
3.25038461538462e+00 2.88615377789015e-02 1.56490926847044e-04
3.29853846153846e+00 2.87087375666102e-02 1.56811333937907e-04
3.34669230769231e+00 2.85567463172065e-02 1.57115648314328e-04
3.39484615384615e+00 2.84055597473846e-02 1.57404253451976e-04
3.44300000000000e+00 2.82551735969730e-02 1.57677520494141e-04
3.49115384615385e+00 2.81055836287873e-02 1.57935809481606e-04
3.53930769230769e+00 2.79567856272094e-02 1.58179469513089e-04
3.58746153846154e+00 2.78087753993732e-02 1.58408838879978e-04
3.63561538461538e+00 2.76615487750212e-02 1.58624246186382e-04
3.68376923076923e+00 2.75151016051514e-02 1.58826010331791e-04
3.73192307692308e+00 2.73694297635326e-02 1.59014441005561e-04
3.78007692307692e+00 2.72245291449925e-02 1.59189839185044e-04
3.82823076923077e+00 2.70803956664852e-02 1.59352497061186e-04
3.87638461538462e+00 2.69370252669565e-02 1.59502699007622e-04
3.92453846153846e+00 2.67944139061031e-02 1.59640721487224e-04
3.97269230769231e+00 2.66525575657450e-02 1.59766833444996e-04
4.02084615384615e+00 2.65114522482580e-02 1.59881296708792e-04
4.06900000000000e+00 2.63710939775416e-02 1.59984365856991e-04
4.11715384615385e+00 2.62314787988875e-02 1.60076289072546e-04
4.16530769230769e+00 2.60926027778403e-02 1.60157308093980e-04
4.21346153846154e+00 2.59544620011169e-02 1.60227658157534e-04
4.26161538461538e+00 2.58170525764783e-02 1.60287568797947e-04
4.30976923076923e+00 2.56803706316385e-02 1.60337263682149e-04
4.35792307692308e+00 2.55444123154529e-02 1.60376960894780e-04
4.40607692307692e+00 2.54091737965384e-02 1.60406873234670e-04
4.45423076923077e+00 2.52746512641098e-02 1.60427208027262e-04
4.50238461538462e+00 2.51408409278574e-02 1.60438167846051e-04
4.55053846153846e+00 2.50077390169377e-02 1.60439950322900e-04
4.59869230769231e+00 2.48753417810601e-02 1.60432748387017e-04
4.64684615384615e+00 2.47436454892110e-02 1.60416750515723e-04
4.69500000000000e+00 2.46126464304191e-02 1.60392140529983e-04
4.74315384615385e+00 2.44823409136364e-02 1.60359098251193e-04
4.79130769230769e+00 2.43527252668027e-02 1.60317799379041e-04
4.83946153846154e+00 2.42237958375754e-02 1.60268415366490e-04
4.88761538461538e+00 2.40955489932134e-02 1.60211114045660e-04
4.93576923076923e+00 2.39679811196775e-02 1.60146059416547e-04
4.98392307692308e+00 2.38410886225832e-02 1.60073411833600e-04
5.03207692307692e+00 2.37148679260641e-02 1.59993328204411e-04
5.08023076923077e+00 2.35893154734411e-02 1.59905961770358e-04
5.12838461538461e+00 2.34644277271107e-02 1.59811462683616e-04
5.17653846153846e+00 2.33402011677070e-02 1.59709977791343e-04
5.22469230769231e+00 2.32166322949789e-02 1.59601650797824e-04
5.27284615384615e+00 2.30937176267326e-02 1.59486622438646e-04
5.32100000000000e+00 2.29714536994472e-02 1.59365030259386e-04
5.36915384615385e+00 2.28498370681661e-02 1.59237009150820e-04
5.41730769230769e+00 2.27288643057155e-02 1.59102691203740e-04
5.46546153846154e+00 2.26085320032940e-02 1.58962205563257e-04
5.51361538461538e+00 2.24888367703659e-02 1.58815678943616e-04
5.56176923076923e+00 2.23697752339075e-02 1.58663235410028e-04
5.60992307692308e+00 2.22513440391842e-02 1.58504996512011e-04
5.65807692307692e+00 2.21335398487978e-02 1.58341081428277e-04
5.70623076923077e+00 2.20163593432317e-02 1.58171606745916e-04
5.75438461538462e+00 2.18997992207472e-02 1.57996686941531e-04
5.80253846153846e+00 2.17838561966779e-02 1.57816434165796e-04
5.85069230769231e+00 2.16685270041485e-02 1.57630958362461e-04
5.89884615384615e+00 2.15538083931845e-02 1.57440367398557e-04
5.94700000000000e+00 2.14396971312153e-02 1.57244766847397e-04
5.99515384615385e+00 2.13261900029746e-02 1.57044260439905e-04
6.04330769230769e+00 2.12132838098376e-02 1.56838949916508e-04
6.09146153846154e+00 2.11009753703045e-02 1.56628934879473e-04
6.13961538461538e+00 2.09892615199022e-02 1.56414313229471e-04
6.18776923076923e+00 2.08781391105444e-02 1.56195180955432e-04
6.23592307692308e+00 2.07676050111725e-02 1.55971632236095e-04
6.28407692307692e+00 2.06576561069492e-02 1.55743759552047e-04
6.33223076923077e+00 2.05482892997057e-02 1.55511653475275e-04
6.38038461538461e+00 2.04395015078472e-02 1.55275403080649e-04
6.42853846153846e+00 2.03312896657504e-02 1.55035095741115e-04
6.47669230769231e+00 2.02236507243601e-02 1.54790817220146e-04
6.52484615384615e+00 2.01165816504307e-02 1.54542651774251e-04
6.57300000000000e+00 2.00100794269422e-02 1.54290681948370e-04
6.62115384615385e+00 1.99041410530076e-02 1.54034988964680e-04
6.66930769230769e+00 1.97987635433064e-02 1.53775652579899e-04
6.71746153846154e+00 1.96939439284836e-02 1.53512750943520e-04
6.76561538461538e+00 1.95896792550598e-02 1.53246360975244e-04
6.81376923076923e+00 1.94859665848818e-02 1.52976558168337e-04
6.86192307692308e+00 1.93828029956574e-02 1.52703416670612e-04
6.91007692307692e+00 1.92801855802645e-02 1.52427009374771e-04
6.95823076923077e+00 1.91781114471227e-02 1.52147407722531e-04
7.00638461538461e+00 1.90765777201060e-02 1.51864682062388e-04
7.05453846153846e+00 1.89755815380241e-02 1.51578901459179e-04
7.10269230769231e+00 1.88751200551214e-02 1.51290133768840e-04
7.15084615384615e+00 1.87751904404256e-02 1.50998445722104e-04
7.19900000000000e+00 1.86757898780939e-02 1.50703902735003e-04
7.24715384615385e+00 1.85769155673282e-02 1.50406569248589e-04
7.29530769230769e+00 1.84785647218844e-02 1.50106508595076e-04
7.34346153846154e+00 1.83807345704067e-02 1.49803782864977e-04
7.39161538461538e+00 1.82834223563440e-02 1.49498453237683e-04
7.43976923076923e+00 1.81866253374738e-02 1.49190579800034e-04
7.48792307692308e+00 1.80903407863530e-02 1.48880221613011e-04
7.53607692307692e+00 1.79945659897207e-02 1.48567436786796e-04
7.58423076923077e+00 1.78992982488095e-02 1.48252282300526e-04
7.63238461538462e+00 1.78045348792649e-02 1.47934814316843e-04
7.68053846153846e+00 1.77102732106940e-02 1.47615088006742e-04
7.72869230769231e+00 1.76165105870883e-02 1.47293157611782e-04
7.77684615384615e+00 1.75232443662575e-02 1.46969076514197e-04
7.82500000000000e+00 1.74304719201218e-02 1.46642897062987e-04
7.87315384615385e+00 1.73381906346324e-02 1.46314670873673e-04
7.92130769230769e+00 1.72463979093445e-02 1.45984448704299e-04
7.96946153846154e+00 1.71550911576988e-02 1.45652280332548e-04
8.01761538461538e+00 1.70642678069433e-02 1.45318214847909e-04
8.06576923076923e+00 1.69739252977193e-02 1.44982300485396e-04
8.11392307692308e+00 1.68840610844424e-02 1.44644584681843e-04
8.16207692307692e+00 1.67946726347837e-02 1.44305114139562e-04
8.21023076923077e+00 1.67057574299319e-02 1.43963934661459e-04
8.25838461538462e+00 1.66173129645184e-02 1.43621091429834e-04
8.30653846153846e+00 1.65293367462236e-02 1.43276628846093e-04
8.35469230769231e+00 1.64418262961351e-02 1.42930590583620e-04
8.40284615384615e+00 1.63547791482549e-02 1.42583019647672e-04
8.45100000000000e+00 1.62681928497457e-02 1.42233958216462e-04
8.49915384615385e+00 1.61820649608573e-02 1.41883447907507e-04
8.54730769230769e+00 1.60963930545533e-02 1.41531529663603e-04
8.59546153846154e+00 1.60111747167481e-02 1.41178243639899e-04
8.64361538461538e+00 1.59264075462354e-02 1.40823629463831e-04
8.69176923076923e+00 1.58420891543243e-02 1.40467726083268e-04
8.73992307692308e+00 1.57582171651648e-02 1.40110571814881e-04
8.78807692307692e+00 1.56747892152934e-02 1.39752204398952e-04
8.83623076923077e+00 1.55918029538552e-02 1.39392660848934e-04
8.88438461538462e+00 1.55092560425345e-02 1.39031977700130e-04
8.93253846153846e+00 1.54271461552090e-02 1.38670190863335e-04
8.98069230769231e+00 1.53454709782553e-02 1.38307335670469e-04
9.02884615384615e+00 1.52642282101172e-02 1.37943446926490e-04
9.07700000000000e+00 1.51834155615146e-02 1.37578558764449e-04
9.12515384615384e+00 1.51030307553755e-02 1.37212704883463e-04
9.17330769230769e+00 1.50230715265068e-02 1.36845918444244e-04
9.22146153846154e+00 1.49435356217963e-02 1.36478231965658e-04
9.26961538461538e+00 1.48644208001458e-02 1.36109677557203e-04
9.31776923076923e+00 1.47857248321506e-02 1.35740286780552e-04
9.36592307692308e+00 1.47074455003787e-02 1.35370090691600e-04
9.41407692307692e+00 1.46295805989700e-02 1.34999119888266e-04
9.46223076923077e+00 1.45521279338268e-02 1.34627404373397e-04
9.51038461538461e+00 1.44750853225485e-02 1.34254973777509e-04
9.55853846153846e+00 1.43984505941264e-02 1.33881857225425e-04
9.60669230769231e+00 1.43222215892060e-02 1.33508083376108e-04
9.65484615384615e+00 1.42463961597064e-02 1.33133680468054e-04
9.70300000000000e+00 1.41709721689985e-02 1.32758676187269e-04
9.75115384615385e+00 1.40959474918423e-02 1.32383097880752e-04
9.79930769230769e+00 1.40213200140948e-02 1.32006972460983e-04
9.84746153846154e+00 1.39470876328835e-02 1.31630326311358e-04
9.89561538461538e+00 1.38732482565432e-02 1.31253185494900e-04
9.94376923076923e+00 1.37997998043333e-02 1.30875575628099e-04
9.99192307692308e+00 1.37267402066767e-02 1.30497521917827e-04
1.00400769230769e+01 1.36540674048072e-02 1.30119049044720e-04
1.00882307692308e+01 1.35817793512873e-02 1.29740181705585e-04
1.01363846153846e+01 1.35098740084514e-02 1.29360943767549e-04
1.01845384615385e+01 1.34383493508391e-02 1.28981358862789e-04
1.02326923076923e+01 1.33672033623092e-02 1.28601450262481e-04
1.02808461538462e+01 1.32964340387856e-02 1.28221240851223e-04
1.03290000000000e+01 1.32260393854242e-02 1.27840753163977e-04
1.03771538461538e+01 1.31560174193069e-02 1.27460009360725e-04
1.04253076923077e+01 1.30863661666619e-02 1.27079031262716e-04
1.04734615384615e+01 1.30170836655061e-02 1.26697840327435e-04
1.05216153846154e+01 1.29481679629170e-02 1.26316457684162e-04
1.05697692307692e+01 1.28796171176257e-02 1.25934904109202e-04
1.06179230769231e+01 1.28114291973386e-02 1.25553200060808e-04
1.06660769230769e+01 1.27436022812824e-02 1.25171365366307e-04
1.07142307692308e+01 1.26761344582025e-02 1.24789420411577e-04
1.07623846153846e+01 1.26090238263452e-02 1.24407384388598e-04
1.08105384615385e+01 1.25422684952713e-02 1.24025276459221e-04
1.08586923076923e+01 1.24758665833156e-02 1.23643115490940e-04
1.09068461538462e+01 1.24098162199978e-02 1.23260920033302e-04
1.09550000000000e+01 1.23441155435288e-02 1.22878708350466e-04
1.10031538461538e+01 1.22787627031768e-02 1.22496498397866e-04
1.10513076923077e+01 1.22137558568185e-02 1.22114307854196e-04
1.10994615384615e+01 1.21490931732623e-02 1.21732154098300e-04
1.11476153846154e+01 1.20847728298430e-02 1.21350054240631e-04
1.11957692307692e+01 1.20207930147026e-02 1.20968025100426e-04
1.12439230769231e+01 1.19571519244289e-02 1.20586083236568e-04
1.12920769230769e+01 1.18938477662934e-02 1.20204244663446e-04
1.13402307692308e+01 1.18308787564864e-02 1.19822525929197e-04
1.13883846153846e+01 1.17682431200973e-02 1.19440942525676e-04
1.14365384615385e+01 1.17059390927110e-02 1.19059509943574e-04
1.14846923076923e+01 1.16439649181646e-02 1.18678243432109e-04
1.15328461538462e+01 1.15823188506723e-02 1.18297157977323e-04
1.15810000000000e+01 1.15209991526210e-02 1.17916268330956e-04
1.16291538461538e+01 1.14600040966572e-02 1.17535588988958e-04
1.16773076923077e+01 1.13993319635218e-02 1.17155134219891e-04
1.17254615384615e+01 1.13389810440991e-02 1.16774918043705e-04
1.17736153846154e+01 1.12789496372899e-02 1.16394954259672e-04
1.18217692307692e+01 1.12192360520237e-02 1.16015256425380e-04
1.18699230769231e+01 1.11598386051697e-02 1.15635837884194e-04
1.19180769230769e+01 1.11007556235121e-02 1.15256711506868e-04
1.19662307692308e+01 1.10419854421878e-02 1.14877890670545e-04
1.20143846153846e+01 1.09835264046656e-02 1.14499387813983e-04
1.20625384615385e+01 1.09253768641565e-02 1.14121215395707e-04
1.21106923076923e+01 1.08675351816265e-02 1.13743385675222e-04
1.21588461538462e+01 1.08099997276740e-02 1.13365910693056e-04
1.22070000000000e+01 1.07527688805774e-02 1.12988802296487e-04
1.22551538461538e+01 1.06958410281391e-02 1.12612072119839e-04
1.23033076923077e+01 1.06392145657667e-02 1.12235731609797e-04
1.23514615384615e+01 1.05828878982851e-02 1.11859792005913e-04
1.23996153846154e+01 1.05268594380503e-02 1.11484264365510e-04
1.24477692307692e+01 1.04711276067297e-02 1.11109159544434e-04
1.24959230769231e+01 1.04156908334488e-02 1.10734488221567e-04
1.25440769230769e+01 1.03605475565399e-02 1.10360260663579e-04
1.25922307692308e+01 1.03056962221548e-02 1.09986487615139e-04
1.26403846153846e+01 1.02511352842439e-02 1.09613178984328e-04
1.26885384615385e+01 1.01968632058051e-02 1.09240344714016e-04
1.27366923076923e+01 1.01428784571187e-02 1.08867994582466e-04
1.27848461538462e+01 1.00891795174113e-02 1.08496138185023e-04
1.28330000000000e+01 1.00357648731205e-02 1.08124784957102e-04
1.28811538461538e+01 9.98263301953006e-03 1.07753944156138e-04
1.29293076923077e+01 9.92978245906440e-03 1.07383624884209e-04
1.29774615384615e+01 9.87721170289508e-03 1.07013836070186e-04
1.30256153846154e+01 9.82491926926426e-03 1.06644586492044e-04
1.30737692307692e+01 9.77290368506355e-03 1.06275884759166e-04
1.31219230769231e+01 9.72116348418581e-03 1.05907739334323e-04
1.31700769230769e+01 9.66969720907677e-03 1.05540158319292e-04
1.32182307692308e+01 9.61850340950057e-03 1.05173150265361e-04
1.32663846153846e+01 9.56758064251875e-03 1.04806722975757e-04
1.33145384615385e+01 9.51692747359884e-03 1.04440884299169e-04
1.33626923076923e+01 9.46654247504294e-03 1.04075641947780e-04
1.34108461538462e+01 9.41642422746548e-03 1.03711003480487e-04
1.34590000000000e+01 9.36657131824811e-03 1.03346976323556e-04
1.35071538461538e+01 9.31698234299229e-03 1.02983567754057e-04
1.35553076923077e+01 9.26765590399989e-03 1.02620784920181e-04
1.36034615384615e+01 9.21859061170117e-03 1.02258634824862e-04
1.36516153846154e+01 9.16978508316063e-03 1.01897124345804e-04
1.36997692307692e+01 9.12123794348078e-03 1.01536260219298e-04
1.37479230769231e+01 9.07294782433280e-03 1.01176049059955e-04
1.37960769230769e+01 9.02491336533654e-03 1.00816497165101e-04
1.38442307692308e+01 8.97713321295945e-03 1.00457611253644e-04
1.38923846153846e+01 8.92960602049573e-03 1.00099397373882e-04
1.39405384615385e+01 8.88233044905268e-03 9.97418616269224e-05
1.39886923076923e+01 8.83530516614842e-03 9.93850100005226e-05
1.40368461538462e+01 8.78852884702751e-03 9.90288483537247e-05
1.40850000000000e+01 8.74200017328175e-03 9.86733824354275e-05
1.41331538461538e+01 8.69571783414372e-03 9.83186178691852e-05
1.41813076923077e+01 8.64968052513022e-03 9.79645601715239e-05
1.42294615384615e+01 8.60388694931416e-03 9.76112147369083e-05
1.42776153846154e+01 8.55833581599025e-03 9.72585868557898e-05
1.43257692307692e+01 8.51302584192565e-03 9.69066816997809e-05
1.43739230769231e+01 8.46795575004740e-03 9.65555043393992e-05
1.44220769230769e+01 8.42312427067232e-03 9.62050595654788e-05
1.44702307692308e+01 8.37853014052286e-03 9.58553525634289e-05
1.45183846153846e+01 8.33417210270660e-03 9.55063879161178e-05
1.45665384615385e+01 8.29004890759562e-03 9.51581702641091e-05
1.46146923076923e+01 8.24615931157266e-03 9.48107041538210e-05
1.46628461538462e+01 8.20250207820469e-03 9.44639940234132e-05
1.47110000000000e+01 8.15907597700938e-03 9.41180442195507e-05
1.47591538461538e+01 8.11587978460927e-03 9.37728589834647e-05
1.48073076923077e+01 8.07291228351821e-03 9.34284424674715e-05
1.48554615384615e+01 8.03017226327651e-03 9.30847987212208e-05
1.49036153846154e+01 7.98765851925688e-03 9.27419317079699e-05
1.49517692307692e+01 7.94536985378103e-03 9.23998452909710e-05
1.49999230769231e+01 7.90330507494472e-03 9.20585432495306e-05
1.50480769230769e+01 7.86146299771608e-03 9.17180291157608e-05
1.50962307692308e+01 7.81984244305421e-03 9.13783067904852e-05
1.51443846153846e+01 7.77844223788924e-03 9.10393796320975e-05
1.51925384615385e+01 7.73726121590778e-03 9.07012510597087e-05
