Energy (eV)          EEDF (eV^-(3/2))     First Anisotropy
2.80434782608696e-03 1.73658917301562e+00 9.44020598107133e-04
8.41304347826087e-03 1.72362161037105e+00 1.55826475234082e-03
1.40217391304348e-02 1.71075087988403e+00 2.05554595081979e-03
1.96304347826087e-02 1.69797625843918e+00 2.43239831307251e-03
2.52391304347826e-02 1.68529702845893e+00 2.74592414900225e-03
3.08478260869565e-02 1.67271247755986e+00 3.01773177689616e-03
3.64565217391304e-02 1.66022189879674e+00 3.25901269665232e-03
4.20652173913044e-02 1.64782459041517e+00 3.47653053173288e-03
4.76739130434783e-02 1.63551985597306e+00 3.67477457445696e-03
5.32826086956522e-02 1.62330700416875e+00 3.85692024690877e-03
5.88913043478261e-02 1.61118534891461e+00 4.02531998830503e-03
6.45000000000000e-02 1.59915420920089e+00 4.18177915982135e-03
7.01086956521739e-02 1.58721290914345e+00 4.32772243992131e-03
7.57173913043478e-02 1.57536077786898e+00 4.46429980778929e-03
8.13260869565217e-02 1.56359714954658e+00 4.59245705665385e-03
8.69347826086957e-02 1.55192136328733e+00 4.71298441753087e-03
9.25434782608696e-02 1.54033276316489e+00 4.82655110334503e-03
9.81521739130435e-02 1.52883069812545e+00 4.93373048578326e-03
1.03760869565217e-01 1.51741452196674e+00 5.03501882446077e-03
1.09369565217391e-01 1.50608359343030e+00 5.13084953247118e-03
1.14978260869565e-01 1.49483727584741e+00 5.22160414104554e-03
1.20586956521739e-01 1.48367493740774e+00 5.30762086879746e-03
1.26195652173913e-01 1.47259595110785e+00 5.38920151257633e-03
1.31804347826087e-01 1.46159969444876e+00 5.46661689957129e-03
1.37413043478261e-01 1.45068554966780e+00 5.54011130765244e-03
1.43021739130435e-01 1.43985290369220e+00 5.60990617244540e-03
1.48630434782609e-01 1.42910114787411e+00 5.67620307538335e-03
1.54239130434783e-01 1.41842967818673e+00 5.73918623043436e-03
1.59847826086957e-01 1.40783789518052e+00 5.79902465063511e-03
1.65456521739130e-01 1.39732520374854e+00 5.85587390764969e-03
1.71065217391304e-01 1.38689101329442e+00 5.90987762597435e-03
1.76673913043478e-01 1.37653473769078e+00 5.96116883478884e-03
1.82282608695652e-01 1.36625579506890e+00 6.00987106338801e-03
1.87891304347826e-01 1.35605360796423e+00 6.05609928642165e-03
1.93500000000000e-01 1.34592760327661e+00 6.09996081367890e-03
1.99108695652174e-01 1.33587721208005e+00 6.14155599577536e-03
2.04717391304348e-01 1.32590186979743e+00 6.18097887538206e-03
2.10326086956522e-01 1.31600101597159e+00 6.21831776441600e-03
2.15934782608696e-01 1.30617409437855e+00 6.25365571763314e-03
2.21543478260870e-01 1.29642055299096e+00 6.28707101959788e-03
2.27152173913043e-01 1.28673984381687e+00 6.31863756077749e-03
2.32760869565217e-01 1.27713142299974e+00 6.34842517166414e-03
2.38369565217391e-01 1.26759475078350e+00 6.37649997886227e-03
2.43978260869565e-01 1.25812929136369e+00 6.40292467056145e-03
2.49586956521739e-01 1.24873451297627e+00 6.42775873409002e-03
2.55195652173913e-01 1.23940988786403e+00 6.45105872433690e-03
2.60804347826087e-01 1.23015489213859e+00 6.47287845511427e-03
2.66413043478261e-01 1.22096900585954e+00 6.49326917138670e-03
2.72021739130435e-01 1.21185171300213e+00 6.51227975712885e-03
2.77630434782609e-01 1.20280250132869e+00 6.52995687563505e-03
2.83239130434783e-01 1.19382086245966e+00 6.54634509643315e-03
2.88847826086957e-01 1.18490629184211e+00 6.56148706014034e-03
2.94456521739130e-01 1.17605828862976e+00 6.57542358274848e-03
3.00065217391304e-01 1.16727635574683e+00 6.58819375039472e-03
3.05673913043478e-01 1.15855999985741e+00 6.59983505292682e-03
3.11282608695652e-01 1.14990873125308e+00 6.61038346226853e-03
3.16891304347826e-01 1.14132206391051e+00 6.61987350392372e-03
3.22500000000000e-01 1.13279951546159e+00 6.62833836727395e-03
3.28108695652174e-01 1.12434060708794e+00 6.63580996033886e-03
3.33717391304348e-01 1.11594486359731e+00 6.64231898266681e-03
3.39326086956522e-01 1.10761181329672e+00 6.64789499484233e-03
3.44934782608696e-01 1.09934098804010e+00 6.65256645912974e-03
3.50543478260870e-01 1.09113192319993e+00 6.65636082231306e-03
3.56152173913043e-01 1.08298415757241e+00 6.65930455375355e-03
3.61760869565217e-01 1.07489723342062e+00 6.66142318030994e-03
3.67369565217391e-01 1.06687069644697e+00 6.66274135763428e-03
3.72978260869565e-01 1.05890409570351e+00 6.66328289936147e-03
3.78586956521739e-01 1.05099698363101e+00 6.66307080387190e-03
3.84195652173913e-01 1.04314891603226e+00 6.66212731643316e-03
3.89804347826087e-01 1.03535945198698e+00 6.66047395157149e-03
3.95413043478261e-01 1.02762815388736e+00 6.65813151353866e-03
4.01021739130435e-01 1.01995458741208e+00 6.65512015108981e-03
4.06630434782609e-01 1.01233832144545e+00 6.65145937454726e-03
4.12239130434783e-01 1.00477892810987e+00 6.64716807138026e-03
4.17847826086957e-01 9.97275982740331e-01 6.64226455497843e-03
4.23456521739130e-01 9.89829063807717e-01 6.63676657753960e-03
4.29065217391304e-01 9.82437752948221e-01 6.63069134182562e-03
4.34673913043478e-01 9.75101634938577e-01 6.62405554497544e-03
4.40282608695652e-01 9.67820297622965e-01 6.61687538809681e-03
4.45891304347826e-01 9.60593331939866e-01 6.60916658499762e-03
4.51500000000000e-01 9.53420331897861e-01 6.60094440185438e-03
4.57108695652174e-01 9.46300894505965e-01 6.59222366089023e-03
4.62717391304348e-01 9.39234619812894e-01 6.58301875991344e-03
4.68326086956522e-01 9.32221110824180e-01 6.57334369197304e-03
4.73934782608696e-01 9.25259973524736e-01 6.56321204692438e-03
4.79543478260870e-01 9.18350816855664e-01 6.55263704537121e-03
4.85152173913043e-01 9.11493252650134e-01 6.54163154250882e-03
4.90760869565217e-01 9.04686895653933e-01 6.53020803151253e-03
4.96369565217391e-01 8.97931363502869e-01 6.51837867479392e-03
5.01978260869565e-01 8.91226276661427e-01 6.50615530640525e-03
5.07586956521739e-01 8.84571258441471e-01 6.49354943406675e-03
5.13195652173913e-01 8.77965934980228e-01 6.48057226809561e-03
5.18804347826087e-01 8.71409935181541e-01 6.46723472265096e-03
5.24413043478261e-01 8.64902890732889e-01 6.45354741666221e-03
5.30021739130435e-01 8.58444436083924e-01 6.43952070072670e-03
5.35630434782609e-01 8.52034208390155e-01 6.42516465741045e-03
5.41239130434783e-01 8.45671847528464e-01 6.41048910129620e-03
5.46847826086957e-01 8.39356996076123e-01 6.39550360409395e-03
5.52456521739131e-01 8.33089299256804e-01 6.38021749416769e-03
5.58065217391304e-01 8.26868404954698e-01 6.36463985587958e-03
5.63673913043478e-01 8.20693963694012e-01 6.34877955311354e-03
5.69282608695652e-01 8.14565628587155e-01 6.33264522817504e-03
5.74891304347826e-01 8.08483055347589e-01 6.31624530056659e-03
5.80500000000000e-01 8.02445902269779e-01 6.29958798909503e-03
5.86108695652174e-01 7.96453830179444e-01 6.28268130781307e-03
5.91717391304348e-01 7.90506502454948e-01 6.26553307416209e-03
5.97326086956522e-01 7.84603584968762e-01 6.24815091752952e-03
6.02934782608696e-01 7.78744746098178e-01 6.23054227475438e-03
6.08543478260870e-01 7.72929656706054e-01 6.21271441007880e-03
6.14152173913044e-01 7.67157990094420e-01 6.19467441297516e-03
6.19760869565217e-01 7.61429422014162e-01 6.17642919591930e-03
6.25369565217391e-01 7.55743630646236e-01 6.15798551327185e-03
6.30978260869565e-01 7.50100296557014e-01 6.13934995883176e-03
6.36586956521739e-01 7.44499102707025e-01 6.12052896334215e-03
6.42195652173913e-01 7.38939734432623e-01 6.10152881239762e-03
6.47804347826087e-01 7.33421879402981e-01 6.08235564378047e-03
6.53413043478261e-01 7.27945227627969e-01 6.06301544475525e-03
6.59021739130435e-01 7.22509471440255e-01 6.04351406908602e-03
6.64630434782609e-01 7.17114305453864e-01 6.02385723419822e-03
6.70239130434783e-01 7.11759426571271e-01 6.00405051831266e-03
6.75847826086957e-01 7.06444533965907e-01 5.98409937664563e-03
6.81456521739131e-01 7.01169329042216e-01 5.96400913843058e-03
6.87065217391304e-01 6.95933515442024e-01 5.94378500393356e-03
6.92673913043478e-01 6.90736799027431e-01 5.92343205989725e-03
6.98282608695652e-01 6.85578887842305e-01 5.90295527645753e-03
7.03891304347826e-01 6.80459492117973e-01 5.88235950407187e-03
7.09500000000000e-01 6.75378324256496e-01 5.86164948826256e-03
7.15108695652174e-01 6.70335098793527e-01 5.84082986458682e-03
7.20717391304348e-01 6.65329532410083e-01 5.81990516299315e-03
7.26326086956522e-01 6.60361343889318e-01 5.79887981255663e-03
7.31934782608696e-01 6.55430254121071e-01 5.77775813636911e-03
7.37543478260870e-01 6.50535986085787e-01 5.75654436515604e-03
7.43152173913044e-01 6.45678264819601e-01 5.73524263407816e-03
7.48760869565217e-01 6.40856817418338e-01 5.71385697956289e-03
7.54369565217391e-01 6.36071373021812e-01 5.69239135234603e-03
7.59978260869565e-01 6.31321662780094e-01 5.67084961425654e-03
7.65586956521739e-01 6.26607419857007e-01 5.64923553502578e-03
7.71195652173913e-01 6.21928379414790e-01 5.62755280479123e-03
7.76804347826087e-01 6.17284278581499e-01 5.60580503087828e-03
7.82413043478261e-01 6.12674856454031e-01 5.58399573460140e-03
7.88021739130435e-01 6.08099854083151e-01 5.56212836326361e-03
7.93630434782609e-01 6.03559014441970e-01 5.54020628694401e-03
7.99239130434783e-01 5.99052082428545e-01 5.51823279530739e-03
8.04847826086957e-01 5.94578804851240e-01 5.49621110912899e-03
8.10456521739131e-01 5.90138930398247e-01 5.47414437709298e-03
8.16065217391304e-01 5.85732209639796e-01 5.45203567262368e-03
8.21673913043478e-01 5.81358395013838e-01 5.42988800496204e-03
8.27282608695652e-01 5.77017240796566e-01 5.40770431598376e-03
8.32891304347826e-01 5.72708503104259e-01 5.38548747705958e-03
8.38500000000000e-01 5.68431939879290e-01 5.36324029970844e-03
8.44108695652174e-01 5.64187310861597e-01 5.34096553099535e-03
8.49717391304348e-01 5.59974377594982e-01 5.31866585622915e-03
8.55326086956522e-01 5.55792903394243e-01 5.29634390196430e-03
8.60934782608696e-01 5.51642653346397e-01 5.27400223140964e-03
8.66543478260870e-01 5.47523394297209e-01 5.25164335438252e-03
8.72152173913044e-01 5.43434894824245e-01 5.22926972424206e-03
8.77760869565217e-01 5.39376925237787e-01 5.20688373486515e-03
8.83369565217391e-01 5.35349257567681e-01 5.18448773023511e-03
8.88978260869565e-01 5.31351665537237e-01 5.16208400142089e-03
8.94586956521739e-01 5.27383924563866e-01 5.13967478359339e-03
9.00195652173913e-01 5.23445811746233e-01 5.11726226526901e-03
9.05804347826087e-01 5.19537105838968e-01 5.09484858533608e-03
9.11413043478261e-01 5.15657587253056e-01 5.07243583011503e-03
9.17021739130435e-01 5.11807038043281e-01 5.05002604227382e-03
9.22630434782609e-01 5.07985241883719e-01 5.02762121790355e-03
9.28239130434783e-01 5.04191984067898e-01 5.00522330362736e-03
9.33847826086957e-01 5.00427051496523e-01 4.98283420520198e-03
9.39456521739131e-01 4.96690232653730e-01 4.96045578464339e-03
9.45065217391304e-01 4.92981317607026e-01 4.93808985738751e-03
9.50673913043478e-01 4.89300097995296e-01 4.91573820059367e-03
9.56282608695652e-01 4.85646367005776e-01 4.89340255031966e-03
9.61891304347826e-01 4.82019919373807e-01 4.87108459873718e-03
9.67500000000000e-01 4.78420551371101e-01 4.84878600215071e-03
9.73108695652174e-01 4.74848060783420e-01 4.82650837708819e-03
9.78717391304348e-01 4.71302246913644e-01 4.80425330212108e-03
9.84326086956522e-01 4.67782910556289e-01 4.78202231992731e-03
9.89934782608696e-01 4.64289853996915e-01 4.75981693341399e-03
9.95543478260870e-01 4.60822881000828e-01 4.73763861325720e-03
1.00115217391304e+00 4.57381796791918e-01 4.71548879308816e-03
1.00676086956522e+00 4.53966408058431e-01 4.69336887868878e-03
1.01236956521739e+00 4.50576522906067e-01 4.67128022849923e-03
1.01797826086957e+00 4.47211950925208e-01 4.64922418067255e-03
1.02358695652174e+00 4.43872503063917e-01 4.62720203751388e-03
1.02919565217391e+00 4.40557991745220e-01 4.60521506895861e-03
1.03480434782609e+00 4.37268230730451e-01 4.58326452494645e-03
1.04041304347826e+00 4.34003035202895e-01 4.56135159384704e-03
1.04602173913043e+00 4.30762221755985e-01 4.53947746523649e-03
1.05163043478261e+00 4.27545608292397e-01 4.51764328974457e-03
1.05723913043478e+00 4.24353014134042e-01 4.49585018866983e-03
1.06284782608696e+00 4.21184259893359e-01 4.47409925607628e-03
1.06845652173913e+00 4.18039167580159e-01 4.45239155782639e-03
1.07406521739130e+00 4.14917560476308e-01 4.43072814305560e-03
1.07967391304348e+00 4.11819263211867e-01 4.40911000539723e-03
1.08528260869565e+00 4.08744101753927e-01 4.38753814143889e-03
1.09089130434783e+00 4.05691903313966e-01 4.36601351324932e-03
1.09650000000000e+00 4.02662496448140e-01 4.34453705731645e-03
1.10210869565217e+00 3.99655710939140e-01 4.32310968644935e-03
1.10771739130435e+00 3.96671377893670e-01 4.30173228884892e-03
1.11332608695652e+00 3.93709329627365e-01 4.28040572995956e-03
1.11893478260870e+00 3.90769399759541e-01 4.25913085155623e-03
1.12454347826087e+00 3.87851423101069e-01 4.23790848215006e-03
1.13015217391304e+00 3.84955235721828e-01 4.21673940157476e-03
1.13576086956522e+00 3.82080674940332e-01 4.19562439428419e-03
1.14136956521739e+00 3.79227579240680e-01 4.17456421511544e-03
1.14697826086957e+00 3.76395788361598e-01 4.15355959740697e-03
1.15258695652174e+00 3.73585143190628e-01 4.13261125468797e-03
1.15819565217391e+00 3.70795485850707e-01 4.11171987980080e-03
1.16380434782609e+00 3.68026659597048e-01 4.09088615458526e-03
1.16941304347826e+00 3.65278508878688e-01 4.07011071679679e-03
1.17502173913043e+00 3.62550879328717e-01 4.04939420981565e-03
1.18063043478261e+00 3.59843617687779e-01 4.02873725067162e-03
1.18623913043478e+00 3.57156571885496e-01 4.00814043759759e-03
1.19184782608696e+00 3.54489590943074e-01 3.98760435157294e-03
1.19745652173913e+00 3.51842525052509e-01 3.96712955548709e-03
1.20306521739130e+00 3.49215225481629e-01 3.94671660314969e-03
1.20867391304348e+00 3.46607544630352e-01 3.92636600838461e-03
1.21428260869565e+00 3.44019336021429e-01 3.90607829142140e-03
1.21989130434783e+00 3.41450454229934e-01 3.88585394900573e-03
1.22550000000000e+00 3.38900754957799e-01 3.86569346144247e-03
1.23110869565217e+00 3.36370094944066e-01 3.84559729400863e-03
1.23671739130435e+00 3.33858332037423e-01 3.82556589615582e-03
1.24232608695652e+00 3.31365325108675e-01 3.80559970288787e-03
1.24793478260870e+00 3.28890934121336e-01 3.78569913397989e-03
1.25354347826087e+00 3.26435020046241e-01 3.76586460218282e-03
1.25915217391304e+00 3.23997444911633e-01 3.74609648493385e-03
1.26476086956522e+00 3.21578071794545e-01 3.72639516677146e-03
1.27036956521739e+00 3.19176764757293e-01 3.70676101196865e-03
1.27597826086957e+00 3.16793388913962e-01 3.68719437095362e-03
1.28158695652174e+00 3.14427810349644e-01 3.66769558157618e-03
1.28719565217391e+00 3.12079896185171e-01 3.64826496836224e-03
1.29280434782609e+00 3.09749514498311e-01 3.62890285016908e-03
1.29841304347826e+00 3.07436534369626e-01 3.60960951372121e-03
1.30402173913043e+00 3.05140825874347e-01 3.59038525324235e-03
1.30963043478261e+00 3.02862260023674e-01 3.57123034485948e-03
1.31523913043478e+00 3.00600708825784e-01 3.55214505259224e-03
1.32084782608696e+00 2.98356045211242e-01 3.53312962951628e-03
1.32645652173913e+00 2.96128143092418e-01 3.51418431705780e-03
1.33206521739130e+00 2.93916877290679e-01 3.49530935213304e-03
1.33767391304348e+00 2.91722123578448e-01 3.47650494238924e-03
1.34328260869565e+00 2.89543758671492e-01 3.45777130325558e-03
1.34889130434783e+00 2.87381660174655e-01 3.43910863398447e-03
1.35450000000000e+00 2.85235706637871e-01 3.42051712324933e-03
1.36010869565217e+00 2.83105777487227e-01 3.40199695021446e-03
1.36571739130435e+00 2.80991753079533e-01 3.38354828386571e-03
1.37132608695652e+00 2.78893514635016e-01 3.36517128405580e-03
1.37693478260870e+00 2.76810944290482e-01 3.34686610084872e-03
1.38254347826087e+00 2.74743925033595e-01 3.32863288104093e-03
1.38815217391304e+00 2.72692340740452e-01 3.31047174545566e-03
1.39376086956522e+00 2.70656076168416e-01 3.29238282289293e-03
1.39936956521739e+00 2.68635016907031e-01 3.27436622815283e-03
1.40497826086957e+00 2.66629049428193e-01 3.25642206715275e-03
1.41058695652174e+00 2.64638061023868e-01 3.23855043789243e-03
1.41619565217391e+00 2.62661939854977e-01 3.22075142983146e-03
1.42180434782609e+00 2.60700574890570e-01 3.20302512998528e-03
1.42741304347826e+00 2.58753855942333e-01 3.18537160165847e-03
1.43302173913043e+00 2.56821673657808e-01 3.16779091621380e-03
1.43863043478261e+00 2.54903919474919e-01 3.15028313249275e-03
1.44423913043478e+00 2.53000485668117e-01 3.13284830159755e-03
1.44984782608696e+00 2.51111265290712e-01 3.11548646778189e-03
1.45545652173913e+00 2.49236152219863e-01 3.09819766786281e-03
1.46106521739130e+00 2.47375041100230e-01 3.08098193691714e-03
1.46667391304348e+00 2.45527827375700e-01 3.06383928836116e-03
1.47228260869565e+00 2.43694407282960e-01 3.04676974369163e-03
1.47789130434783e+00 2.41874677809334e-01 3.02977331320049e-03
1.48350000000000e+00 2.40068536735274e-01 3.01285000045182e-03
1.48910869565217e+00 2.38275882580913e-01 2.99599980310445e-03
1.49471739130435e+00 2.36496614647499e-01 2.97922271235495e-03
1.50032608695652e+00 2.34730632965165e-01 2.96251871374228e-03
1.50593478260870e+00 2.32977838333328e-01 2.94588778660212e-03
1.51154347826087e+00 2.31238132269647e-01 2.92932990928248e-03
1.51715217391304e+00 2.29511417038467e-01 2.91284504084644e-03
1.52276086956522e+00 2.27797595644834e-01 2.89643314837240e-03
1.52836956521739e+00 2.26096571796242e-01 2.88009418923719e-03
1.53397826086957e+00 2.24408249940807e-01 2.86382811521769e-03
1.53958695652174e+00 2.22732535218830e-01 2.84763487323557e-03
1.54519565217391e+00 2.21069333500028e-01 2.83151440484081e-03
1.55080434782609e+00 2.19418551336190e-01 2.81546665109443e-03
1.55641304347826e+00 2.17780095987345e-01 2.79949153541243e-03
1.56202173913043e+00 2.16153875416113e-01 2.78358898914406e-03
1.56763043478261e+00 2.14539798252169e-01 2.76775893496320e-03
1.57323913043478e+00 2.12937773827448e-01 2.75200129070691e-03
1.57884782608696e+00 2.11347712131189e-01 2.73631597006582e-03
1.58445652173913e+00 2.09769523844273e-01 2.72070288209586e-03
1.59006521739130e+00 2.08203120295269e-01 2.70516193578750e-03
1.59567391304348e+00 2.06648413484547e-01 2.68969302398020e-03
1.60128260869565e+00 2.05105316078920e-01 2.67429604733506e-03
1.60689130434783e+00 2.03573741378626e-01 2.65897089875528e-03
1.61250000000000e+00 2.02053603349810e-01 2.64371746698409e-03
1.61810869565217e+00 2.00544816582776e-01 2.62853563724451e-03
1.62371739130435e+00 1.99047296323669e-01 2.61342529077771e-03
1.62932608695652e+00 1.97560958433657e-01 2.59838630546920e-03
1.63493478260870e+00 1.96085719419847e-01 2.58341855539640e-03
1.64054347826087e+00 1.94621496395357e-01 2.56852191502027e-03
1.64615217391304e+00 1.93168207100998e-01 2.55369624439007e-03
1.65176086956522e+00 1.91725769900271e-01 2.53894141118114e-03
1.65736956521739e+00 1.90294103749341e-01 2.52425727636314e-03
1.66297826086957e+00 1.88873128226291e-01 2.50964369750269e-03
1.66858695652174e+00 1.87462763493184e-01 2.49510052934484e-03
1.67419565217391e+00 1.86062930324619e-01 2.48062762338467e-03
1.67980434782609e+00 1.84673550070612e-01 2.46622483179606e-03
1.68541304347826e+00 1.83294544676592e-01 2.45189199354708e-03
1.69102173913043e+00 1.81925836678670e-01 2.43762895506855e-03
1.69663043478261e+00 1.80567349175695e-01 2.42343555680664e-03
1.70223913043478e+00 1.79219005856283e-01 2.40931163631742e-03
1.70784782608696e+00 1.77880730963536e-01 2.39525702880671e-03
1.71345652173913e+00 1.76552449321430e-01 2.38127156672587e-03
1.71906521739130e+00 1.75234086300297e-01 2.36735508345285e-03
1.72467391304348e+00 1.73925567835271e-01 2.35350740026204e-03
1.73028260869565e+00 1.72626820421808e-01 2.33972834571392e-03
1.73589130434783e+00 1.71337771089672e-01 2.32601774303069e-03
1.74150000000000e+00 1.70058347427922e-01 2.31237541299958e-03
1.74710869565217e+00 1.68788477552084e-01 2.29880117447433e-03
1.75271739130435e+00 1.67528090128547e-01 2.28529484399351e-03
1.75832608695652e+00 1.66277114342445e-01 2.27185623627128e-03
1.76393478260870e+00 1.65035479921470e-01 2.25848516382377e-03
1.76954347826087e+00 1.63803117104442e-01 2.24518144035033e-03
