Energy (eV)          EEDF (eV^-(3/2))     First Anisotropy
1.00909090909091e-02 2.16166054105229e+00 2.37209224533182e-03
3.02727272727273e-02 2.09469987393134e+00 3.86933903232939e-03
5.04545454545455e-02 2.02981341358625e+00 4.98324450207405e-03
7.06363636363636e-02 1.96693690848554e+00 5.75717154360882e-03
9.08181818181818e-02 1.90600809711374e+00 6.34530472618239e-03
1.11000000000000e-01 1.84696664668940e+00 6.80822739897221e-03
1.31181818181818e-01 1.78975409355669e+00 7.17842123149030e-03
1.51363636363636e-01 1.73431378484759e+00 7.47615685423901e-03
1.71545454545455e-01 1.68059082262552e+00 7.71529489016905e-03
1.91727272727273e-01 1.62853200923794e+00 7.90591164285217e-03
2.11909090909091e-01 1.57808579548607e+00 8.05566091643753e-03
2.32090909090909e-01 1.52920222867068e+00 8.17055074053019e-03
2.52272727272727e-01 1.48183290345190e+00 8.25541873706816e-03
2.72454545454545e-01 1.43593091392598e+00 8.31423949562101e-03
2.92636363636364e-01 1.39145080702258e+00 8.35033217461120e-03
3.12818181818182e-01 1.34834853796286e+00 8.36650590246370e-03
3.33000000000000e-01 1.30658142615382e+00 8.36516471153318e-03
3.53181818181818e-01 1.26610811309790e+00 8.34838519424512e-03
3.73363636363636e-01 1.22688852144008e+00 8.31797530174447e-03
3.93545454545455e-01 1.18888381528294e+00 8.27551970543507e-03
4.13727272727273e-01 1.15205636164401e+00 8.22241536986129e-03
4.33909090909091e-01 1.11636969345761e+00 8.15989990185279e-03
4.54090909090909e-01 1.08178847318625e+00 8.08907443008758e-03
4.74272727272727e-01 1.04827845792509e+00 8.01092226591391e-03
4.94454545454545e-01 1.01580646549576e+00 7.92632432730692e-03
5.14636363636364e-01 9.84340341528883e-01 7.83607197571611e-03
5.34818181818182e-01 9.53848927807162e-01 7.74087782458864e-03
5.55000000000000e-01 9.24302031221961e-01 7.64138490077314e-03
5.75181818181818e-01 8.95670393941285e-01 7.53817444725335e-03
5.95363636363636e-01 8.67925664438470e-01 7.43177264259066e-03
6.15545454545455e-01 8.41040369418162e-01 7.32265640991722e-03
6.35727272727273e-01 8.14987886572410e-01 7.21125845785924e-03
6.55909090909091e-01 7.89742418340076e-01 7.09797169846001e-03
6.76090909090909e-01 7.65278966236080e-01 6.98315312781976e-03
6.96272727272727e-01 7.41573306140634e-01 6.86712723548005e-03
7.16454545454545e-01 7.18601964312669e-01 6.75018903652226e-03
7.36636363636364e-01 6.96342194116505e-01 6.63260675648706e-03
7.56818181818182e-01 6.74771953587238e-01 6.51462423627773e-03
7.77000000000000e-01 6.53869883511931e-01 6.39646308517798e-03
7.97181818181818e-01 6.33615286311178e-01 6.27832460274999e-03
8.17363636363636e-01 6.13988105544118e-01 6.16039151736578e-03
8.37545454545455e-01 5.94968906048268e-01 6.04282955471413e-03
8.57727272727273e-01 5.76538854673950e-01 5.92578885069310e-03
8.77909090909091e-01 5.58679701698611e-01 5.80940524002603e-03
8.98090909090909e-01 5.41373762690415e-01 5.69380142760628e-03
9.18272727272727e-01 5.24603901019176e-01 5.57908804657005e-03
9.38454545454546e-01 5.08353510887602e-01 5.46536463109115e-03
9.58636363636364e-01 4.92606500872162e-01 5.35272049852530e-03
9.78818181818182e-01 4.77347278037470e-01 5.24123556267272e-03
9.99000000000000e-01 4.62560732446039e-01 5.13098108049843e-03
1.01918181818182e+00 4.48232222199690e-01 5.02202032827694e-03
1.03936363636364e+00 4.34347558957010e-01 4.91440922709683e-03
1.05954545454545e+00 4.20892993895801e-01 4.80819691174597e-03
1.07972727272727e+00 4.07855204199628e-01 4.70342629218452e-03
1.09990909090909e+00 3.95221279509649e-01 4.60013452103840e-03
1.12009090909091e+00 3.82978709505513e-01 4.49835342322494e-03
1.14027272727273e+00 3.71115371392101e-01 4.39810994519539e-03
1.16045454545455e+00 3.59619517896392e-01 4.29942652083287e-03
1.18063636363636e+00 3.48479765724607e-01 4.20232145199943e-03
1.20081818181818e+00 3.37685084013428e-01 4.10680922159079e-03
1.22100000000000e+00 3.27224783690987e-01 4.01290078116142e-03
1.24118181818182e+00 3.17088506795103e-01 3.92060386032163e-03
1.26136363636364e+00 3.07266216216887e-01 3.82992321974210e-03
1.28154545454545e+00 2.97748185761978e-01 3.74086088802719e-03
1.30172727272727e+00 2.88524990587027e-01 3.65341640654279e-03
1.32190909090909e+00 2.79587497658980e-01 3.56758702579029e-03
1.34209090909091e+00 2.70926856924710e-01 3.48336788594284e-03
1.36227272727273e+00 2.62534492474400e-01 3.40075221836852e-03
1.38245454545455e+00 2.54402094050048e-01 3.31973150098894e-03
1.40263636363636e+00 2.46521608869775e-01 3.24029562992272e-03
1.42281818181818e+00 2.38885233489335e-01 3.16243305357215e-03
1.44300000000000e+00 2.31485406243592e-01 3.08613089576217e-03
1.46318181818182e+00 2.24314799701146e-01 3.01137509801736e-03
1.48336363636364e+00 2.17366313408695e-01 2.93815052982374e-03
1.50354545454545e+00 2.10633066860130e-01 2.86644109250284e-03
1.52372727272727e+00 2.04108392724099e-01 2.79622983209313e-03
1.54390909090909e+00 1.97785830116424e-01 2.72749902406489e-03
1.56409090909091e+00 1.91659118330989e-01 2.66023025083384e-03
1.58427272727273e+00 1.85722190596241e-01 2.59440449586379e-03
1.60445454545455e+00 1.79969168068042e-01 2.53000221022825e-03
1.62463636363636e+00 1.74394354040856e-01 2.46700339227979e-03
1.64481818181818e+00 1.68992228206474e-01 2.40538764490697e-03
1.66500000000000e+00 1.63757441290458e-01 2.34513422764668e-03
1.68518181818182e+00 1.58684809720059e-01 2.28622212325653e-03
1.70536363636364e+00 1.53769310491423e-01 2.22863008499953e-03
1.72554545454545e+00 1.49006076195765e-01 2.17233668131360e-03
1.74572727272727e+00 1.44390390224727e-01 2.11732034793009e-03
1.76590909090909e+00 1.39917682022555e-01 2.06355942278534e-03
1.78609090909091e+00 1.35583522639480e-01 2.01103217745173e-03
1.80627272727273e+00 1.31383620318984e-01 1.95971686071184e-03
1.82645454545455e+00 1.27313816248171e-01 1.90959172503556e-03
1.84663636363636e+00 1.23370080459879e-01 1.86063506276587e-03
1.86681818181818e+00 1.19548507779783e-01 1.81282522840922e-03
1.88700000000000e+00 1.15845314023274e-01 1.76614065840138e-03
1.90718181818182e+00 1.12256832226474e-01 1.72055990129364e-03
1.92736363636364e+00 1.08779509015179e-01 1.67606163592383e-03
1.94754545454545e+00 1.05409901086270e-01 1.63262468856409e-03
1.96772727272727e+00 1.02144671813870e-01 1.59022805571130e-03
1.98790909090909e+00 9.89805878968695e-02 1.54885091606028e-03
2.00809090909091e+00 9.59145162069003e-02 1.50847264075223e-03
2.02827272727273e+00 9.29434206688772e-02 1.46907281226798e-03
2.04845454545455e+00 9.00643592547079e-02 1.43063123245399e-03
2.06863636363636e+00 8.72744810828193e-02 1.39312793752086e-03
2.08881818181818e+00 8.45710235558314e-02 1.35654320422633e-03
2.10900000000000e+00 8.19513096652544e-02 1.32085755480521e-03
2.12918181818182e+00 7.94127453269123e-02 1.28605176927089e-03
2.14936363636364e+00 7.69528168122559e-02 1.25210689007586e-03
2.16954545454545e+00 7.45690882592406e-02 1.21900422644601e-03
2.18972727272727e+00 7.22591992703129e-02 1.18672536284141e-03
2.20990909090909e+00 7.00208625443120e-02 1.15525216049380e-03
2.23009090909091e+00 6.78518616430641e-02 1.12456675809248e-03
2.25027272727273e+00 6.57500487858512e-02 1.09465157855432e-03
2.27045454545455e+00 6.37133427226892e-02 1.06548932878030e-03
2.29063636363636e+00 6.17397266815980e-02 1.03706300435283e-03
2.31081818181818e+00 5.98272463464489e-02 1.00935588855649e-03
2.33100000000000e+00 5.79740079474677e-02 9.82351550787714e-04
2.35118181818182e+00 5.61781763772143e-02 9.56033850138464e-04
2.37136363636364e+00 5.44379733734402e-02 9.30386934053789e-04
2.39154545454545e+00 5.27516757582305e-02 9.05395236964679e-04
2.41172727272727e+00 5.11176137381167e-02 8.81043481889699e-04
2.43190909090909e+00 4.95341692308558e-02 8.57316677551357e-04
2.45209090909091e+00 4.79997742834029e-02 8.34200115087343e-04
2.47227272727273e+00 4.65129095123842e-02 8.11679369022524e-04
2.49245454545455e+00 4.50721025996064e-02 7.89740293666834e-04
2.51263636363636e+00 4.36759268394028e-02 7.68369022992862e-04
2.53281818181818e+00 4.23229997097012e-02 7.47551966820259e-04
2.55300000000000e+00 4.10119815195878e-02 7.27275806718818e-04
2.57318181818182e+00 3.97415740770683e-02 7.07527495531128e-04
2.59336363636364e+00 3.85105194035829e-02 6.88294253688773e-04
2.61354545454545e+00 3.73175984883396e-02 6.69563565624228e-04
2.63372727272727e+00 3.61616300853940e-02 6.51323178300785e-04
2.65390909090909e+00 3.50414695311664e-02 6.33561096811671e-04
2.67409090909091e+00 3.39560076240663e-02 6.16265579803499e-04
2.69427272727273e+00 3.29041695216698e-02 5.99425137877802e-04
2.71445454545455e+00 3.18849136764090e-02 5.83028528986506e-04
2.73463636363636e+00 3.08972308076332e-02 5.67064756271189e-04
2.75481818181818e+00 2.99401428916877e-02 5.51523063481676e-04
2.77500000000000e+00 2.90127022042156e-02 5.36392930282084e-04
2.79518181818182e+00 2.81139903780329e-02 5.21664070085956e-04
2.81536363636364e+00 2.72431174937501e-02 5.07326425789674e-04
2.83554545454545e+00 2.63992211985617e-02 4.93370165638480e-04
2.85572727272727e+00 2.55814658550466e-02 4.79785680596792e-04
2.87590909090909e+00 2.47890417053636e-02 4.66563579791288e-04
2.89609090909091e+00 2.40211640779498e-02 4.53694685894587e-04
2.91627272727273e+00 2.32770726076101e-02 4.41170032589288e-04
2.93645454545455e+00 2.25560304826013e-02 4.28980860045122e-04
2.95663636363636e+00 2.18573237172651e-02 4.17118612110390e-04
2.97681818181818e+00 2.11802604381511e-02 4.05574931907861e-04
2.99700000000000e+00 2.05241702059465e-02 3.94341657402384e-04
3.01718181818182e+00 1.98884033491948e-02 3.83410818735323e-04
3.03736363636364e+00 1.92723303209829e-02 3.72774634174071e-04
3.05754545454545e+00 1.86753410755547e-02 3.62425506193956e-04
3.07772727272727e+00 1.80968444660163e-02 3.52356018625915e-04
3.09790909090909e+00 1.75362676534991e-02 3.42558932530736e-04
3.11809090909091e+00 1.69930555455236e-02 3.33027182070331e-04
3.13827272727273e+00 1.64666702444255e-02 3.23753871832501e-04
3.15845454545455e+00 1.59565905147268e-02 3.14732272836598e-04
3.17863636363636e+00 1.54623112684709e-02 3.05955819741360e-04
3.19881818181818e+00 1.49833430605530e-02 2.97418106996511e-04
3.21900000000000e+00 1.45192116086901e-02 2.89112885005682e-04
3.23918181818182e+00 1.40694573221995e-02 2.81034057524015e-04
3.25936363636364e+00 1.36336348469063e-02 2.73175678139440e-04
3.27954545454545e+00 1.32113126241469e-02 2.65531946871181e-04
3.29972727272727e+00 1.28020724646085e-02 2.58097207522343e-04
3.31990909090909e+00 1.24055091306214e-02 2.50865944187862e-04
3.34009090909091e+00 1.20212299385774e-02 2.43832777784452e-04
3.36027272727273e+00 1.16488543688276e-02 2.36992463596615e-04
3.38045454545455e+00 1.12880136888892e-02 2.30339887943744e-04
3.40063636363636e+00 1.09383505892933e-02 2.23870065690422e-04
3.42081818181818e+00 1.05995188267814e-02 2.17578137055152e-04
3.44100000000000e+00 1.02711828845071e-02 2.11459364446520e-04
3.46118181818182e+00 9.95301763875842e-03 2.05509130162771e-04
3.48136363636364e+00 9.64470803701603e-03 1.99722933483103e-04
3.50154545454545e+00 9.34594878598334e-03 1.94096387856586e-04
3.52172727272727e+00 9.05644405005932e-03 1.88625218624305e-04
3.54190909090909e+00 8.77590715600532e-03 1.83305260179565e-04
3.56209090909091e+00 8.50406031152243e-03 1.78132453158803e-04
3.58227272727273e+00 8.24063432934188e-03 1.73102842343262e-04
3.60245454545455e+00 7.98536836067361e-03 1.68212573973369e-04
3.62263636363636e+00 7.73800963755548e-03 1.63457893654777e-04
3.64281818181818e+00 7.49831322057343e-03 1.58835143797134e-04
3.66300000000000e+00 7.26604175834801e-03 1.54340761084558e-04
3.68318181818182e+00 7.04096525181274e-03 1.49971274550301e-04
3.70336363636364e+00 6.82286082646565e-03 1.45723303246610e-04
3.72354545454545e+00 6.61151251167574e-03 1.41593553992976e-04
3.74372727272727e+00 6.40671102734360e-03 1.37578819501277e-04
3.76390909090909e+00 6.20825357507766e-03 1.33675976126218e-04
3.78409090909091e+00 6.01594363900688e-03 1.29881981647124e-04
3.80427272727273e+00 5.82959079063208e-03 1.26193873547294e-04
3.82445454545455e+00 5.64901050026192e-03 1.22608766900018e-04
3.84463636363636e+00 5.47402395471912e-03 1.19123852669949e-04
3.86481818181818e+00 5.30445787895394e-03 1.15736395702584e-04
3.88500000000000e+00 5.14014436581691e-03 1.12443732744063e-04
3.90518181818182e+00 4.98092070933291e-03 1.09243270884076e-04
3.92536363636364e+00 4.82662924358743e-03 1.06132485728831e-04
3.94554545454545e+00 4.67711718660336e-03 1.03108919635450e-04
3.96572727272727e+00 4.53223648939992e-03 1.00170180212781e-04
3.98590909090909e+00 4.39184368832976e-03 9.73139385718519e-05
4.00609090909091e+00 4.25579976410505e-03 9.45379276047126e-05
4.02627272727273e+00 4.12397000376762e-03 9.18399406118715e-05
4.04645454545455e+00 3.99622386729476e-03 8.92178296657785e-05
4.06663636363636e+00 3.87243485862435e-03 8.66695042660558e-05
4.08681818181818e+00 3.75248039951190e-03 8.41929297861862e-05
4.10700000000000e+00 3.63624170905583e-03 8.17861259467556e-05
4.12718181818182e+00 3.52360368577017e-03 7.94471655852345e-05
4.14736363636364e+00 3.41445479360940e-03 7.71741732454326e-05
4.16754545454546e+00 3.30868695152377e-03 7.49653238143159e-05
4.18772727272727e+00 3.20619542666746e-03 7.28188413471505e-05
4.20790909090909e+00 3.10687872997893e-03 7.07329977251040e-05
4.22809090909091e+00 3.01063851641220e-03 6.87061113369830e-05
4.24827272727273e+00 2.91737948730565e-03 6.67365460053715e-05
4.26845454545455e+00 2.82700929601635e-03 6.48227097353598e-05
4.28863636363636e+00 2.73943845666999e-03 6.29630536683169e-05
4.30881818181818e+00 2.65458025495732e-03 6.11560708960210e-05
4.32900000000000e+00 2.57235066287465e-03 5.94002952969248e-05
4.34918181818182e+00 2.49266825531108e-03 5.76943005803914e-05
4.36936363636364e+00 2.41545412942015e-03 5.60366992103156e-05
4.38954545454545e+00 2.34063182648901e-03 5.44261413648163e-05
4.40972727272727e+00 2.26812725638349e-03 5.28613140290688e-05
4.42990909090909e+00 2.19786862370496e-03 5.13409399758790e-05
4.45009090909091e+00 2.12978635718585e-03 4.98637767659979e-05
4.47027272727273e+00 2.06381304063233e-03 4.84286159199039e-05
4.49045454545455e+00 1.99988334616806e-03 4.70342819701844e-05
4.51063636363636e+00 1.93793396967533e-03 4.56796316581091e-05
4.53081818181818e+00 1.87790356771140e-03 4.43635530365917e-05
4.55100000000000e+00 1.81973269717297e-03 4.30849645910121e-05
4.57118181818182e+00 1.76336375629558e-03 4.18428145060009e-05
4.59136363636364e+00 1.70874092761548e-03 4.06360798514668e-05
4.61154545454546e+00 1.65581012269828e-03 3.94637657958320e-05
4.63172727272727e+00 1.60451892868458e-03 3.83249049134156e-05
4.65190909090909e+00 1.55481655606814e-03 3.72185564165263e-05
4.67209090909091e+00 1.50665378873216e-03 3.61438054032809e-05
4.69227272727273e+00 1.45998293510246e-03 3.50997622258055e-05
4.71245454545455e+00 1.41475778092272e-03 3.40855617779876e-05
4.73263636363636e+00 1.37093354357996e-03 3.31003628846800e-05
4.75281818181818e+00 1.32846682749112e-03 3.21433476280961e-05
4.77300000000000e+00 1.28731558140693e-03 3.12137206883029e-05
4.79318181818182e+00 1.24743905667835e-03 3.03107087862196e-05
4.81336363636364e+00 1.20879776690660e-03 2.94335600725027e-05
4.83354545454545e+00 1.17135344884312e-03 2.85815435368048e-05
4.85372727272727e+00 1.13506902457148e-03 2.77539484836260e-05
4.87390909090909e+00 1.09990856457502e-03 2.69500839576255e-05
4.89409090909091e+00 1.06583725238084e-03 2.61692781812307e-05
4.91427272727273e+00 1.03282135000822e-03 2.54108780768186e-05
4.93445454545455e+00 1.00082816456087e-03 2.46742487346418e-05
4.95463636363636e+00 9.69826015913063e-04 2.39587729521718e-05
4.97481818181818e+00 9.39784205157747e-04 2.32638507312726e-05
4.99500000000000e+00 9.10672984393717e-04 2.25888987863205e-05
5.01518181818182e+00 8.82463527205415e-04 2.19333501243586e-05
5.03536363636364e+00 8.55127900118561e-04 2.12966535889674e-05
5.05554545454546e+00 8.28639034940003e-04 2.06782734193041e-05
5.07572727272727e+00 8.02970702002216e-04 2.00776888562515e-05
5.09590909090909e+00 7.78097484043361e-04 1.94943937146247e-05
5.11609090909091e+00 7.53994751188842e-04 1.89278959648611e-05
5.13627272727273e+00 7.30638636511173e-04 1.83777173741572e-05
5.15645454545455e+00 7.08006012396649e-04 1.78433931109907e-05
5.17663636363636e+00 6.86074467684065e-04 1.73244713999408e-05
5.19681818181818e+00 6.64822285349823e-04 1.68205131481795e-05
5.21700000000000e+00 6.44228421129092e-04 1.63310915803629e-05
5.23718181818182e+00 6.24272482634557e-04 1.58557919241686e-05
5.25736363636364e+00 6.04934709163567e-04 1.53942110714953e-05
5.27754545454545e+00 5.86195952130772e-04 1.49459572509027e-05
5.29772727272727e+00 5.68037656139332e-04 1.45106497333862e-05
5.31790909090909e+00 5.50441840507506e-04 1.40879185153445e-05
5.33809090909091e+00 5.33391081565633e-04 1.36774040087844e-05
5.35827272727273e+00 5.16868495368215e-04 1.32787567733344e-05
5.37845454545455e+00 5.00857720975223e-04 1.28916372235323e-05
5.39863636363636e+00 4.85342904278396e-04 1.25157153715543e-05
5.41881818181818e+00 4.70308682218826e-04 1.21506705509066e-05
5.43900000000000e+00 4.55740167659458e-04 1.17961911464995e-05
5.45918181818182e+00 4.41622934614538e-04 1.14519743603510e-05
5.47936363636364e+00 4.27943003964770e-04 1.11177259609609e-05
5.49954545454545e+00 4.14686829614975e-04 1.07931600409798e-05
5.51972727272727e+00 4.01841285102554e-04 1.04779987984714e-05
5.53990909090909e+00 3.89393650531867e-04 1.01719723028471e-05
5.56009090909091e+00 3.77331600047852e-04 9.87481826627488e-06
5.58027272727273e+00 3.65643189607204e-04 9.58628184450877e-06
5.60045454545455e+00 3.54316845151222e-04 9.30611542101212e-06
5.62063636363636e+00 3.43341351163452e-04 9.03407841606441e-06
5.64081818181818e+00 3.32705839507223e-04 8.76993708307243e-06
5.66100000000000e+00 3.22399778721761e-04 8.51346430969376e-06
5.68118181818182e+00 3.12412963574016e-04 8.26443944403805e-06
5.70136363636364e+00 3.02735504953275e-04 8.02264810991035e-06
5.72154545454545e+00 2.93357820078816e-04 7.78788202815599e-06
5.74172727272727e+00 2.84270623025853e-04 7.55993885470758e-06
5.76190909090909e+00 2.75464915484512e-04 7.33862200832887e-06
5.78209090909091e+00 2.66931977896520e-04 7.12374050247225e-06
5.80227272727273e+00 2.58663360804933e-04 6.91510879784810e-06
5.82245454545455e+00 2.50650876487376e-04 6.71254664370289e-06
5.84263636363636e+00 2.42886590860984e-04 6.51587893671573e-06
5.86281818181818e+00 2.35362815587384e-04 6.32493557129454e-06
5.88300000000000e+00 2.28072100498982e-04 6.13955129347762e-06
5.90318181818182e+00 2.21007226208252e-04 5.95956557249329e-06
5.92336363636364e+00 2.14161196958984e-04 5.78482246496829e-06
5.94354545454545e+00 2.07527233698970e-04 5.61517048361048e-06
5.96372727272727e+00 2.01098767377486e-04 5.45046247771730e-06
5.98390909090909e+00 1.94869432409206e-04 5.29055550675959e-06
6.00409090909091e+00 1.88833060402881e-04 5.13531071703826e-06
6.02427272727273e+00 1.82983674042391e-04 4.98459323292856e-06
6.04445454545455e+00 1.77315481167918e-04 4.83827204049153e-06
6.06463636363636e+00 1.71822869049025e-04 4.69621988351396e-06
6.08481818181818e+00 1.66500398800551e-04 4.55831315376812e-06
6.10500000000000e+00 1.61342800023798e-04 4.42443178395905e-06
6.12518181818182e+00 1.56344965578540e-04 4.29445915311095e-06
6.14536363636364e+00 1.51501946525846e-04 4.16828198702230e-06
6.16554545454545e+00 1.46808947227569e-04 4.04579026199430e-06
6.18572727272727e+00 1.42261320604582e-04 3.92687711693405e-06
6.20590909090909e+00 1.37854563513816e-04 3.81143876080411e-06
6.22609090909091e+00 1.33584312310993e-04 3.69937438235721e-06
6.24627272727273e+00 1.29446338522228e-04 3.59058607014894e-06
6.26645454545455e+00 1.25436544656938e-04 3.48497872738984e-06
6.28663636363636e+00 1.21550960156285e-04 3.38245999556823e-06
6.30681818181818e+00 1.17785737443525e-04 3.28294017418881e-06
6.32700000000000e+00 1.14137148132407e-04 3.18633214250605e-06
6.34718181818182e+00 1.10601579329009e-04 3.09255129002331e-06
6.36736363636364e+00 1.07175530054199e-04 3.00151544368545e-06
