Energy (eV)          EEDF (eV^-(3/2))     First Anisotropy
2.68939393939394e-02 3.40959533183017e-02 1.57511879727073e-05
8.06818181818182e-02 3.39181873010229e-02 2.60293907195179e-05
1.34469696969697e-01 3.37413481011319e-02 3.44139797542600e-05
1.88257575757576e-01 3.35654308889782e-02 4.08157101254576e-05
2.42045454545455e-01 3.33904308559052e-02 4.61813000972788e-05
2.95833333333333e-01 3.32163432200782e-02 5.08678298072349e-05
3.49621212121212e-01 3.30431632245604e-02 5.50596670600948e-05
4.03409090909091e-01 3.28708861372281e-02 5.88678983073052e-05
4.57196969696970e-01 3.26995072510282e-02 6.23660359457325e-05
5.10984848484848e-01 3.25290218825725e-02 6.56059232281251e-05
5.64772727272727e-01 3.23594253733388e-02 6.86258532927581e-05
6.18560606060606e-01 3.21907130890932e-02 7.14551271474297e-05
6.72348484848485e-01 3.20228804200259e-02 7.41167993405729e-05
7.26136363636364e-01 3.18559227798200e-02 7.66294246376916e-05
7.79924242424242e-01 3.16898356063471e-02 7.90082187861226e-05
8.33712121212121e-01 3.15246143612588e-02 8.12658581254197e-05
8.87500000000000e-01 3.13602545298716e-02 8.34130469093456e-05
9.41287878787879e-01 3.11967516212193e-02 8.54589303465163e-05
9.95075757575758e-01 3.10341011673817e-02 8.74114018319788e-05
1.04886363636364e+00 3.08722987234282e-02 8.92773356341227e-05
1.10265151515152e+00 3.07113398684579e-02 9.10627664089824e-05
1.15643939393939e+00 3.05512202056869e-02 9.27730303970189e-05
1.21022727272727e+00 3.03919353583574e-02 9.44128762044521e-05
1.26401515151515e+00 3.02334809740111e-02 9.59865537625669e-05
1.31780303030303e+00 3.00758527228794e-02 9.74978873686777e-05
1.37159090909091e+00 2.99190462977645e-02 9.89503347613652e-05
1.42537878787879e+00 2.97630574139197e-02 1.00347036081618e-04
1.47916666666667e+00 2.96078818089433e-02 1.01690854640797e-04
1.53295454545455e+00 2.94535152426550e-02 1.02984410954536e-04
1.58674242424242e+00 2.92999534979614e-02 1.04230112120144e-04
1.64053030303030e+00 2.91471923777609e-02 1.05430176032097e-04
1.69431818181818e+00 2.89952277078482e-02 1.06586652038252e-04
1.74810606060606e+00 2.88440553357801e-02 1.07701439489739e-04
1.80189393939394e+00 2.86936711307621e-02 1.08776303165143e-04
1.85568181818182e+00 2.85440709835317e-02 1.09812886807641e-04
1.90946969696970e+00 2.83952508062549e-02 1.10812724933189e-04
1.96325757575758e+00 2.82472065324100e-02 1.11777253174367e-04
2.01704545454545e+00 2.80999341166761e-02 1.12707817236498e-04
2.07083333333333e+00 2.79534295355397e-02 1.13605681339018e-04
2.12462121212121e+00 2.78076887850124e-02 1.14472035047022e-04
2.17840909090909e+00 2.76627078827170e-02 1.15307999311180e-04
2.23219696969697e+00 2.75184828670389e-02 1.16114632523120e-04
2.28598484848485e+00 2.73750097970157e-02 1.16892935410971e-04
2.33977272727273e+00 2.72322847522335e-02 1.17643855556847e-04
2.39356060606061e+00 2.70903038327183e-02 1.18368291460229e-04
2.44734848484848e+00 2.69490631588295e-02 1.19067096080969e-04
2.50113636363636e+00 2.68085588717196e-02 1.19741080509782e-04
2.55492424242424e+00 2.66687871315143e-02 1.20391016725277e-04
2.60871212121212e+00 2.65297441189384e-02 1.21017640074218e-04
2.66250000000000e+00 2.63914260346293e-02 1.21621652115673e-04
2.71628787878788e+00 2.62538290990319e-02 1.22203722757132e-04
2.77007575757576e+00 2.61169495522966e-02 1.22764492318131e-04
2.82386363636364e+00 2.59807836541771e-02 1.23304573420035e-04
2.87765151515151e+00 2.58453276839277e-02 1.23824552613222e-04
2.93143939393939e+00 2.57105779406633e-02 1.24324992286981e-04
2.98522727272727e+00 2.55765307418605e-02 1.24806431920593e-04
3.03901515151515e+00 2.54431824246669e-02 1.25269389218753e-04
3.09280303030303e+00 2.53105293453271e-02 1.25714361681400e-04
3.14659090909091e+00 2.51785678790827e-02 1.26141827647462e-04
3.20037878787879e+00 2.50472944200728e-02 1.26552247361079e-04
3.25416666666667e+00 2.49167053812375e-02 1.26946063960835e-04
3.30795454545455e+00 2.47867971942185e-02 1.27323704303979e-04
3.36174242424242e+00 2.46575663096475e-02 1.27685580104545e-04
3.41553030303030e+00 2.45290091958830e-02 1.28032088537187e-04
3.46931818181818e+00 2.44011223400891e-02 1.28363612785911e-04
3.52310606060606e+00 2.42739022477448e-02 1.28680523024306e-04
3.57689393939394e+00 2.41473454425485e-02 1.28983176964396e-04
3.63068181818182e+00 2.40214484663217e-02 1.29271920459811e-04
3.68446969696970e+00 2.38962078789170e-02 1.29547088070963e-04
3.73825757575758e+00 2.37716202581226e-02 1.29809003595220e-04
3.79204545454545e+00 2.36476821995690e-02 1.30057980479258e-04
3.84583333333333e+00 2.35243903169582e-02 1.30294322539921e-04
3.89962121212121e+00 2.34017412409977e-02 1.30518324232547e-04
3.95340909090909e+00 2.32797316202891e-02 1.30730270892354e-04
4.00719696969697e+00 2.31583581209069e-02 1.30930439381399e-04
4.06098484848485e+00 2.30376174263072e-02 1.31119098368120e-04
4.11477272727273e+00 2.29175062372379e-02 1.31296508672808e-04
4.16856060606061e+00 2.27980212716483e-02 1.31462923594167e-04
4.22234848484849e+00 2.26791592645993e-02 1.31618589140890e-04
4.27613636363636e+00 2.25609169684515e-02 1.31763744554072e-04
4.32992424242424e+00 2.24432911519387e-02 1.31898622428420e-04
4.38371212121212e+00 2.23262786009231e-02 1.32023448817937e-04
4.43750000000000e+00 2.22098761180247e-02 1.32138443718160e-04
4.49128787878788e+00 2.20940805225329e-02 1.32243821222350e-04
4.54507575757576e+00 2.19788886503209e-02 1.32339789744303e-04
4.59886363636364e+00 2.18642973537584e-02 1.32426552230269e-04
4.65265151515151e+00 2.17503035016262e-02 1.32504306290275e-04
4.70643939393939e+00 2.16369039792716e-02 1.32573244600320e-04
4.76022727272727e+00 2.15240956877944e-02 1.32633554943301e-04
4.81401515151515e+00 2.14118755446962e-02 1.32685420240283e-04
4.86780303030303e+00 2.13002404835495e-02 1.32729018929898e-04
4.92159090909091e+00 2.11891874539145e-02 1.32764525054194e-04
4.97537878787879e+00 2.10787134212548e-02 1.32792108408675e-04
5.02916666666667e+00 2.09688153668558e-02 1.32811934685779e-04
5.08295454545455e+00 2.08594902877413e-02 1.32824165547867e-04
5.13674242424242e+00 2.07507351968037e-02 1.32828958951377e-04
5.19053030303030e+00 2.06425471220825e-02 1.32826469142462e-04
5.24431818181818e+00 2.05349231073270e-02 1.32816846646252e-04
5.29810606060606e+00 2.04278602116995e-02 1.32800238577766e-04
5.35189393939394e+00 2.03213555096949e-02 1.32776788685904e-04
5.40568181818182e+00 2.02154060910602e-02 1.32746637458211e-04
5.45946969696970e+00 2.01100090607162e-02 1.32709922221557e-04
5.51325757575758e+00 2.00051615386777e-02 1.32666777238851e-04
5.56704545454545e+00 1.99008606599747e-02 1.32617333742941e-04
5.62083333333333e+00 1.97971035747594e-02 1.32561720202022e-04
5.67462121212121e+00 1.96938874476697e-02 1.32500062286756e-04
5.72840909090909e+00 1.95912094583140e-02 1.32432482833199e-04
5.78219696969697e+00 1.94890668010050e-02 1.32359102100816e-04
5.83598484848485e+00 1.93874566846832e-02 1.32280037788044e-04
5.88977272727273e+00 1.92863763328411e-02 1.32195405105033e-04
5.94356060606061e+00 1.91858229834471e-02 1.32105316843819e-04
5.99734848484848e+00 1.90857938888700e-02 1.32009883391606e-04
6.05113636363636e+00 1.89862863159682e-02 1.31909212958694e-04
6.10492424242424e+00 1.88872975455192e-02 1.31803411531893e-04
6.15871212121212e+00 1.87888248726439e-02 1.31692582824813e-04
6.21250000000000e+00 1.86908656065657e-02 1.31576828501482e-04
6.26628787878788e+00 1.85934170705369e-02 1.31456248176891e-04
6.32007575757576e+00 1.84964766017655e-02 1.31330939470895e-04
6.37386363636364e+00 1.84000415513425e-02 1.31200998060429e-04
6.42765151515152e+00 1.83041092841696e-02 1.31066517679724e-04
6.48143939393939e+00 1.82086771790341e-02 1.30927590319862e-04
6.53522727272727e+00 1.81137426280938e-02 1.30784306174651e-04
6.58901515151515e+00 1.80193030372514e-02 1.30636753584131e-04
6.64280303030303e+00 1.79253558259348e-02 1.30485019231693e-04
6.69659090909091e+00 1.78318984270261e-02 1.30329188135128e-04
6.75037878787879e+00 1.77389282867914e-02 1.30169343687477e-04
6.80416666666667e+00 1.76464428648114e-02 1.30005567696713e-04
6.85795454545454e+00 1.75544396339117e-02 1.29837940377668e-04
6.91174242424242e+00 1.74629160802262e-02 1.29666540529233e-04
6.96553030303030e+00 1.73718697027290e-02 1.29491445476578e-04
7.01931818181818e+00 1.72812980135680e-02 1.29312731011429e-04
7.07310606060606e+00 1.71911985378617e-02 1.29130471568025e-04
7.12689393939394e+00 1.71015688136320e-02 1.28944740208277e-04
7.18068181818182e+00 1.70124063917366e-02 1.28755608653319e-04
7.23446969696970e+00 1.69237088358023e-02 1.28563147314185e-04
7.28825757575758e+00 1.68354737221588e-02 1.28367425321735e-04
7.34204545454545e+00 1.67476986397717e-02 1.28168510512562e-04
7.39583333333333e+00 1.66603811902951e-02 1.27966469586391e-04
7.44962121212121e+00 1.65735189876502e-02 1.27761368046757e-04
7.50340909090909e+00 1.64871096583176e-02 1.27553270140180e-04
7.55719696969697e+00 1.64011508411527e-02 1.27342239013130e-04
7.61098484848485e+00 1.63156401873212e-02 1.27128336692931e-04
7.66477272727273e+00 1.62305753602351e-02 1.26911624111957e-04
7.71856060606061e+00 1.61459540354884e-02 1.26692161131201e-04
7.77234848484848e+00 1.60617739007939e-02 1.26470006523101e-04
7.82613636363636e+00 1.59780326560272e-02 1.26245218114313e-04
7.87992424242424e+00 1.58947280128406e-02 1.26017852726680e-04
7.93371212121212e+00 1.58118576949256e-02 1.25787966116935e-04
7.98750000000000e+00 1.57294194378414e-02 1.25555613119507e-04
8.04128787878788e+00 1.56474109889535e-02 1.25320847625427e-04
8.09507575757576e+00 1.55658301073718e-02 1.25083722601627e-04
8.14886363636364e+00 1.54846745638895e-02 1.24844290109839e-04
8.20265151515152e+00 1.54039421409225e-02 1.24602601287596e-04
8.25643939393939e+00 1.53236306325454e-02 1.24358706478567e-04
8.31022727272727e+00 1.52437378441385e-02 1.24112655174708e-04
8.36401515151515e+00 1.51642615926225e-02 1.23864495957317e-04
8.41780303030303e+00 1.50851997063000e-02 1.23614276627735e-04
8.47159090909091e+00 1.50065500247960e-02 1.23362044185213e-04
8.52537878787879e+00 1.49283103989992e-02 1.23107844842515e-04
8.57916666666667e+00 1.48504786910029e-02 1.22851724041231e-04
8.63295454545455e+00 1.47730527740471e-02 1.22593726431809e-04
8.68674242424242e+00 1.46960305325484e-02 1.22333895993217e-04
8.74053030303030e+00 1.46194098617756e-02 1.22072275976786e-04
8.79431818181818e+00 1.45431886680603e-02 1.21808908849116e-04
8.84810606060606e+00 1.44673648686497e-02 1.21543836412258e-04
8.90189393939394e+00 1.43919363916502e-02 1.21277099781204e-04
8.95568181818182e+00 1.43169011759699e-02 1.21008739396655e-04
9.00946969696970e+00 1.42422571712633e-02 1.20738795037542e-04
9.06325757575758e+00 1.41680023378745e-02 1.20467305833376e-04
9.11704545454545e+00 1.40941346467818e-02 1.20194310243697e-04
9.17083333333333e+00 1.40206520796224e-02 1.19919846167456e-04
9.22462121212121e+00 1.39475526283956e-02 1.19643950889102e-04
9.27840909090909e+00 1.38748342956507e-02 1.19366661023802e-04
9.33219696969697e+00 1.38024950943511e-02 1.19088012627492e-04
9.38598484848485e+00 1.37305330478199e-02 1.18808041174293e-04
9.43977272727273e+00 1.36589461896860e-02 1.18526781566879e-04
9.49356060606061e+00 1.35877325638306e-02 1.18244268146700e-04
9.54734848484848e+00 1.35168902243333e-02 1.17960534673504e-04
9.60113636363636e+00 1.34464172354925e-02 1.17675614426586e-04
9.65492424242424e+00 1.33763116715515e-02 1.17389540153056e-04
9.70871212121212e+00 1.33065716168678e-02 1.17102344015405e-04
9.76250000000000e+00 1.32371951657865e-02 1.16814057693494e-04
9.81628787878788e+00 1.31681804225885e-02 1.16524712362301e-04
9.87007575757576e+00 1.30995255014378e-02 1.16234338700629e-04
9.92386363636364e+00 1.30312285263312e-02 1.15942966899615e-04
9.97765151515151e+00 1.29632876310461e-02 1.15650626785497e-04
1.00314393939394e+01 1.28957009588198e-02 1.15357347256680e-04
1.00852272727273e+01 1.28284666636457e-02 1.15063157260069e-04
1.01390151515152e+01 1.27615829076670e-02 1.14768085462552e-04
1.01928030303030e+01 1.26950478632807e-02 1.14472159449364e-04
1.02465909090909e+01 1.26288597124119e-02 1.14175406380376e-04
1.03003787878788e+01 1.25630166471031e-02 1.13877853533506e-04
1.03541666666667e+01 1.24975168675417e-02 1.13579527760947e-04
1.04079545454545e+01 1.24323585839421e-02 1.13280454939647e-04
1.04617424242424e+01 1.23675400158495e-02 1.12980660814528e-04
1.05155303030303e+01 1.23030593920921e-02 1.12680170461427e-04
1.05693181818182e+01 1.22389149513384e-02 1.12379009088097e-04
1.06231060606061e+01 1.21751049402233e-02 1.12077201510201e-04
1.06768939393939e+01 1.21116276151341e-02 1.11774771622453e-04
1.07306818181818e+01 1.20484812415480e-02 1.11471743209175e-04
1.07844696969697e+01 1.19856640939860e-02 1.11168139427315e-04
1.08382575757576e+01 1.19231744565412e-02 1.10863983577203e-04
1.08920454545455e+01 1.18610106210965e-02 1.10559298597648e-04
1.09458333333333e+01 1.17991708890206e-02 1.10254106556344e-04
1.09996212121212e+01 1.17376535705383e-02 1.09948429429854e-04
1.10534090909091e+01 1.16764569846845e-02 1.09642288605880e-04
1.11071969696970e+01 1.16155794598060e-02 1.09335705624605e-04
1.11609848484848e+01 1.15550193318652e-02 1.09028701692493e-04
1.12147727272727e+01 1.14947749460521e-02 1.08721297191074e-04
1.12685606060606e+01 1.14348446561844e-02 1.08413512191164e-04
1.13223484848485e+01 1.13752268251881e-02 1.08105366921224e-04
1.13761363636364e+01 1.13159198234693e-02 1.07796881296302e-04
1.14299242424242e+01 1.12569220304601e-02 1.07488074442297e-04
1.14837121212121e+01 1.11982318340412e-02 1.07178965422904e-04
1.15375000000000e+01 1.11398476304986e-02 1.06869572774486e-04
1.15912878787879e+01 1.10817678249800e-02 1.06559915197552e-04
1.16450757575758e+01 1.10239908299438e-02 1.06250011102497e-04
1.16988636363636e+01 1.09665150666292e-02 1.05939878151140e-04
1.17526515151515e+01 1.09093389645066e-02 1.05629533956661e-04
1.18064393939394e+01 1.08524609612347e-02 1.05318995635453e-04
1.18602272727273e+01 1.07958795030943e-02 1.05008280473039e-04
1.19140151515152e+01 1.07395930435104e-02 1.04697405486227e-04
1.19678030303030e+01 1.06836000444509e-02 1.04386386980935e-04
1.20215909090909e+01 1.06278989759029e-02 1.04075241013612e-04
1.20753787878788e+01 1.05724883162882e-02 1.03763983812074e-04
1.21291666666667e+01 1.05173665510427e-02 1.03452631351225e-04
1.21829545454545e+01 1.04625321739601e-02 1.03141198924307e-04
1.22367424242424e+01 1.04079836866867e-02 1.02829701796523e-04
1.22905303030303e+01 1.03537195986807e-02 1.02518154785743e-04
1.23443181818182e+01 1.02997384276083e-02 1.02206572884411e-04
1.23981060606061e+01 1.02460386979878e-02 1.01894970850130e-04
1.24518939393939e+01 1.01926189424702e-02 1.01583362792419e-04
1.25056818181818e+01 1.01394777013560e-02 1.01271762802322e-04
1.25594696969697e+01 1.00866135225569e-02 1.00960184548178e-04
1.26132575757576e+01 1.00340249619713e-02 1.00648641875205e-04
1.26670454545455e+01 9.98171058219109e-03 1.00337148410473e-04
1.27208333333333e+01 9.92966895372182e-03 1.00025717164177e-04
1.27746212121212e+01 9.87789865452165e-03 9.97143611366270e-05
1.28284090909091e+01 9.82639826996321e-03 9.94030929285325e-05
1.28821969696970e+01 9.77516639319153e-03 9.90919253187706e-05
1.29359848484848e+01 9.72420162388940e-03 9.87808708834669e-05
1.29897727272727e+01 9.67350256944027e-03 9.84699416111689e-05
1.30435606060606e+01 9.62306784448839e-03 9.81591493030611e-05
1.30973484848485e+01 9.57289607128301e-03 9.78485059385112e-05
1.31511363636364e+01 9.52298587848945e-03 9.75380233055055e-05
1.32049242424242e+01 9.47333590230786e-03 9.72277126274042e-05
1.32587121212121e+01 9.42394478604835e-03 9.69175851306051e-05
1.33125000000000e+01 9.37481118009478e-03 9.66076516794227e-05
1.33662878787879e+01 9.32593374223228e-03 9.62979233167791e-05
1.34200757575758e+01 9.27731113651143e-03 9.59884109073874e-05
1.34738636363636e+01 9.22894203431564e-03 9.56791247776102e-05
1.35276515151515e+01 9.18082511395502e-03 9.53700752629171e-05
1.35814393939394e+01 9.13295906063091e-03 9.50612723556399e-05
1.36352272727273e+01 9.08534256674807e-03 9.47527262265260e-05
1.36890151515152e+01 9.03797433082897e-03 9.44444468803651e-05
1.37428030303030e+01 8.99085305853262e-03 9.41364438082225e-05
1.37965909090909e+01 8.94397746226624e-03 9.38287263484499e-05
1.38503787878788e+01 8.89734626148608e-03 9.35213040167047e-05
1.39041666666667e+01 8.85095818165078e-03 9.32141861718223e-05
1.39579545454545e+01 8.80481195520236e-03 9.29073816782230e-05
1.40117424242424e+01 8.75890632119119e-03 9.26008994186726e-05
1.40655303030303e+01 8.71324002524199e-03 9.22947479639324e-05
1.41193181818182e+01 8.66781181984040e-03 9.19889360612430e-05
1.41731060606061e+01 8.62262046333197e-03 9.16834723115761e-05
1.42268939393939e+01 8.57766472085921e-03 9.13783648438141e-05
1.42806818181818e+01 8.53294336400245e-03 9.10736218094009e-05
1.43344696969697e+01 8.48845517074696e-03 9.07692510635233e-05
1.43882575757576e+01 8.44419892575604e-03 9.04652606366847e-05
1.44420454545455e+01 8.40017341941334e-03 9.01616584229297e-05
1.44958333333333e+01 8.35637744871820e-03 8.98584518651543e-05
1.45496212121212e+01 8.31280981694187e-03 8.95556484326494e-05
1.46034090909091e+01 8.26946933359523e-03 8.92532553133214e-05
1.46571969696970e+01 8.22635481468948e-03 8.89512798687693e-05
1.47109848484848e+01 8.18346508181951e-03 8.86497293333146e-05
1.47647727272727e+01 8.14079896301963e-03 8.83486105099176e-05
1.48185606060606e+01 8.09835529243445e-03 8.80479300851358e-05
1.48723484848485e+01 8.05613291057019e-03 8.77476949173839e-05
1.49261363636364e+01 8.01413066341003e-03 8.74479117445970e-05
1.49799242424242e+01 7.97234740323908e-03 8.71485868889805e-05
1.50337121212121e+01 7.93078198832600e-03 8.68497267047876e-05
1.50875000000000e+01 7.88943328289229e-03 8.65513372893431e-05
1.51412878787879e+01 7.84830015735203e-03 8.62534249099556e-05
1.51950757575758e+01 7.80738148746467e-03 8.59559957214230e-05
1.52488636363636e+01 7.76667615512410e-03 8.56590554808105e-05
1.53026515151515e+01 7.72618304805340e-03 8.53626099798241e-05
1.53564393939394e+01 7.68590105977502e-03 8.50666647657553e-05
1.54102272727273e+01 7.64582908983958e-03 8.47712255537530e-05
1.54640151515152e+01 7.60596604301439e-03 8.44762979538950e-05
1.55178030303030e+01 7.56631083003819e-03 8.41818871955383e-05
1.55715909090909e+01 7.52686236732876e-03 8.38879984124861e-05
1.56253787878788e+01 7.48761957720380e-03 8.35946369041607e-05
1.56791666666667e+01 7.44858138709719e-03 8.33018078705051e-05
1.57329545454545e+01 7.40974673028707e-03 8.30095161441330e-05
1.57867424242424e+01 7.37111454561293e-03 8.27177665961818e-05
1.58405303030303e+01 7.33268377744693e-03 8.24265638741192e-05
1.58943181818182e+01 7.29445337590483e-03 8.21359127887151e-05
1.59481060606061e+01 7.25642229609474e-03 8.18458180577606e-05
1.60018939393939e+01 7.21858949881415e-03 8.15562840473055e-05
1.60556818181818e+01 7.18095395027835e-03 8.12673151636157e-05
1.61094696969697e+01 7.14351462209274e-03 8.09789155998680e-05
1.61632575757576e+01 7.10627049145420e-03 8.06910897101388e-05
1.62170454545455e+01 7.06922054043092e-03 8.04038417616062e-05
1.62708333333333e+01 7.03236375662971e-03 8.01171756843897e-05
1.63246212121212e+01 6.99569913293559e-03 7.98310954503704e-05
1.63784090909091e+01 6.95922566748451e-03 7.95456048284057e-05
1.64321969696970e+01 6.92294236385609e-03 7.92607077456164e-05
1.64859848484848e+01 6.88684823038285e-03 7.89764080479705e-05
1.65397727272727e+01 6.85094228078931e-03 7.86927092583382e-05
1.65935606060606e+01 6.81522353394215e-03 7.84096148263970e-05
1.66473484848485e+01 6.77969101403624e-03 7.81271283576810e-05
1.67011363636364e+01 6.74434374992690e-03 7.78452533808144e-05
1.67549242424242e+01 6.70918077574703e-03 7.75639931124237e-05
1.68087121212121e+01 6.67420113066511e-03 7.72833508129930e-05
1.68625000000000e+01 6.63940385885921e-03 7.70033295566817e-05
1.69162878787879e+01 6.60478800969482e-03 7.67239325708763e-05
1.69700757575758e+01 6.57035263708422e-03 7.64451630110802e-05
