Energy (eV)          EEDF (eV^-(3/2))     First Anisotropy
2.33000000000000e-01 2.33324875634706e-01 5.69828049832343e-04
6.99000000000000e-01 1.96223836582346e-01 8.69059501851521e-04
1.16500000000000e+00 1.65022241792070e-01 9.71362498639035e-04
1.63100000000000e+00 1.38782019352946e-01 9.73945633558798e-04
2.09700000000000e+00 1.16714260371944e-01 9.31610632002237e-04
2.56300000000000e+00 9.81555005301252e-02 8.67505854013123e-04
3.02900000000000e+00 8.25477731137245e-02 7.93823056639066e-04
3.49500000000000e+00 6.94218338170828e-02 7.17512683593426e-04
3.96100000000000e+00 5.83830529733016e-02 6.42628697868129e-04
4.42700000000000e+00 4.90995510643596e-02 5.71499625361475e-04
4.89300000000000e+00 4.12922208063373e-02 5.05384106009949e-04
5.35900000000000e+00 3.47263358250331e-02 4.44864900864783e-04
5.82500000000000e+00 2.92044936378889e-02 3.90096744218314e-04
6.29100000000000e+00 2.45606807738886e-02 3.40966849935328e-04
6.75700000000000e+00 2.06552816000294e-02 2.97200671880927e-04
7.22300000000000e+00 1.73708807953765e-02 2.58432164529053e-04
7.68900000000000e+00 1.46087332746289e-02 2.24250462992600e-04
8.15500000000000e+00 1.22857954299043e-02 1.94230639097480e-04
8.62100000000000e+00 1.03322284354111e-02 1.67953591348552e-04
9.08700000000000e+00 8.68929855218582e-03 1.45018481571512e-04
9.55300000000000e+00 7.30761130582903e-03 1.25050057734117e-04
1.00190000000000e+01 6.14562644802290e-03 1.07702485049726e-04
1.04850000000000e+01 5.16840905433924e-03 9.26608185943388e-05
1.09510000000000e+01 4.34657921025601e-03 7.96409124163798e-05
1.14170000000000e+01 3.65542870782799e-03 6.83883233086119e-05
1.18830000000000e+01 3.07417819661130e-03 5.86766001559561e-05
1.23490000000000e+01 2.58535245518048e-03 5.03052309125720e-05
1.28150000000000e+01 2.17425500085702e-03 4.30974344774755e-05
1.32810000000000e+01 1.82852624185887e-03 3.68979241764146e-05
1.37470000000000e+01 1.53777188777242e-03 3.15707263409800e-05
1.42130000000000e+01 1.29325044655589e-03 2.69971067461217e-05
1.46790000000000e+01 1.08761041271196e-03 2.30736359591542e-05
1.51450000000000e+01 9.14669245226015e-04 1.97104094751970e-05
1.56110000000000e+01 7.69227490270355e-04 1.68294280625225e-05
1.60770000000000e+01 6.46912460297511e-04 1.43631367050163e-05
1.65430000000000e+01 5.44046769754801e-04 1.22531159507944e-05
1.70090000000000e+01 4.57537774963417e-04 1.04489166560123e-05
1.74750000000000e+01 3.84784594186311e-04 8.90702753870866e-06
1.79410000000000e+01 3.23599912455234e-04 7.58996425443502e-06
1.84070000000000e+01 2.72144220229180e-04 6.46546859989765e-06
1.88730000000000e+01 2.28870508778008e-04 5.50580674400547e-06
1.93390000000000e+01 1.92477759565102e-04 4.68715593381204e-06
1.98050000000000e+01 1.61871829293373e-04 3.98906982278525e-06
2.02710000000000e+01 1.36132554628580e-04 3.39401334760050e-06
2.07370000000000e+01 1.14486087607722e-04 2.88695888629538e-06
2.12030000000000e+01 9.62816300001419e-05 2.45503623042640e-06
2.16690000000000e+01 8.09718671429115e-05 2.08722967394237e-06
2.21350000000000e+01 6.80965129962969e-05 1.77411624751495e-06
2.26010000000000e+01 5.72684717035178e-05 1.50763980086888e-06
2.30670000000000e+01 4.81621996038911e-05 1.28091625340356e-06
2.35330000000000e+01 4.05039178047869e-05 1.08806589428355e-06
2.39990000000000e+01 3.40633810546392e-05 9.24069118426727e-07
2.44650000000000e+01 2.86469554492435e-05 7.84642436990359e-07
2.49310000000000e+01 2.40917968534769e-05 6.66132003410032e-07
2.53970000000000e+01 2.02609550134421e-05 5.65422252583253e-07
2.58630000000000e+01 1.70392561648003e-05 4.79857565384657e-07
2.63290000000000e+01 1.43298403484466e-05 4.07175147322552e-07
2.67950000000000e+01 1.20512493283698e-05 3.45447552641450e-07
2.72610000000000e+01 1.01349775603240e-05 2.93033497183320e-07
2.77270000000000e+01 8.52341258150424e-06 2.48535788233715e-07
2.81930000000000e+01 7.16810289930452e-06 2.10765360518192e-07
2.86590000000000e+01 6.02830130346099e-06 1.78710547321007e-07
2.91250000000000e+01 5.06973980644661e-06 1.51510836938343e-07
2.95910000000000e+01 4.26359938085925e-06 1.28434469654187e-07
3.00570000000000e+01 3.58564351909109e-06 1.08859321191806e-07
3.05230000000000e+01 3.01548956586275e-06 9.22565969698126e-08
3.09890000000000e+01 2.53599591632916e-06 7.81769290900485e-08
3.14550000000000e+01 2.13274665594743e-06 6.62385262234653e-08
3.19210000000000e+01 1.79361814787109e-06 5.61170766854274e-08
3.23870000000000e+01 1.50841453737664e-06 4.75371480936700e-08
3.28530000000000e+01 1.26856121481032e-06 4.02648640327757e-08
3.33190000000000e+01 1.06684702105812e-06 3.41016699382125e-08
3.37850000000000e+01 8.97207444979919e-07 2.88790276822621e-08
3.42510000000000e+01 7.54542294666575e-07 2.44539017199561e-08
3.47170000000000e+01 6.34562360829989e-07 2.07049196783057e-08
3.51830000000000e+01 5.33660462280732e-07 1.75291074164691e-08
3.56490000000000e+01 4.48802996492233e-07 1.48391132540780e-08
3.61150000000000e+01 3.77438734733263e-07 1.25608486102148e-08
3.65810000000000e+01 3.17422119706172e-07 1.06314830186734e-08
3.70470000000000e+01 2.66948759644303e-07 8.99774064642135e-09
3.75130000000000e+01 2.24501179506949e-07 7.61445326554281e-09
3.79790000000000e+01 1.88803198288571e-07 6.44333130692718e-09
3.84450000000000e+01 1.58781560801956e-07 5.45192032194154e-09
3.89110000000000e+01 1.33533670399859e-07 4.61271503823798e-09
3.93770000000000e+01 1.12300452523568e-07 3.90240733944490e-09
3.98430000000000e+01 9.44435332244981e-08 3.30124803012356e-09
4.03090000000000e+01 7.94260465340060e-08 2.79250525642239e-09
4.07750000000000e+01 6.67964936575000e-08 2.36200501584754e-09
4.12410000000000e+01 5.61751687215874e-08 1.99774137195795e-09
4.17070000000000e+01 4.72427429661122e-08 1.68954584756700e-09
4.21730000000000e+01 3.97306641662913e-08 1.42880705104217e-09
4.26390000000000e+01 3.34130826448184e-08 1.20823293541340e-09
4.31050000000000e+01 2.81000611305331e-08 1.02164923413895e-09
4.35710000000000e+01 2.36318643189346e-08 8.63828590326919e-10
4.40370000000000e+01 1.98741564509166e-08 7.30345723393702e-10
4.45030000000000e+01 1.67139625255481e-08 6.17454680239424e-10
4.49690000000000e+01 1.40562717212856e-08 5.21984815519856e-10
4.54350000000000e+01 1.18211809079149e-08 4.41252653250871e-10
4.59010000000000e+01 9.94149236927745e-09 3.72987213218184e-10
4.63670000000000e+01 8.36069351262765e-09 3.15266751916261e-10
4.68330000000000e+01 7.03125782484250e-09 2.66465178741648e-10
4.72990000000000e+01 5.91321599395299e-09 2.25206672205236e-10
4.77650000000000e+01 4.97295423695045e-09 1.90327245058288e-10
4.82310000000000e+01 4.18220370574882e-09 1.60842197449104e-10
4.86970000000000e+01 3.51719058792406e-09 1.35918558645203e-10
4.91630000000000e+01 2.95792135011908e-09 1.14851754810298e-10
4.96290000000000e+01 2.48758163504991e-09 9.70458565064298e-11
5.00950000000000e+01 2.09203074002913e-09 8.19968581360697e-11
5.05610000000000e+01 1.75937647856892e-09 6.92785251124418e-11
5.10270000000000e+01 1.47961764333276e-09 5.85304154135977e-11
5.14930000000000e+01 1.24434332113064e-09 4.94477422607943e-11
5.19590000000000e+01 1.04648001990214e-09 4.17727955985376e-11
5.24250000000000e+01 8.80079005092694e-10 3.52876832297682e-11
5.28910000000000e+01 7.40137451718738e-10 2.98081890531448e-11
5.33570000000000e+01 6.22448035081816e-10 2.51785768602051e-11
5.38230000000000e+01 5.23472438095792e-10 2.12671944270872e-11
5.42890000000000e+01 4.40234972241392e-10 1.79627548986848e-11
5.47550000000000e+01 3.70233113875833e-10 1.51711913236626e-11
5.52210000000000e+01 3.11362266183240e-10 1.28129961750839e-11
5.56870000000000e+01 2.61852484743643e-10 1.08209712231891e-11
5.61530000000000e+01 2.20215264382960e-10 9.13832458704326e-12
5.66190000000000e+01 1.85198787457502e-10 7.71706149656270e-12
5.70850000000000e+01 1.55750288118462e-10 6.51662351394373e-12
5.75510000000000e+01 1.30984401042854e-10 5.50273792106413e-12
5.80170000000000e+01 1.10156543039624e-10 4.64644486966555e-12
5.84830000000000e+01 9.26405272523299e-11 3.92327487736256e-12
5.89490000000000e+01 7.79097369323087e-11 3.31255347314678e-12
5.94150000000000e+01 6.55212927742581e-11 2.79681336832721e-12
5.98810000000000e+01 5.51027378072143e-11 2.36129755212847e-12
6.03470000000000e+01 4.63408395239037e-11 1.99353926962682e-12
6.08130000000000e+01 3.89721725859334e-11 1.68300700464208e-12
6.12790000000000e+01 3.27751989750710e-11 1.42080442201382e-12
6.17450000000000e+01 2.75636074813859e-11 1.19941677352101e-12
6.22110000000000e+01 2.31807122808250e-11 1.01249658286842e-12
6.26770000000000e+01 1.94947421961828e-11 8.54682534339407e-13
6.31430000000000e+01 1.63948790137048e-11 7.21446427955006e-13
6.36090000000000e+01 1.37879257478281e-11 6.08963857575525e-13
6.40750000000000e+01 1.15955046858661e-11 5.14004939588552e-13
6.45410000000000e+01 9.75170097221632e-12 4.33841987485319e-13
6.50070000000000e+01 8.20108088675417e-12 3.66171507681504e-13
6.54730000000000e+01 6.89702523720830e-12 3.09048297883514e-13
6.59390000000000e+01 5.80032775917603e-12 2.60829772557709e-13
6.64050000000000e+01 4.87801638485608e-12 2.20128930291844e-13
6.68710000000000e+01 4.10236194209560e-12 1.85774623222324e-13
6.73370000000000e+01 3.45004448041659e-12 1.56777996156180e-13
6.78030000000000e+01 2.90145215972160e-12 1.32304138396172e-13
6.82690000000000e+01 2.44009162285833e-12 1.11648139532546e-13
6.87350000000000e+01 2.05209212497051e-12 9.42148657844404e-14
6.92010000000000e+01 1.72578851134825e-12 7.95018794003781e-14
6.96670000000000e+01 1.45137050606068e-12 6.70850131574520e-14
7.01330000000000e+01 1.22058776727931e-12 5.66061876667933e-14
7.05990000000000e+01 1.02650184181819e-12 4.77631231420850e-14
7.10650000000000e+01 8.63277561436531e-13 4.03006513305070e-14
7.15310000000000e+01 7.26007609260380e-13 3.40033789741535e-14
7.19970000000000e+01 6.10564981935679e-13 2.86894927604427e-14
7.24630000000000e+01 5.13478911806304e-13 2.42055283279302e-14
7.29290000000000e+01 4.31830518733487e-13 2.04219534454980e-14
7.33950000000000e+01 3.63165054342048e-13 1.72294387611848e-14
7.38610000000000e+01 3.05418100328061e-13 1.45357091838976e-14
7.43270000000000e+01 2.56853501989608e-13 1.22628855764663e-14
7.47930000000000e+01 2.16011170960270e-13 1.03452404749403e-14
7.52590000000000e+01 1.81663187841274e-13 8.72730340645120e-15
7.57250000000000e+01 1.52776884963619e-13 7.36226139424893e-15
7.61910000000000e+01 1.28483799368206e-13 6.21060869922003e-15
7.66570000000000e+01 1.08053562579316e-13 5.23900699362788e-15
7.71230000000000e+01 9.08719421708766e-14 4.41932319891244e-15
7.75890000000000e+01 7.64223749480323e-14 3.72781731747189e-15
7.80550000000000e+01 6.42704365415160e-14 3.14445689403436e-15
7.85210000000000e+01 5.40507804951878e-14 2.65233837854862e-15
7.89870000000000e+01 4.54561541720946e-14 2.23719873343070e-15
7.94530000000000e+01 3.82281612436882e-14 1.88700322132612e-15
7.99190000000000e+01 3.21494930376351e-14 1.59159749948485e-15
8.03850000000000e+01 2.70373951806956e-14 1.34241399608172e-15
8.08510000000000e+01 2.27381731121342e-14 1.13222410530369e-15
8.13170000000000e+01 1.91225712766344e-14 9.54929056497840e-16
8.17830000000000e+01 1.60818870727491e-14 8.05383425917239e-16
8.22490000000000e+01 1.35247027232508e-14 6.79246199530547e-16
8.27150000000000e+01 1.13741368114855e-14 5.72855088934340e-16
8.31810000000000e+01 9.56553285152679e-15 4.83120472392826e-16
8.36470000000000e+01 8.04451539929103e-15 4.07435898658178e-16
8.41130000000000e+01 6.76535526184527e-15 3.43602568736711e-16
8.45790000000000e+01 5.68959465513749e-15 2.89765613877248e-16
8.50450000000000e+01 4.78489097569426e-15 2.44360328350967e-16
8.55110000000000e+01 4.02404442443134e-15 2.06066802847755e-16
8.59770000000000e+01 3.38418024821296e-15 1.73771646792372e-16
8.64430000000000e+01 2.84606101335801e-15 1.46535692558745e-16
8.69090000000000e+01 2.39350823468511e-15 1.23566747321533e-16
8.73750000000000e+01 2.01291597144857e-15 1.04196604103190e-16
8.78410000000000e+01 1.69284176649002e-15 8.78616466503186e-17
8.83070000000000e+01 1.42366263024421e-15 7.40864866498818e-17
8.87730000000000e+01 1.19728572680263e-15 6.24701594664466e-17
8.92390000000000e+01 1.00690506384888e-15 5.26744785725371e-17
8.97050000000000e+01 8.46796871380097e-16 4.44142112884616e-17
9.01710000000000e+01 7.12147517302328e-16 3.74487911461744e-17
9.06370000000000e+01 5.98908786204320e-16 3.15753266639599e-17
9.11030000000000e+01 5.03676170284894e-16 2.66227038481244e-17
9.15690000000000e+01 4.23586513266330e-16 2.24466114075952e-17
9.20350000000000e+01 3.56231929971272e-16 1.89253443916521e-17
9.25010000000000e+01 2.99587413566370e-16 1.59562645116876e-17
9.29670000000000e+01 2.51949953993809e-16 1.46147627312710e-17
