Energy (eV)          EEDF (eV^-(3/2))     First Anisotropy
1.20634920634921e-02 1.21783532371942e-01 5.74956642515749e-05
3.61904761904762e-02 1.21118066272934e-01 9.50016641402563e-05
6.03174603174603e-02 1.20456236502421e-01 1.25571960642218e-04
8.44444444444444e-02 1.19798023192690e-01 1.48893486387174e-04
1.08571428571429e-01 1.19143406581682e-01 1.68424420911695e-04
1.32698412698413e-01 1.18492367013210e-01 1.85469577528253e-04
1.56825396825397e-01 1.17844884944564e-01 2.00702886714631e-04
1.80952380952381e-01 1.17200940936015e-01 2.14530544162779e-04
2.05079365079365e-01 1.16560515654196e-01 2.27221440849603e-04
2.29206349206349e-01 1.15923589871420e-01 2.38965268862058e-04
2.53333333333333e-01 1.15290144465186e-01 2.49902186853906e-04
2.77460317460317e-01 1.14660160417499e-01 2.60139476042751e-04
3.01587301587302e-01 1.14033618812148e-01 2.69761574036579e-04
3.25714285714286e-01 1.13410500840798e-01 2.78836459974793e-04
3.49841269841270e-01 1.12790787795507e-01 2.87419898556645e-04
3.73968253968254e-01 1.12174461070570e-01 2.95558362489712e-04
3.98095238095238e-01 1.11561502161956e-01 3.03291107385805e-04
4.22222222222222e-01 1.10951892666745e-01 3.10651682006613e-04
4.46349206349206e-01 1.10345614282598e-01 3.17669051894914e-04
4.70476190476190e-01 1.09742648807188e-01 3.24368451537478e-04
4.94603174603175e-01 1.09142978136424e-01 3.30772040736846e-04
5.18730158730159e-01 1.08546584267681e-01 3.36899418933087e-04
5.42857142857143e-01 1.07953449295394e-01 3.42768033030596e-04
5.66984126984127e-01 1.07363555411843e-01 3.48393503785675e-04
5.91111111111111e-01 1.06776884906612e-01 3.53789891054714e-04
6.15238095238095e-01 1.06193420166064e-01 3.58969910819683e-04
6.39365079365079e-01 1.05613143672815e-01 3.63945114455674e-04
6.63492063492064e-01 1.05036038005202e-01 3.68726038144876e-04
6.87619047619048e-01 1.04462085835923e-01 3.73322327703457e-04
7.11746031746032e-01 1.03891269934075e-01 3.77742844646176e-04
7.35873015873016e-01 1.03323573162030e-01 3.81995756388391e-04
7.60000000000000e-01 1.02758978475809e-01 3.86088612729550e-04
7.84126984126984e-01 1.02197468924563e-01 3.90028412114055e-04
8.08253968253968e-01 1.01639027650071e-01 3.93821658774159e-04
8.32380952380952e-01 1.01083637886232e-01 3.97474412353370e-04
8.56507936507937e-01 1.00531282958563e-01 4.00992331305482e-04
8.80634920634921e-01 9.99819462830706e-02 4.04380710467797e-04
9.04761904761905e-01 9.94356113676549e-02 4.07644514640141e-04
9.28888888888889e-01 9.88922618096863e-02 4.10788408252088e-04
9.53015873015873e-01 9.83518812961644e-02 4.13816781090641e-04
9.77142857142857e-01 9.78144536032274e-02 4.16733771597461e-04
1.00126984126984e+00 9.72799625956674e-02 4.19543287237174e-04
1.02539682539683e+00 9.67483922279788e-02 4.22249024489112e-04
1.04952380952381e+00 9.62197265362014e-02 4.24854482611444e-04
1.07365079365079e+00 9.56939496532921e-02 4.27362980941166e-04
1.09777777777778e+00 9.51710457889101e-02 4.29777671521585e-04
1.12190476190476e+00 9.46509992487713e-02 4.32101550289714e-04
1.14603174603175e+00 9.41337944193321e-02 4.34337471990782e-04
1.17015873015873e+00 9.36194157680716e-02 4.36488154409074e-04
1.19428571428571e+00 9.31078478562131e-02 4.38556191266115e-04
1.21841269841270e+00 9.25990753206532e-02 4.40544059656155e-04
1.24253968253968e+00 9.20930828907474e-02 4.42454126647416e-04
1.26666666666667e+00 9.15898553749371e-02 4.44288659817284e-04
1.29079365079365e+00 9.10893776608863e-02 4.46049828307454e-04
1.31492063492064e+00 9.05916347266265e-02 4.47739712169947e-04
1.33904761904762e+00 9.00966116246376e-02 4.49360306957241e-04
1.36317460317460e+00 8.96042934965683e-02 4.50913528581870e-04
1.38730158730159e+00 8.91146655579069e-02 4.52401218003903e-04
1.41142857142857e+00 8.86277131121361e-02 4.53825144576664e-04
1.43555555555556e+00 8.81434215393683e-02 4.55187013230216e-04
1.45968253968254e+00 8.76617762963568e-02 4.56488463292748e-04
1.48380952380952e+00 8.71827629259780e-02 4.57731075041225e-04
1.50793650793651e+00 8.67063670435687e-02 4.58916372118666e-04
1.53206349206349e+00 8.62325743494908e-02 4.60045823635377e-04
1.55619047619048e+00 8.57613706189645e-02 4.61120849924335e-04
1.58031746031746e+00 8.52927417020324e-02 4.62142820600863e-04
1.60444444444444e+00 8.48266735320126e-02 4.63113059895394e-04
1.62857142857143e+00 8.43631521132307e-02 4.64032848200007e-04
1.65269841269841e+00 8.39021635322493e-02 4.64903423382148e-04
1.67682539682540e+00 8.34436939487247e-02 4.65725985566752e-04
1.70095238095238e+00 8.29877295953113e-02 4.66501694777706e-04
1.72507936507937e+00 8.25342567852615e-02 4.67231675416174e-04
1.74920634920635e+00 8.20832619013356e-02 4.67917017247036e-04
1.77333333333333e+00 8.16347314059006e-02 4.68558776843547e-04
1.79746031746032e+00 8.11886518301807e-02 4.69157979097554e-04
1.82158730158730e+00 8.07450097840322e-02 4.69715617863332e-04
1.84571428571429e+00 8.03037919479195e-02 4.70232659836064e-04
1.86984126984127e+00 7.98649850727782e-02 4.70710041901373e-04
1.89396825396825e+00 7.94285759866553e-02 4.71148674812446e-04
1.91809523809524e+00 7.89945515849293e-02 4.71549443682736e-04
1.94222222222222e+00 7.85628988391617e-02 4.71913208342415e-04
1.96634920634921e+00 7.81336047897790e-02 4.72240806748662e-04
1.99047619047619e+00 7.77066565459147e-02 4.72533052276935e-04
2.01460317460317e+00 7.72820412914397e-02 4.72790736976537e-04
2.03873015873016e+00 7.68597462760209e-02 4.73014631845315e-04
2.06285714285714e+00 7.64397588231718e-02 4.73205486988560e-04
2.08698412698413e+00 7.60220663235553e-02 4.73364034667337e-04
2.11111111111111e+00 7.56066562348007e-02 4.73490986592156e-04
2.13523809523810e+00 7.51935160870066e-02 4.73587036844330e-04
2.15936507936508e+00 7.47826334745345e-02 4.73652862001494e-04
2.18349206349206e+00 7.43739960633576e-02 4.73689121688106e-04
2.20761904761905e+00 7.39675915830752e-02 4.73696459218243e-04
2.23174603174603e+00 7.35634078340547e-02 4.73675501573311e-04
2.25587301587302e+00 7.31614326814393e-02 4.73626862070603e-04
2.28000000000000e+00 7.27616540549533e-02 4.73551137702568e-04
2.30412698412698e+00 7.23640599537908e-02 4.73448911709312e-04
2.32825396825397e+00 7.19686384392549e-02 4.73320753560512e-04
2.35238095238095e+00 7.15753776413069e-02 4.73167218852862e-04
2.37650793650794e+00 7.11842657530349e-02 4.72988851755738e-04
2.40063492063492e+00 7.07952910304484e-02 4.72786182420971e-04
2.42476190476191e+00 7.04084417969706e-02 4.72559729346942e-04
2.44888888888889e+00 7.00237064366311e-02 4.72309999296615e-04
2.47301587301587e+00 6.96410734000902e-02 4.72037487603429e-04
2.49714285714286e+00 6.92605311980004e-02 4.71742678566438e-04
2.52126984126984e+00 6.88820684068716e-02 4.71426045270034e-04
2.54539682539683e+00 6.85056736640784e-02 4.71088051785405e-04
2.56952380952381e+00 6.81313356676448e-02 4.70729150682063e-04
2.59365079365079e+00 6.77590431802736e-02 4.70349785160308e-04
2.61777777777778e+00 6.73887850231867e-02 4.69950388907452e-04
2.64190476190476e+00 6.70205500815398e-02 4.69531385886025e-04
2.66603174603175e+00 6.66543272997800e-02 4.69093192380924e-04
2.69015873015873e+00 6.62901056814313e-02 4.68636214599879e-04
2.71428571428571e+00 6.59278742928147e-02 4.68160850661808e-04
2.73841269841270e+00 6.55676222573202e-02 4.67667490425192e-04
2.76253968253968e+00 6.52093387604152e-02 4.67156515254430e-04
2.78666666666667e+00 6.48530130453228e-02 4.66628299933624e-04
2.81079365079365e+00 6.44986344128021e-02 4.66083210357082e-04
2.83492063492064e+00 6.41461922245949e-02 4.65521605389406e-04
2.85904761904762e+00 6.37956758980857e-02 4.64943836676246e-04
2.88317460317460e+00 6.34470749109452e-02 4.64350248788798e-04
2.90730158730159e+00 6.31003787959107e-02 4.63741179446875e-04
2.93142857142857e+00 6.27555771453176e-02 4.63116959264472e-04
2.95555555555556e+00 6.24126596071579e-02 4.62477913508697e-04
2.97968253968254e+00 6.20716158848594e-02 4.61824359905697e-04
3.00380952380952e+00 6.17324357404049e-02 4.61156610352295e-04
3.02793650793651e+00 6.13951089894562e-02 4.60474970709035e-04
3.05206349206349e+00 6.10596255055650e-02 4.59779740540554e-04
3.07619047619048e+00 6.07259752164837e-02 4.59071214771586e-04
3.10031746031746e+00 6.03941481039476e-02 4.58349681580654e-04
3.12444444444444e+00 6.00641342065741e-02 4.57615424014237e-04
3.14857142857143e+00 5.97359236152978e-02 4.56868719773893e-04
3.17269841269841e+00 5.94095064772910e-02 4.56109840953915e-04
3.19682539682540e+00 5.90848729925079e-02 4.55339055605513e-04
3.22095238095238e+00 5.87620134134648e-02 4.54556625715694e-04
3.24507936507937e+00 5.84409180479419e-02 4.53762808731870e-04
3.26920634920635e+00 5.81215772547031e-02 4.52957857347090e-04
3.29333333333333e+00 5.78039814471516e-02 4.52142019572156e-04
3.31746031746032e+00 5.74881210891396e-02 4.51315538875483e-04
3.34158730158730e+00 5.71739866985416e-02 4.50478653919742e-04
3.36571428571429e+00 5.68615688440790e-02 4.49631600015858e-04
3.38984126984127e+00 5.65508581451026e-02 4.48774607208784e-04
3.41396825396825e+00 5.62418452740555e-02 4.47907901695880e-04
3.43809523809524e+00 5.59345209525361e-02 4.47031705610274e-04
3.46222222222222e+00 5.56288759546371e-02 4.46146236760972e-04
3.48634920634921e+00 5.53249011039578e-02 4.45251710011617e-04
3.51047619047619e+00 5.50225872733908e-02 4.44348335444651e-04
3.53460317460317e+00 5.47219253874215e-02 4.43436319707563e-04
3.55873015873016e+00 5.44229064184260e-02 4.42515865798119e-04
3.58285714285714e+00 5.41255213897933e-02 4.41587172808521e-04
3.60698412698413e+00 5.38297613731139e-02 4.40650437235747e-04
3.63111111111111e+00 5.35356174879664e-02 4.39705851220674e-04
3.65523809523810e+00 5.32430809040705e-02 4.38753603826816e-04
3.67936507936508e+00 5.29521428377995e-02 4.37793880829355e-04
3.70349206349206e+00 5.26627945551050e-02 4.36826864751806e-04
3.72761904761905e+00 5.23750273680987e-02 4.35852734960785e-04
3.75174603174603e+00 5.20888326379151e-02 4.34871667416388e-04
3.77587301587302e+00 5.18042017721121e-02 4.33883835898244e-04
3.80000000000000e+00 5.15211262244634e-02 4.32889410338554e-04
3.82412698412698e+00 5.12395974969305e-02 4.31888558019839e-04
3.84825396825397e+00 5.09596071364376e-02 4.30881443367957e-04
3.87238095238095e+00 5.06811467375579e-02 4.29868227708808e-04
3.89650793650794e+00 5.04042079400579e-02 4.28849070436400e-04
3.92063492063492e+00 5.01287824286940e-02 4.27824127413534e-04
3.94476190476191e+00 4.98548619350615e-02 4.26793552113209e-04
3.96888888888889e+00 4.95824382345494e-02 4.25757495416562e-04
3.99301587301587e+00 4.93115031488624e-02 4.24716105635345e-04
4.01714285714286e+00 4.90420485430342e-02 4.23669528586759e-04
4.04126984126984e+00 4.87740663278967e-02 4.22617907357689e-04
4.06539682539683e+00 4.85075484578046e-02 4.21561383401834e-04
4.08952380952381e+00 4.82424869304354e-02 4.20500095025437e-04
4.11365079365079e+00 4.79788737884896e-02 4.19434178459164e-04
4.13777777777778e+00 4.77167011168659e-02 4.18363767662312e-04
4.16190476190476e+00 4.74559610449843e-02 4.17288994094452e-04
4.18603174603175e+00 4.71966457446308e-02 4.16209987762480e-04
4.21015873015873e+00 4.69387474297624e-02 4.15126875767181e-04
4.23428571428571e+00 4.66822583581044e-02 4.14039783327375e-04
4.25841269841270e+00 4.64271708284775e-02 4.12948833589234e-04
4.28253968253968e+00 4.61734771829835e-02 4.11854147404801e-04
4.30666666666667e+00 4.59211698049644e-02 4.10755844332770e-04
4.33079365079365e+00 4.56702411188099e-02 4.09654041243105e-04
4.35492063492064e+00 4.54206835914607e-02 4.08548853295591e-04
4.37904761904762e+00 4.51724897298768e-02 4.07440393755030e-04
4.40317460317460e+00 4.49256520830955e-02 4.06328774001557e-04
4.42730158730159e+00 4.46801632397466e-02 4.05214103586064e-04
4.45142857142857e+00 4.44360158300693e-02 4.04096490017294e-04
4.47555555555556e+00 4.41932025240132e-02 4.02976039704902e-04
4.49968253968254e+00 4.39517160310510e-02 4.01852856637287e-04
4.52380952380952e+00 4.37115491015649e-02 4.00727043303786e-04
4.54793650793651e+00 4.34726945244898e-02 3.99598700516761e-04
4.57206349206349e+00 4.32351451292160e-02 3.98467927205862e-04
4.59619047619048e+00 4.29988937837857e-02 3.97334821320359e-04
4.62031746031746e+00 4.27639333947102e-02 3.96199478559150e-04
4.64444444444444e+00 4.25302569082765e-02 3.95061993253739e-04
4.66857142857143e+00 4.22978573083104e-02 3.93922458195773e-04
4.69269841269841e+00 4.20667276179720e-02 3.92780964437983e-04
4.71682539682540e+00 4.18368608980432e-02 3.91637602158534e-04
4.74095238095238e+00 4.16082502467478e-02 3.90492459440772e-04
4.76507936507937e+00 4.13808888009843e-02 3.89345623118728e-04
4.78920634920635e+00 4.11547697342014e-02 3.88197178610469e-04
4.81333333333333e+00 4.09298862580936e-02 3.87047209921500e-04
4.83746031746032e+00 4.07062316205144e-02 3.85895799687512e-04
4.86158730158730e+00 4.04837991071392e-02 3.84743028983702e-04
4.88571428571429e+00 4.02625820398659e-02 3.83588978141175e-04
4.90984126984127e+00 4.00425737766408e-02 3.82433725589851e-04
4.93396825396825e+00 3.98237677125986e-02 3.81277348657256e-04
4.95809523809524e+00 3.96061572780792e-02 3.80119923408626e-04
4.98222222222222e+00 3.93897359401993e-02 3.78961524462858e-04
5.00634920634921e+00 3.91744972013310e-02 3.77802225775266e-04
5.03047619047619e+00 3.89604345989308e-02 3.76642099525205e-04
5.05460317460317e+00 3.87475417066173e-02 3.75481216882103e-04
5.07873015873016e+00 3.85358121322843e-02 3.74319647850864e-04
5.10285714285714e+00 3.83252395195872e-02 3.73157461094000e-04
5.12698412698413e+00 3.81158175464951e-02 3.71994724682650e-04
5.15111111111111e+00 3.79075399251227e-02 3.70831505026989e-04
5.17523809523810e+00 3.77004004027498e-02 3.69667867610928e-04
5.19936507936508e+00 3.74943927600249e-02 3.68503876842827e-04
5.22349206349206e+00 3.72895108123721e-02 3.67339596055248e-04
5.24761904761905e+00 3.70857484082260e-02 3.66175087538562e-04
5.27174603174603e+00 3.68830994304126e-02 3.65010412370977e-04
5.29587301587302e+00 3.66815577947925e-02 3.63845631129333e-04
5.32000000000000e+00 3.64811174500994e-02 3.62680802873746e-04
5.34412698412698e+00 3.62817723788848e-02 3.61515985843287e-04
5.36825396825397e+00 3.60835165958366e-02 3.60351237312999e-04
5.39238095238095e+00 3.58863441490869e-02 3.59186613429921e-04
5.41650793650794e+00 3.56902491189186e-02 3.58022169895503e-04
5.44063492063492e+00 3.54952256176075e-02 3.56857960988788e-04
5.46476190476190e+00 3.53012677903167e-02 3.55694040234442e-04
5.48888888888889e+00 3.51083698134935e-02 3.54530460264725e-04
5.51301587301587e+00 3.49165258961095e-02 3.53367272817427e-04
5.53714285714286e+00 3.47257302780840e-02 3.52204528764800e-04
5.56126984126984e+00 3.45359772315014e-02 3.51042277956914e-04
5.58539682539683e+00 3.43472610593979e-02 3.49880569868255e-04
5.60952380952381e+00 3.41595760956085e-02 3.48719452670118e-04
5.63365079365079e+00 3.39729167055979e-02 3.47558973863470e-04
5.65777777777778e+00 3.37872772849576e-02 3.46399180147016e-04
5.68190476190476e+00 3.36026522605599e-02 3.45240117266097e-04
5.70603174603175e+00 3.34190360893999e-02 3.44081830633888e-04
5.73015873015873e+00 3.32364232584462e-02 3.42924364438669e-04
5.75428571428571e+00 3.30548082854280e-02 3.41767762252069e-04
5.77841269841270e+00 3.28741857174016e-02 3.40612066901521e-04
5.80253968253968e+00 3.26945501318444e-02 3.39457320324492e-04
5.82666666666667e+00 3.25158961355497e-02 3.38303564165631e-04
5.85079365079365e+00 3.23382183644811e-02 3.37150838917314e-04
5.87492063492064e+00 3.21615114845178e-02 3.35999184504327e-04
5.89904761904762e+00 3.19857701900869e-02 3.34848640160790e-04
5.92317460317460e+00 3.18109892052015e-02 3.33699244426829e-04
5.94730158730159e+00 3.16371632821147e-02 3.32551035172102e-04
5.97142857142857e+00 3.14642872023398e-02 3.31404049456547e-04
5.99555555555556e+00 3.12923557756113e-02 3.30258324097048e-04
6.01968253968254e+00 3.11213638397438e-02 3.29113894850450e-04
6.04380952380952e+00 3.09513062613264e-02 3.27970796968388e-04
6.06793650793651e+00 3.07821779344370e-02 3.26829065079686e-04
6.09206349206349e+00 3.06139737816114e-02 3.25688733056026e-04
6.11619047619048e+00 3.04466887528494e-02 3.24549834556929e-04
6.14031746031746e+00 3.02803178254778e-02 3.23412402242934e-04
6.16444444444445e+00 3.01148560048092e-02 3.22276468309334e-04
6.18857142857143e+00 2.99502983229132e-02 3.21142064372644e-04
6.21269841269841e+00 2.97866398395369e-02 3.20009221340854e-04
6.23682539682540e+00 2.96238756411551e-02 3.18877969937856e-04
6.26095238095238e+00 2.94620008408364e-02 3.17748339945531e-04
6.28507936507937e+00 2.93010105788679e-02 3.16620360717222e-04
6.30920634920635e+00 2.91409000215814e-02 3.15494061068207e-04
6.33333333333333e+00 2.89816643622277e-02 3.14369469271441e-04
6.35746031746032e+00 2.88232988198212e-02 3.13246613077181e-04
6.38158730158730e+00 2.86657986399992e-02 3.12125519589185e-04
6.40571428571429e+00 2.85091590941276e-02 3.11006215762749e-04
6.42984126984127e+00 2.83533754791715e-02 3.09888727683898e-04
6.45396825396825e+00 2.81984431182780e-02 3.08773081057017e-04
6.47809523809524e+00 2.80443573596709e-02 3.07659301100231e-04
6.50222222222222e+00 2.78911135774683e-02 3.06547412425994e-04
6.52634920634921e+00 2.77387071708261e-02 3.05437439520454e-04
6.55047619047619e+00 2.75871335638120e-02 3.04329406048820e-04
6.57460317460318e+00 2.74363882059593e-02 3.03223335324938e-04
6.59873015873016e+00 2.72864665712092e-02 3.02119250210187e-04
6.62285714285714e+00 2.71373641586884e-02 3.01017172998131e-04
6.64698412698413e+00 2.69890764918896e-02 2.99917125876238e-04
6.67111111111111e+00 2.68415991185479e-02 2.98819130256343e-04
6.69523809523810e+00 2.66949276111674e-02 2.97723207226739e-04
6.71936507936508e+00 2.65490575660089e-02 2.96629377454662e-04
6.74349206349206e+00 2.64039846038299e-02 2.95537661181716e-04
6.76761904761905e+00 2.62597043688877e-02 2.94448078240323e-04
6.79174603174603e+00 2.61162125296673e-02 2.93360647943684e-04
6.81587301587302e+00 2.59735047781076e-02 2.92275389524613e-04
6.84000000000000e+00 2.58315768294832e-02 2.91192321498341e-04
6.86412698412698e+00 2.56904244228955e-02 2.90111462092333e-04
6.88825396825397e+00 2.55500433203184e-02 2.89032829153081e-04
6.91238095238095e+00 2.54104293072908e-02 2.87956440039903e-04
6.93650793650794e+00 2.52715781921761e-02 2.86882312047769e-04
6.96063492063492e+00 2.51334858060460e-02 2.85810461792826e-04
6.98476190476191e+00 2.49961480031477e-02 2.84740905626549e-04
7.00888888888889e+00 2.48595606599901e-02 2.83673659545768e-04
7.03301587301587e+00 2.47237196760034e-02 2.82608739188099e-04
7.05714285714286e+00 2.45886209726386e-02 2.81546159846491e-04
7.08126984126984e+00 2.44542604940161e-02 2.80485936367778e-04
7.10539682539683e+00 2.43206342062264e-02 2.79428083554913e-04
7.12952380952381e+00 2.41877380972180e-02 2.78372615581989e-04
7.15365079365079e+00 2.40555681772344e-02 2.77319546388101e-04
7.17777777777778e+00 2.39241204779516e-02 2.76268889591377e-04
7.20190476190476e+00 2.37933910530957e-02 2.75220658391116e-04
7.22603174603175e+00 2.36633759777725e-02 2.74174865955429e-04
7.25015873015873e+00 2.35340713483583e-02 2.73131524856904e-04
7.27428571428571e+00 2.34054732829153e-02 2.72090647452371e-04
7.29841269841270e+00 2.32775779203656e-02 2.71052245799883e-04
7.32253968253968e+00 2.31503814210790e-02 2.70016331564081e-04
7.34666666666667e+00 2.30238799662307e-02 2.68982916389923e-04
7.37079365079365e+00 2.28980697576941e-02 2.67952011358358e-04
7.39492063492064e+00 2.27729470184369e-02 2.66923627352346e-04
7.41904761904762e+00 2.26485079917284e-02 2.65897774976671e-04
7.44317460317460e+00 2.25247489417007e-02 2.64874464553448e-04
7.46730158730159e+00 2.24016661525679e-02 2.63853706134449e-04
7.49142857142857e+00 2.22792559291776e-02 2.62835509410869e-04
7.51555555555556e+00 2.21575145964035e-02 2.61819884068992e-04
7.53968253968254e+00 2.20364384990423e-02 2.60806839271674e-04
7.56380952380952e+00 2.19160240021840e-02 2.59796384006735e-04
7.58793650793651e+00 2.17962674904635e-02 2.58788527010324e-04
7.61206349206349e+00 2.16771653685862e-02 2.57783276679848e-04
