Energy (eV)          EEDF (eV^-(3/2))     First Anisotropy
4.84444444444444e-03 7.93509128673938e-01 4.39816501942448e-04
1.45333333333333e-02 7.87436889268282e-01 7.25923647779303e-04
2.42222222222222e-02 7.81411116982728e-01 9.57405402993698e-04
3.39111111111111e-02 7.75431456244519e-01 1.13271946991655e-03
4.36000000000000e-02 7.69497554188776e-01 1.27848370173611e-03
5.32888888888889e-02 7.63609060664293e-01 1.40477342543759e-03
6.29777777777778e-02 7.57765628172882e-01 1.51680826710779e-03
7.26666666666667e-02 7.51966911890494e-01 1.61774352453748e-03
8.23555555555556e-02 7.46212569631654e-01 1.70967402225335e-03
9.20444444444444e-02 7.40502261829337e-01 1.79408186501687e-03
1.01733333333333e-01 7.34835651514862e-01 1.87206530825723e-03
1.11422222222222e-01 7.29212404287203e-01 1.94446740442489e-03
1.21111111111111e-01 7.23632188322436e-01 2.01195359912368e-03
1.30800000000000e-01 7.18094674329449e-01 2.07506115664191e-03
1.40488888888889e-01 7.12599535576708e-01 2.13423205825824e-03
1.50177777777778e-01 7.07146447750475e-01 2.18983567590980e-03
1.59866666666667e-01 7.01735089061421e-01 2.24218487999764e-03
1.69555555555556e-01 6.96365140182562e-01 2.29154779545666e-03
1.79244444444444e-01 6.91036284230442e-01 2.33815654565814e-03
1.88933333333333e-01 6.85748206746201e-01 2.38221389292572e-03
1.98622222222222e-01 6.80500595677582e-01 2.42389836421337e-03
2.08311111111111e-01 6.75293141360214e-01 2.46336826636621e-03
2.18000000000000e-01 6.70125536499353e-01 2.50076487041047e-03
2.27688888888889e-01 6.64997476174316e-01 2.53621497946306e-03
2.37377777777778e-01 6.59908657751675e-01 2.56983300123561e-03
2.47066666666667e-01 6.54858780937431e-01 2.60172264592348e-03
2.56755555555556e-01 6.49847547735524e-01 2.63197834326933e-03
2.66444444444444e-01 6.44874662430252e-01 2.66068641422892e-03
2.76133333333333e-01 6.39939831568717e-01 2.68792605744682e-03
2.85822222222222e-01 6.35042763943739e-01 2.71377018359512e-03
2.95511111111111e-01 6.30183170576550e-01 2.73828612554795e-03
3.05200000000000e-01 6.25360764699747e-01 2.76153624425605e-03
3.14888888888889e-01 6.20575261755473e-01 2.78357845863113e-03
3.24577777777778e-01 6.15826379332692e-01 2.80446669417048e-03
3.34266666666667e-01 6.11113837197110e-01 2.82425127245953e-03
3.43955555555556e-01 6.06437357258880e-01 2.84297926176093e-03
3.53644444444444e-01 6.01796663556199e-01 2.86069477653799e-03
3.63333333333333e-01 5.97191482238964e-01 2.87743924314998e-03
3.73022222222222e-01 5.92621541552736e-01 2.89325163472827e-03
3.82711111111111e-01 5.88086571822636e-01 2.90816867954829e-03
3.92400000000000e-01 5.83586305437438e-01 2.92222504471750e-03
4.02088888888889e-01 5.79120476844768e-01 2.93545350706086e-03
4.11777777777778e-01 5.74688822502061e-01 2.94788509786075e-03
4.21466666666667e-01 5.70291080894789e-01 2.95954923247576e-03
4.31155555555556e-01 5.65926992509628e-01 2.97047383572775e-03
4.40844444444444e-01 5.61596299819147e-01 2.98068544841387e-03
4.50533333333333e-01 5.57298747266575e-01 2.99020932535600e-03
4.60222222222222e-01 5.53034081250793e-01 2.99906952437985e-03
4.69911111111111e-01 5.48802050111333e-01 3.00728898724762e-03
4.79600000000000e-01 5.44602404113529e-01 3.01488961192458e-03
4.89288888888889e-01 5.40434895442183e-01 3.02189232440881e-03
4.98977777777778e-01 5.36299278161455e-01 3.02831713736925e-03
5.08666666666667e-01 5.32195308226113e-01 3.03418320363733e-03
5.18355555555556e-01 5.28122743458452e-01 3.03950887269636e-03
5.28044444444444e-01 5.24081343534004e-01 3.04431173692157e-03
5.37733333333333e-01 5.20070869967329e-01 3.04860867560571e-03
5.47422222222222e-01 5.16091086097994e-01 3.05241589561376e-03
5.57111111111111e-01 5.12141757076579e-01 3.05574896898596e-03
5.66800000000000e-01 5.08222649850823e-01 3.05862286647943e-03
5.76488888888889e-01 5.04333533158516e-01 3.06105199369835e-03
5.86177777777778e-01 5.00474177493714e-01 3.06305021851027e-03
5.95866666666667e-01 4.96644355113536e-01 3.06463089633986e-03
6.05555555555556e-01 4.92843840017875e-01 3.06580690007243e-03
6.15244444444444e-01 4.89072407936064e-01 3.06659064296265e-03
6.24933333333333e-01 4.85329836313626e-01 3.06699410124325e-03
6.34622222222222e-01 4.81615904299168e-01 3.06702883526474e-03
6.44311111111111e-01 4.77930392731340e-01 3.06670600928448e-03
6.54000000000000e-01 4.74273084125897e-01 3.06603640889344e-03
6.63688888888889e-01 4.70643762668248e-01 3.06503046173355e-03
6.73377777777778e-01 4.67042214184427e-01 3.06369825158098e-03
6.83066666666667e-01 4.63468226144901e-01 3.06204953142510e-03
6.92755555555556e-01 4.59921587646495e-01 3.06009374130848e-03
7.02444444444444e-01 4.56402089399942e-01 3.05784002077228e-03
7.12133333333333e-01 4.52909523717530e-01 3.05529722165901e-03
7.21822222222222e-01 4.49443684500861e-01 3.05247392019549e-03
7.31511111111111e-01 4.46004367228683e-01 3.04937842840716e-03
7.41200000000000e-01 4.42591368944818e-01 3.04601880392949e-03
7.50888888888889e-01 4.39204488250622e-01 3.04240286312992e-03
7.60577777777778e-01 4.35843525279679e-01 3.03853818880204e-03
7.70266666666667e-01 4.32508281699545e-01 3.03443213732961e-03
7.79955555555556e-01 4.29198560695494e-01 3.03009185034674e-03
7.89644444444444e-01 4.25914166958900e-01 3.02552426196420e-03
7.99333333333333e-01 4.22654906675704e-01 3.02073610657735e-03
8.09022222222222e-01 4.19420587515000e-01 3.01573392628836e-03
8.18711111111111e-01 4.16211018617666e-01 3.01052407796778e-03
8.28400000000000e-01 4.13026010585112e-01 3.00511273911353e-03
8.38088888888889e-01 4.09865375471802e-01 2.99950591682513e-03
8.47777777777778e-01 4.06728926762957e-01 2.99370945216528e-03
8.57466666666667e-01 4.03616479374852e-01 2.98772902421737e-03
8.67155555555556e-01 4.00527849640093e-01 2.98157015826300e-03
8.76844444444444e-01 3.97462855296781e-01 2.97523823018546e-03
8.86533333333333e-01 3.94421315477747e-01 2.96873847151646e-03
8.96222222222222e-01 3.91403050699895e-01 2.96207597426113e-03
9.05911111111111e-01 3.88407882853602e-01 2.95525569551411e-03
9.15600000000000e-01 3.85435635192209e-01 2.94828246111304e-03
9.25288888888889e-01 3.82486132324720e-01 2.94116097215339e-03
9.34977777777778e-01 3.79559200195987e-01 2.93389580749854e-03
9.44666666666667e-01 3.76654666085982e-01 2.92649142610279e-03
9.54355555555556e-01 3.73772358596397e-01 2.91895217306821e-03
9.64044444444444e-01 3.70912107640530e-01 2.91128228242330e-03
9.73733333333333e-01 3.68073744433243e-01 2.90348588054009e-03
9.83422222222222e-01 3.65257101481010e-01 2.89556698941607e-03
9.93111111111111e-01 3.62462012572034e-01 2.88752952982887e-03
1.00280000000000e+00 3.59688312766431e-01 2.87937732100217e-03
1.01248888888889e+00 3.56935838399756e-01 2.87111409433259e-03
1.02217777777778e+00 3.54204427030656e-01 2.86274348803599e-03
1.03186666666667e+00 3.51493917477014e-01 2.85426904297040e-03
1.04155555555556e+00 3.48804149790135e-01 2.84569421697830e-03
1.05124444444444e+00 3.46134965245312e-01 2.83702238321282e-03
1.06093333333333e+00 3.43486206332418e-01 2.82825683252241e-03
1.07062222222222e+00 3.40857716746694e-01 2.81940077576776e-03
1.08031111111111e+00 3.38249341379481e-01 2.81045734607454e-03
1.09000000000000e+00 3.35660926309068e-01 2.80142959491959e-03
1.09968888888889e+00 3.33092318814521e-01 2.79232051249343e-03
1.10937777777778e+00 3.30543367297421e-01 2.78313301745908e-03
1.11906666666667e+00 3.28013921342695e-01 2.77386994648506e-03
1.12875555555556e+00 3.25503831686300e-01 2.76453407480224e-03
1.13844444444444e+00 3.23012950206419e-01 2.75512811174839e-03
1.14813333333333e+00 3.20541129914686e-01 2.74565470249636e-03
1.15782222222222e+00 3.18088224947579e-01 2.73611642974001e-03
1.16751111111111e+00 3.15654090557775e-01 2.72651581534059e-03
1.17720000000000e+00 3.13238583105612e-01 2.71685531645497e-03
1.18688888888889e+00 3.10841560070415e-01 2.70713734348052e-03
1.19657777777778e+00 3.08462879982241e-01 2.69736425053732e-03
1.20626666666667e+00 3.06102402473821e-01 2.68753832575810e-03
1.21595555555556e+00 3.03759988252026e-01 2.67766180945321e-03
1.22564444444444e+00 3.01435499089653e-01 2.66773688982953e-03
1.23533333333333e+00 2.99128797817238e-01 2.65776570427510e-03
1.24502222222222e+00 2.96839748315017e-01 2.64775034061738e-03
1.25471111111111e+00 2.94568215504864e-01 2.63769283835718e-03
1.26440000000000e+00 2.92314065342322e-01 2.62759518494556e-03
1.27408888888889e+00 2.90077164825901e-01 2.61745933171586e-03
1.28377777777778e+00 2.87857381937230e-01 2.60728718509791e-03
1.29346666666667e+00 2.85654585685646e-01 2.59708059766733e-03
1.30315555555556e+00 2.83468646082876e-01 2.58684138430358e-03
1.31284444444444e+00 2.81299434135364e-01 2.57657131814525e-03
1.32253333333333e+00 2.79146821836644e-01 2.56627213156659e-03
1.33222222222222e+00 2.77010682159822e-01 2.55594551713707e-03
1.34191111111111e+00 2.74890889050063e-01 2.54559312856517e-03
1.35160000000000e+00 2.72787317417151e-01 2.53521657717574e-03
1.36128888888889e+00 2.70699843143131e-01 2.52481744613583e-03
1.37097777777778e+00 2.68628343029594e-01 2.51439728237697e-03
1.38066666666667e+00 2.66572694836121e-01 2.50395758837200e-03
1.39035555555556e+00 2.64532777257725e-01 2.49349983658230e-03
1.40004444444444e+00 2.62508469917688e-01 2.48302546567611e-03
1.40973333333333e+00 2.60499653360447e-01 2.47253588128376e-03
1.41942222222222e+00 2.58506209044572e-01 2.46203245674281e-03
1.42911111111111e+00 2.56528019335758e-01 2.45151653383306e-03
1.43880000000000e+00 2.54564967499883e-01 2.44098941947677e-03
1.44848888888889e+00 2.52616937709292e-01 2.43045239849646e-03
1.45817777777778e+00 2.50683814996164e-01 2.41990672620513e-03
1.46786666666667e+00 2.48765485285807e-01 2.40935362086675e-03
1.47755555555556e+00 2.46861835376471e-01 2.39879427666562e-03
1.48724444444444e+00 2.44972752932670e-01 2.38822986019311e-03
1.49693333333333e+00 2.43098126478537e-01 2.37766151104120e-03
1.50662222222222e+00 2.41237845391274e-01 2.36709034238976e-03
1.51631111111111e+00 2.39391799894612e-01 2.35651744158747e-03
1.52600000000000e+00 2.37559881052331e-01 2.34594386708058e-03
1.53568888888889e+00 2.35741980773425e-01 2.33537065989467e-03
1.54537777777778e+00 2.33937991770706e-01 2.32479883684506e-03
1.55506666666667e+00 2.32147807589733e-01 2.31422938363165e-03
1.56475555555556e+00 2.30371322590695e-01 2.30366326652071e-03
1.57444444444444e+00 2.28608431942176e-01 2.29310142909301e-03
1.58413333333333e+00 2.26859031614961e-01 2.28254479271684e-03
1.59382222222222e+00 2.25123018375913e-01 2.27199425701730e-03
1.60351111111111e+00 2.23400289781880e-01 2.26145070034083e-03
1.61320000000000e+00 2.21690744173639e-01 2.25091497690801e-03
1.62288888888889e+00 2.19994280680141e-01 2.24038792717749e-03
1.63257777777778e+00 2.18310799181638e-01 2.22987037162817e-03
1.64226666666667e+00 2.16640200334904e-01 2.21936310443784e-03
1.65195555555556e+00 2.14982385556926e-01 2.20886690403358e-03
1.66164444444444e+00 2.13337257019083e-01 2.19838253009011e-03
1.67133333333333e+00 2.11704717641370e-01 2.18791072391083e-03
1.68102222222222e+00 2.10084671086681e-01 2.17745220880651e-03
1.69071111111111e+00 2.08477021755122e-01 2.16700769047175e-03
1.70040000000000e+00 2.06881674778362e-01 2.15657785435205e-03
1.71008888888889e+00 2.05298536023106e-01 2.14616337502125e-03
1.71977777777778e+00 2.03727512058160e-01 2.13576491048857e-03
1.72946666666667e+00 2.02168510176482e-01 2.12538309641184e-03
1.73915555555556e+00 2.00621438380457e-01 2.11501855564842e-03
1.74884444444444e+00 1.99086205376470e-01 2.10467189548877e-03
1.75853333333333e+00 1.97562720569515e-01 2.09434370796635e-03
1.76822222222222e+00 1.96050894057859e-01 2.08403457016646e-03
1.77791111111111e+00 1.94550636627732e-01 2.07374504453366e-03
1.78760000000000e+00 1.93061859748062e-01 2.06347567644166e-03
1.79728888888889e+00 1.91584475573296e-01 2.05322700269537e-03
1.80697777777778e+00 1.90118396913920e-01 2.04299954631854e-03
1.81666666666667e+00 1.88663537255772e-01 2.03279381125535e-03
1.82635555555556e+00 1.87219810746730e-01 2.02261029103319e-03
1.83604444444444e+00 1.85787132191642e-01 2.01244946621592e-03
1.84573333333333e+00 1.84365417047300e-01 2.00231180465815e-03
1.85542222222222e+00 1.82954581417456e-01 1.99219776175916e-03
1.86511111111111e+00 1.81554542047870e-01 1.98210778071554e-03
1.87480000000000e+00 1.80165216321395e-01 1.97204229028127e-03
1.88448888888889e+00 1.78786522260262e-01 1.96200171248975e-03
1.89417777777778e+00 1.77418378499620e-01 1.95198645787952e-03
1.90386666666667e+00 1.76060704304502e-01 1.94199692064241e-03
1.91355555555556e+00 1.74713419557756e-01 1.93203348649412e-03
1.92324444444444e+00 1.73376444755313e-01 1.92209653033096e-03
1.93293333333333e+00 1.72049701001500e-01 1.91218641644010e-03
1.94262222222222e+00 1.70733110004384e-01 1.90230349870937e-03
1.95231111111111e+00 1.69426594071155e-01 1.89244812083672e-03
1.96200000000000e+00 1.68130076103538e-01 1.88262061426686e-03
1.97168888888889e+00 1.66843479599627e-01 1.87282130521551e-03
1.98137777777778e+00 1.65566728630094e-01 1.86305051029529e-03
1.99106666666667e+00 1.64299747853112e-01 1.85330853207095e-03
2.00075555555556e+00 1.63042462503398e-01 1.84359566622065e-03
2.01044444444444e+00 1.61794798387803e-01 1.83391219938088e-03
2.02013333333333e+00 1.60556681880925e-01 1.82425840932113e-03
2.02982222222222e+00 1.59328039920779e-01 1.81463456511831e-03
2.03951111111111e+00 1.58108800004478e-01 1.80504092733183e-03
2.04920000000000e+00 1.56898890183953e-01 1.79547774610293e-03
2.05888888888889e+00 1.55698239067418e-01 1.78594526755342e-03
2.06857777777778e+00 1.54506775797923e-01 1.77644372977648e-03
2.07826666666667e+00 1.53324430066519e-01 1.76697335876277e-03
2.08795555555556e+00 1.52151132102285e-01 1.75753437492552e-03
2.09764444444444e+00 1.50986812668216e-01 1.74812699111825e-03
2.10733333333333e+00 1.49831403057129e-01 1.73875141278069e-03
2.11702222222222e+00 1.48684835087620e-01 1.72940783808497e-03
2.12671111111111e+00 1.47547041100035e-01 1.72009645808178e-03
2.13640000000000e+00 1.46417953952478e-01 1.71081745495086e-03
2.14608888888889e+00 1.45297507021956e-01 1.70157100783657e-03
2.15577777777778e+00 1.44185634185027e-01 1.69235728917153e-03
2.16546666666667e+00 1.43082269829417e-01 1.68317646094152e-03
2.17515555555556e+00 1.41987348844944e-01 1.67402868063690e-03
2.18484444444444e+00 1.40900806619671e-01 1.66491409942981e-03
2.19453333333333e+00 1.39822579036096e-01 1.65583286229674e-03
2.20422222222222e+00 1.38752602467371e-01 1.64678510814125e-03
2.21391111111111e+00 1.37690813773544e-01 1.63777096991694e-03
2.22360000000000e+00 1.36637150297837e-01 1.62879057301672e-03
2.23328888888889e+00 1.35591549867522e-01 1.61984404060046e-03
2.24297777777778e+00 1.34553950776432e-01 1.61093149022271e-03
2.25266666666667e+00 1.33524291795229e-01 1.60205303040614e-03
2.26235555555556e+00 1.32502512163129e-01 1.59320876607598e-03
2.27204444444444e+00 1.31488551584309e-01 1.58439879688344e-03
2.28173333333333e+00 1.30482350224351e-01 1.57562321730891e-03
2.29142222222222e+00 1.29483848706718e-01 1.56688211676555e-03
2.30111111111111e+00 1.28492988109241e-01 1.55817557970299e-03
2.31080000000000e+00 1.27509709960651e-01 1.54950368412423e-03
2.32048888888889e+00 1.26533956241232e-01 1.54086650645489e-03
2.33017777777778e+00 1.25565669366988e-01 1.53226411844756e-03
2.33986666666667e+00 1.24604792198737e-01 1.52369658403730e-03
2.34955555555556e+00 1.23651268034548e-01 1.51516396430883e-03
2.35924444444444e+00 1.22705040606393e-01 1.50666631595409e-03
2.36893333333333e+00 1.21766054076829e-01 1.49820369135944e-03
2.37862222222222e+00 1.20834253035702e-01 1.48977613869286e-03
2.38831111111111e+00 1.19909582496880e-01 1.48138370199223e-03
2.39800000000000e+00 1.18991987895007e-01 1.47302641979963e-03
2.40768888888889e+00 1.18081415085977e-01 1.46470432961488e-03
2.41737777777778e+00 1.17177810332580e-01 1.45641746505347e-03
2.42706666666667e+00 1.16281120312565e-01 1.44816585295904e-03
2.43675555555556e+00 1.15391292111720e-01 1.43994951794737e-03
2.44644444444444e+00 1.14508273220754e-01 1.43176848098718e-03
2.45613333333333e+00 1.13632011532197e-01 1.42362275947379e-03
2.46582222222222e+00 1.12762455337326e-01 1.41551236730332e-03
2.47551111111111e+00 1.11899553323112e-01 1.40743731494732e-03
2.48520000000000e+00 1.11043254569195e-01 1.39939760819513e-03
2.49488888888889e+00 1.10193508548207e-01 1.39139325223075e-03
2.50457777777778e+00 1.09350265112738e-01 1.38342424902216e-03
2.51426666666667e+00 1.08513474502490e-01 1.37549059466878e-03
2.52395555555556e+00 1.07683087337954e-01 1.36759228356132e-03
2.53364444444444e+00 1.06859054617488e-01 1.35972930707602e-03
2.54333333333333e+00 1.06041327714430e-01 1.35190165363673e-03
2.55302222222222e+00 1.05229858374230e-01 1.34410930877806e-03
2.56271111111111e+00 1.04424598711598e-01 1.33635225520886e-03
2.57240000000000e+00 1.03625501207683e-01 1.32863047165388e-03
2.58208888888889e+00 1.02832518710269e-01 1.32094393658838e-03
2.59177777777778e+00 1.02045604421928e-01 1.31329262583878e-03
2.60146666666667e+00 1.01264711906380e-01 1.30567651014522e-03
2.61115555555556e+00 1.00489795082692e-01 1.29809555897286e-03
2.62084444444444e+00 9.97208082225631e-02 1.29054973930923e-03
2.63053333333333e+00 9.89577059476181e-02 1.28303901571728e-03
2.64022222222222e+00 9.82004432267377e-02 1.27556335038901e-03
2.64991111111111e+00 9.74489753733980e-02 1.26812270319956e-03
2.65960000000000e+00 9.67032580430334e-02 1.26071703063989e-03
2.66928888888889e+00 9.59632472331310e-02 1.25334628924043e-03
2.67897777777778e+00 9.52288992724513e-02 1.24601043336526e-03
2.68866666666667e+00 9.45001708266840e-02 1.23870941297091e-03
2.69835555555556e+00 9.37770188931298e-02 1.23144317710040e-03
2.70804444444444e+00 9.30594007981624e-02 1.22421167277615e-03
2.71773333333333e+00 9.23472741947091e-02 1.21701484504483e-03
2.72742222222222e+00 9.16405970597547e-02 1.20985263702312e-03
2.73711111111111e+00 9.09393276918605e-02 1.20272498994359e-03
2.74680000000000e+00 9.02434247087031e-02 1.19563184217120e-03
2.75648888888889e+00 8.95528470470823e-02 1.18857313234391e-03
2.76617777777778e+00 8.88675539531040e-02 1.18154879734365e-03
2.77586666666667e+00 8.81875049872147e-02 1.17455877023512e-03
2.78555555555556e+00 8.75126600193195e-02 1.16760298347095e-03
2.79524444444444e+00 8.68429792264148e-02 1.16068136787182e-03
2.80493333333333e+00 8.61784230902365e-02 1.15379385266477e-03
2.81462222222222e+00 8.55189523949308e-02 1.14694036552204e-03
2.82431111111111e+00 8.48645282247387e-02 1.14012083260018e-03
2.83400000000000e+00 8.42151119616995e-02 1.13333517763361e-03
2.84368888888889e+00 8.35706652855879e-02 1.12658332481690e-03
2.85337777777778e+00 8.29311501649650e-02 1.11986519693800e-03
2.86306666666667e+00 8.22965288616623e-02 1.11318071348163e-03
2.87275555555556e+00 8.16667639262983e-02 1.10652979357118e-03
2.88244444444444e+00 8.10418181960686e-02 1.09991235502909e-03
2.89213333333333e+00 8.04216547925516e-02 1.09332831440927e-03
2.90182222222222e+00 7.98062371195350e-02 1.08677758703021e-03
2.91151111111111e+00 7.91955288608545e-02 1.08026008700838e-03
2.92120000000000e+00 7.85894939782513e-02 1.07377572642243e-03
2.93088888888889e+00 7.79880967112513e-02 1.06732441796007e-03
2.94057777777778e+00 7.73913015690003e-02 1.06090607319968e-03
2.95026666666667e+00 7.67990733342609e-02 1.05452060086459e-03
2.95995555555556e+00 7.62113770592917e-02 1.04816790952491e-03
2.96964444444444e+00 7.56281780637846e-02 1.04184790673128e-03
2.97933333333333e+00 7.50494419328178e-02 1.03556049904261e-03
2.98902222222222e+00 7.44751345148267e-02 1.02930559205416e-03
2.99871111111111e+00 7.39052219195876e-02 1.02308309042599e-03
3.00840000000000e+00 7.33396705162180e-02 1.01689289711233e-03
3.01808888888889e+00 7.27784469330095e-02 1.01073491579319e-03
3.02777777777778e+00 7.22215180499726e-02 1.00460904929219e-03
3.03746666666667e+00 7.16688510024013e-02 9.98515197969228e-04
3.04715555555556e+00 7.11204131770833e-02 9.92453262202679e-04
3.05684444444444e+00 7.05761722103750e-02 9.86423141591054e-04
