Energy (eV)          EEDF (eV^-(3/2))     First Anisotropy
8.17857142857143e-04 2.31913863745208e+01 1.47280995343747e-02
2.45357142857143e-03 2.29073200649420e+01 2.42528648919823e-02
4.08928571428571e-03 2.26267332236136e+01 3.18384356047389e-02
5.72500000000000e-03 2.23495832299698e+01 3.74940155563767e-02
7.36071428571429e-03 2.20758279873024e+01 4.21229258250640e-02
8.99642857142857e-03 2.18054259136556e+01 4.60694852617914e-02
1.06321428571429e-02 2.15383359370356e+01 4.95132583656857e-02
1.22678571428571e-02 2.12745174880668e+01 5.25634949548795e-02
1.39035714285714e-02 2.10139304943415e+01 5.52931866703354e-02
1.55392857142857e-02 2.07565353745252e+01 5.77542976715551e-02
1.71750000000000e-02 2.05022930320851e+01 5.99855698380669e-02
1.88107142857143e-02 2.02511648504938e+01 6.20169214275195e-02
2.04464285714286e-02 2.00031126838629e+01 6.38721066191170e-02
2.20821428571429e-02 1.97580988547748e+01 6.55704138403096e-02
2.37178571428571e-02 1.95160861473087e+01 6.71277989011704e-02
2.53535714285714e-02 1.92770378013780e+01 6.85576682267073e-02
2.69892857142857e-02 1.90409175071733e+01 6.98714368178369e-02
2.86250000000000e-02 1.88076893996329e+01 7.10789358837302e-02
3.02607142857143e-02 1.85773180536268e+01 7.21887173875569e-02
3.18964285714286e-02 1.83497684766417e+01 7.32082856721855e-02
3.35321428571429e-02 1.81250061054463e+01 7.41442767043697e-02
3.51678571428571e-02 1.79029968001656e+01 7.50025990352860e-02
3.68035714285714e-02 1.76837068390901e+01 7.57885458573284e-02
3.84392857142857e-02 1.74671029135652e+01 7.65068852851120e-02
4.00750000000000e-02 1.72531521229257e+01 7.71619338220305e-02
4.17107142857143e-02 1.70418219699143e+01 7.77576168610394e-02
4.33464285714286e-02 1.68330803544759e+01 7.82975187302885e-02
4.49821428571429e-02 1.66268955701757e+01 7.87849245295204e-02
4.66178571428571e-02 1.64232362989437e+01 7.92228555126094e-02
4.82535714285714e-02 1.62220716063152e+01 7.96140989940842e-02
4.98892857142857e-02 1.60233709367374e+01 7.99612339066402e-02
5.15250000000000e-02 1.58271041089255e+01 8.02666527269483e-02
5.31607142857143e-02 1.56332413115759e+01 8.05325804992008e-02
5.47964285714286e-02 1.54417530979312e+01 8.07610912396392e-02
5.64321428571429e-02 1.52526103822292e+01 8.09541222391626e-02
5.80678571428571e-02 1.50657844349729e+01 8.11134867095154e-02
5.97035714285714e-02 1.48812468785648e+01 8.12408848222527e-02
6.13392857142857e-02 1.46989696830000e+01 8.13379134832688e-02
6.29750000000000e-02 1.45189251616068e+01 8.14060749821514e-02
6.46107142857143e-02 1.43410859670654e+01 8.14467847647874e-02
6.62464285714286e-02 1.41654250865722e+01 8.14613782832412e-02
6.78821428571429e-02 1.39919158384288e+01 8.14511171279946e-02
6.95178571428571e-02 1.38205318677551e+01 8.14171946343773e-02
7.11535714285714e-02 1.36512471424850e+01 8.13607408600675e-02
7.27892857142857e-02 1.34840359494147e+01 8.12828271017424e-02
7.44250000000000e-02 1.33188728902955e+01 8.11844699714264e-02
7.60607142857143e-02 1.31557328781505e+01 8.10666351624344e-02
7.76964285714286e-02 1.29945911329345e+01 8.09302408005783e-02
7.93321428571429e-02 1.28354231783069e+01 8.07761604989305e-02
8.09678571428571e-02 1.26782048377324e+01 8.06052262331782e-02
8.26035714285714e-02 1.25229122308082e+01 8.04182309126202e-02
8.42392857142857e-02 1.23695217696380e+01 8.02159307569430e-02
8.58750000000000e-02 1.22180101552485e+01 7.99990474692596e-02
8.75107142857143e-02 1.20683543741888e+01 7.97682702933074e-02
8.91464285714286e-02 1.19205316946143e+01 7.95242578462230e-02
9.07821428571429e-02 1.17745196632599e+01 7.92676398109551e-02
9.24178571428571e-02 1.16302961018858e+01 7.89990185742831e-02
9.40535714285714e-02 1.14878391039080e+01 7.87189706914078e-02
9.56892857142857e-02 1.13471270310722e+01 7.84280482606316e-02
9.73250000000000e-02 1.12081385101662e+01 7.81267801908253e-02
9.89607142857143e-02 1.10708524298859e+01 7.78156734294486e-02
1.00596428571429e-01 1.09352479372877e+01 7.74952140851501e-02
1.02232142857143e-01 1.08013044346457e+01 7.71658683037644e-02
1.03867857142857e-01 1.06690015774929e+01 7.68280834188265e-02
1.05503571428571e-01 1.05383192698917e+01 7.64822890258543e-02
1.07139285714286e-01 1.04092376610934e+01 7.61288973304178e-02
1.08775000000000e-01 1.02817371454702e+01 7.57683042450974e-02
1.10410714285714e-01 1.01557983565335e+01 7.54008903650463e-02
1.12046428571429e-01 1.00314021650116e+01 7.50270214343700e-02
1.13682142857143e-01 9.90852967507966e+00 7.46470488300603e-02
1.15317857142857e-01 9.78716222412706e+00 7.42613103939947e-02
1.16953571428571e-01 9.66728137723662e+00 7.38701313239348e-02
1.18589285714286e-01 9.54886892449899e+00 7.34738241380061e-02
1.20225000000000e-01 9.43190688068710e+00 7.30726895028932e-02
1.21860714285714e-01 9.31637748003949e+00 7.26670169291565e-02
1.23496428571429e-01 9.20226317440457e+00 7.22570850350514e-02
1.25132142857143e-01 9.08954662985446e+00 7.18431618355309e-02
1.26767857142857e-01 8.97821072624862e+00 7.14255053456602e-02
1.28403571428571e-01 8.86823855239861e+00 7.10043642458811e-02
1.30039285714286e-01 8.75961340359017e+00 7.05799777450652e-02
1.31675000000000e-01 8.65231878108575e+00 7.01525762064265e-02
1.33310714285714e-01 8.54633838754332e+00 6.97223816651878e-02
1.34946428571429e-01 8.44165612524412e+00 6.92896079749504e-02
1.36582142857143e-01 8.33825609304184e+00 6.88544609812532e-02
1.38217857142857e-01 8.23612258579226e+00 6.84171389766570e-02
1.39853571428571e-01 8.13524009009209e+00 6.79778332159304e-02
1.41489285714286e-01 8.03559328199567e+00 6.75367277311368e-02
1.43125000000000e-01 7.93716702640593e+00 6.70939998207976e-02
1.44760714285714e-01 7.83994637302846e+00 6.66498204486112e-02
1.46396428571429e-01 7.74391655469228e+00 6.62043543194818e-02
1.48032142857143e-01 7.64906298459413e+00 6.57577599822251e-02
1.49667857142857e-01 7.55537125564358e+00 6.53101901834399e-02
1.51303571428571e-01 7.46282713668896e+00 6.48617922778296e-02
1.52939285714286e-01 7.37141657041528e+00 6.44127080240395e-02
1.54575000000000e-01 7.28112567266668e+00 6.39630739769277e-02
1.56210714285714e-01 7.19194072885665e+00 6.35130218029670e-02
1.57846428571429e-01 7.10384819238607e+00 6.30626783132168e-02
1.59482142857143e-01 7.01683468214905e+00 6.26121655213783e-02
1.61117857142857e-01 6.93088698182879e+00 6.21616009256994e-02
1.62753571428571e-01 6.84599203654120e+00 6.17110978429324e-02
1.64389285714286e-01 6.76213695090101e+00 6.12607652006303e-02
1.66025000000000e-01 6.67930898830636e+00 6.08107078580886e-02
1.67660714285714e-01 6.59749556774176e+00 6.03610268611402e-02
1.69296428571429e-01 6.51668426229414e+00 5.99118194484737e-02
1.70932142857143e-01 6.43686279689170e+00 5.94631790810527e-02
1.72567857142857e-01 6.35801904757587e+00 5.90151956710203e-02
1.74203571428571e-01 6.28014103850631e+00 5.85679558581537e-02
1.75839285714286e-01 6.20321694018247e+00 5.81215428072231e-02
1.77475000000000e-01 6.12723506871267e+00 5.76760364747127e-02
1.79110714285714e-01 6.05218388295766e+00 5.72315138181285e-02
1.80746428571429e-01 5.97805198314333e+00 5.67880487858357e-02
1.82382142857143e-01 5.90482810880798e+00 5.63457123279109e-02
1.84017857142857e-01 5.83250113806865e+00 5.59045725848879e-02
1.85653571428571e-01 5.76106008494087e+00 5.54646951196764e-02
1.87289285714286e-01 5.69049409770393e+00 5.50261427245617e-02
1.88925000000000e-01 5.62079245817020e+00 5.45889756456426e-02
1.90560714285714e-01 5.55194457912625e+00 5.41532517570821e-02
1.92196428571429e-01 5.48394000303931e+00 5.37190265409135e-02
1.93832142857143e-01 5.41676840019158e+00 5.32863530858300e-02
1.95467857142857e-01 5.35041956795412e+00 5.28552822447497e-02
1.97103571428571e-01 5.28488342838228e+00 5.24258628314667e-02
1.98739285714286e-01 5.22015002671362e+00 5.19981414395321e-02
2.00375000000000e-01 5.15620953064880e+00 5.15721626329967e-02
2.02010714285714e-01 5.09305222805397e+00 5.11479690930749e-02
2.03646428571429e-01 5.03066852575725e+00 5.07256015920609e-02
2.05282142857143e-01 4.96904894785145e+00 5.03050989843350e-02
2.06917857142857e-01 4.90818413498460e+00 4.98864983392406e-02
2.08553571428571e-01 4.84806484219836e+00 4.94698351092680e-02
2.10189285714286e-01 4.78868193754805e+00 4.90551429617085e-02
2.11825000000000e-01 4.73002640140313e+00 4.86424539420818e-02
2.13460714285714e-01 4.67208932438012e+00 4.82317985986693e-02
2.15096428571429e-01 4.61486190622478e+00 4.78232059532552e-02
2.16732142857143e-01 4.55833545426674e+00 4.74167034872268e-02
2.18367857142857e-01 4.50250138273314e+00 4.70123172545503e-02
2.20003571428571e-01 4.44735121080195e+00 4.66100720266177e-02
2.21639285714286e-01 4.39287656133438e+00 4.62099911367992e-02
2.23275000000000e-01 4.33906916020049e+00 4.58120966213768e-02
2.24910714285714e-01 4.28592083441632e+00 4.54164093260679e-02
2.26546428571429e-01 4.23342351110710e+00 4.50229488753716e-02
2.28182142857143e-01 4.18156921609928e+00 4.46317336556969e-02
2.29817857142857e-01 4.13035007326155e+00 4.42427809120847e-02
2.31453571428571e-01 4.07975830274892e+00 4.38561068736724e-02
2.33089285714286e-01 4.02978621983861e+00 4.34717266107895e-02
2.34725000000000e-01 3.98042623428433e+00 4.30896541571671e-02
2.36360714285714e-01 3.93167084863497e+00 4.27099026016075e-02
2.37996428571429e-01 3.88351265727414e+00 4.23324840570997e-02
2.39632142857143e-01 3.83594434513651e+00 4.19574096423006e-02
2.41267857142857e-01 3.78895868707908e+00 4.15846895648112e-02
2.42903571428571e-01 3.74254854629504e+00 4.12143332303841e-02
2.44539285714286e-01 3.69670687324490e+00 4.08463491119541e-02
2.46175000000000e-01 3.65142670504163e+00 4.04807448560951e-02
2.47810714285714e-01 3.60670116393116e+00 4.01175273623089e-02
2.49446428571429e-01 3.56252345640367e+00 3.97567027526652e-02
2.51082142857143e-01 3.51888687202254e+00 3.93982763525492e-02
2.52717857142857e-01 3.47578478282740e+00 3.90422527627027e-02
2.54353571428571e-01 3.43321064189972e+00 3.86886359546565e-02
2.55989285714286e-01 3.39115798238138e+00 3.83374291509760e-02
2.57625000000000e-01 3.34962041689188e+00 3.79886349183476e-02
2.59260714285714e-01 3.30859163615356e+00 3.76422552364554e-02
2.60896428571429e-01 3.26806540816982e+00 3.72982914686355e-02
2.62532142857143e-01 3.22803557715648e+00 3.69567443424893e-02
2.64167857142857e-01 3.18849606297718e+00 3.66176140124705e-02
2.65803571428571e-01 3.14944085984479e+00 3.62809001435677e-02
2.67439285714286e-01 3.11086403542041e+00 3.59466018019710e-02
2.69075000000000e-01 3.07275973026297e+00 3.56147175367350e-02
2.70710714285714e-01 3.03512215658416e+00 3.52852454398299e-02
2.72346428571429e-01 2.99794559748906e+00 3.49581831181039e-02
2.73982142857143e-01 2.96122440600059e+00 3.46335276741850e-02
2.75617857142857e-01 2.92495300452729e+00 3.43112757610445e-02
2.77253571428571e-01 2.88912588368654e+00 3.39914236555883e-02
2.78889285714286e-01 2.85373760147748e+00 3.36739671589472e-02
2.80525000000000e-01 2.81878278276283e+00 3.33589016683259e-02
2.82160714285714e-01 2.78425611814023e+00 3.30462222295193e-02
2.83796428571429e-01 2.75015236324106e+00 3.27359235103522e-02
2.85432142857143e-01 2.71646633783947e+00 3.24279997821518e-02
2.87067857142857e-01 2.68319292535212e+00 3.21224449674508e-02
2.88703571428571e-01 2.65032707177089e+00 3.18192527048711e-02
2.90339285714286e-01 2.61786378490370e+00 3.15184162582689e-02
2.91975000000000e-01 2.58579813388796e+00 3.12199285800948e-02
2.93610714285714e-01 2.55412524816655e+00 3.09237823574460e-02
2.95246428571429e-01 2.52284031684080e+00 3.06299699870695e-02
2.96882142857143e-01 2.49193858785643e+00 3.03384835575781e-02
2.98517857142857e-01 2.46141536753453e+00 3.00493148912652e-02
3.00153571428571e-01 2.43126601960278e+00 2.97624556014398e-02
3.01789285714286e-01 2.40148596449868e+00 2.94778970096793e-02
3.03425000000000e-01 2.37207067891365e+00 2.91956302018252e-02
3.05060714285714e-01 2.34301569486334e+00 2.89156460684665e-02
3.06696428571429e-01 2.31431659909083e+00 2.86379352815177e-02
3.08332142857143e-01 2.28596903232267e+00 2.83624882772922e-02
3.09967857142857e-01 2.25796868882999e+00 2.80892952932451e-02
3.11603571428571e-01 2.23031131554862e+00 2.78183464187206e-02
3.13239285714286e-01 2.20299271143947e+00 2.75496315196260e-02
3.14875000000000e-01 2.17600872706238e+00 2.72831402880131e-02
3.16510714285714e-01 2.14935526373138e+00 2.70188622777316e-02
3.18146428571429e-01 2.12302827296444e+00 2.67567868825732e-02
3.19782142857143e-01 2.09702375580349e+00 2.64969033202561e-02
3.21417857142857e-01 2.07133776240439e+00 2.62392006647715e-02
3.23053571428571e-01 2.04596639123724e+00 2.59836678913870e-02
3.24689285714286e-01 2.02090578849942e+00 2.57302938080854e-02
3.26325000000000e-01 1.99615214771769e+00 2.54790670995334e-02
3.27960714285714e-01 1.97170170898034e+00 2.52299763585461e-02
3.29596428571429e-01 1.94755075843003e+00 2.49830100657488e-02
3.31232142857143e-01 1.92369562764205e+00 2.47381565744996e-02
3.32867857142857e-01 1.90013269324193e+00 2.44954041394130e-02
3.34503571428571e-01 1.87685837617821e+00 2.42547409563254e-02
3.36139285714286e-01 1.85386914118379e+00 2.40161550999058e-02
3.37775000000000e-01 1.83116149640500e+00 2.37796345627036e-02
3.39410714285714e-01 1.80873199270322e+00 2.35451672829577e-02
3.41046428571429e-01 1.78657722318758e+00 2.33127411257165e-02
3.42682142857143e-01 1.76469382264641e+00 2.30823438686939e-02
3.44317857142857e-01 1.74307846719109e+00 2.28539632274665e-02
3.45953571428571e-01 1.72172787359437e+00 2.26275868910101e-02
3.47589285714286e-01 1.70063879879600e+00 2.24032024649297e-02
3.49225000000000e-01 1.67980803955752e+00 2.21807975061827e-02
3.50860714285714e-01 1.65923243182662e+00 2.19603595476894e-02
3.52496428571429e-01 1.63890885030681e+00 2.17418760808409e-02
3.54132142857143e-01 1.61883420793733e+00 2.15253345422766e-02
3.55767857142857e-01 1.59900545556185e+00 2.13107223361671e-02
3.57403571428571e-01 1.57941958132615e+00 2.10980268658524e-02
3.59039285714286e-01 1.56007361022446e+00 2.08872354821836e-02
3.60675000000000e-01 1.54096460377843e+00 2.06783355144384e-02
3.62310714285714e-01 1.52208965945847e+00 2.04713142921288e-02
3.63946428571429e-01 1.50344591028744e+00 2.02661591288174e-02
3.65582142857143e-01 1.48503052436491e+00 2.00628573097872e-02
3.67217857142857e-01 1.46684070455922e+00 1.98613961117724e-02
3.68853571428571e-01 1.44887368795903e+00 1.96617628311556e-02
3.70489285714286e-01 1.43112674545697e+00 1.94639447369601e-02
3.72125000000000e-01 1.41359718145145e+00 1.92679290984013e-02
3.73760714285714e-01 1.39628233331958e+00 1.90737032042331e-02
3.75396428571429e-01 1.37917957105237e+00 1.88812543477967e-02
3.77032142857143e-01 1.36228629681940e+00 1.86905698155426e-02
3.78667857142857e-01 1.34559994468297e+00 1.85016369045224e-02
3.80303571428571e-01 1.32911798009838e+00 1.83144429475410e-02
3.81939285714286e-01 1.31283789953192e+00 1.81289752703796e-02
3.83575000000000e-01 1.29675723018411e+00 1.79452212163731e-02
3.85210714285714e-01 1.28087352950942e+00 1.77631681635890e-02
3.86846428571429e-01 1.26518438488058e+00 1.75828035110269e-02
3.88482142857143e-01 1.24968741319011e+00 1.74041146679558e-02
3.90117857142857e-01 1.23438026058523e+00 1.72270890694337e-02
3.91753571428571e-01 1.21926060201238e+00 1.70517141987646e-02
3.93389285714286e-01 1.20432614086675e+00 1.68779775485665e-02
3.95025000000000e-01 1.18957460873552e+00 1.67058666427142e-02
3.96660714285714e-01 1.17500376496021e+00 1.65353690516081e-02
3.98296428571429e-01 1.16061139632767e+00 1.63664723794475e-02
3.99932142857143e-01 1.14639531670547e+00 1.61991642543372e-02
4.01567857142857e-01 1.13235336679615e+00 1.60334323420707e-02
4.03203571428571e-01 1.11848341372193e+00 1.58692643661960e-02
4.04839285714286e-01 1.10478335070318e+00 1.57066480725789e-02
4.06475000000000e-01 1.09125109682046e+00 1.55455712490100e-02
4.08110714285714e-01 1.07788459661545e+00 1.53860217387854e-02
4.09746428571429e-01 1.06468181980671e+00 1.52279874289790e-02
4.11382142857143e-01 1.05164076095590e+00 1.50714562412740e-02
4.13017857142857e-01 1.03875943924011e+00 1.49164161442133e-02
4.14653571428571e-01 1.02603589807324e+00 1.47628551711412e-02
4.16289285714286e-01 1.01346820481080e+00 1.46107613879458e-02
4.17925000000000e-01 1.00105445052972e+00 1.44601229105882e-02
4.19560714285714e-01 9.88792749664245e-01 1.43109279171942e-02
4.21196428571429e-01 9.76681239744525e-01 1.41631646372512e-02
4.22832142857143e-01 9.64718081091069e-01 1.40168213431204e-02
4.24467857142857e-01 9.52901456603945e-01 1.38718863609329e-02
4.26103571428571e-01 9.41229571417394e-01 1.37283480866426e-02
4.27739285714286e-01 9.29700652629019e-01 1.35861949566584e-02
4.29375000000000e-01 9.18312949095915e-01 1.34454154635274e-02
4.31010714285714e-01 9.07064731102550e-01 1.33059981667038e-02
4.32646428571429e-01 8.95954290120308e-01 1.31679316826061e-02
4.34282142857143e-01 8.84979938527762e-01 1.30312046767661e-02
4.35917857142857e-01 8.74140009415629e-01 1.28958058735251e-02
4.37553571428571e-01 8.63432856271613e-01 1.27617240704070e-02
4.39189285714286e-01 8.52856852731934e-01 1.26289481113755e-02
4.40825000000000e-01 8.42410392392731e-01 1.24974669008755e-02
4.42460714285714e-01 8.32091888506986e-01 1.23672694134307e-02
4.44096428571429e-01 8.21899773763410e-01 1.22383446844942e-02
4.45732142857143e-01 8.11832500030305e-01 1.21106818031922e-02
4.47367857142857e-01 8.01888538175198e-01 1.19842699209594e-02
4.49003571428571e-01 7.92066377777200e-01 1.18590982644120e-02
4.50639285714286e-01 7.82364526899024e-01 1.17351561109940e-02
4.52275000000000e-01 7.72781511912610e-01 1.16124328015552e-02
4.53910714285714e-01 7.63315877222485e-01 1.14909177489087e-02
4.55546428571429e-01 7.53966185062458e-01 1.13706004294150e-02
4.57182142857143e-01 7.44731015261066e-01 1.12514703762802e-02
4.58817857142857e-01 7.35608965074857e-01 1.11335171872488e-02
4.60453571428571e-01 7.26598648925803e-01 1.10167305361416e-02
4.62089285714286e-01 7.17698698192114e-01 1.09011001506735e-02
4.63725000000000e-01 7.08907761047095e-01 1.07866158237238e-02
4.65360714285714e-01 7.00224502206572e-01 1.06732674209727e-02
4.66996428571429e-01 6.91647602741985e-01 1.05610448731630e-02
4.68632142857143e-01 6.83175759865583e-01 1.04499381699119e-02
4.70267857142857e-01 6.74807686776388e-01 1.03399373665674e-02
4.71903571428571e-01 6.66542112420423e-01 1.02310325945548e-02
4.73539285714286e-01 6.58377781298787e-01 1.01232140411687e-02
4.75175000000000e-01 6.50313453318787e-01 1.00164719596793e-02
4.76810714285714e-01 6.42347903563296e-01 9.91079667614671e-03
4.78446428571429e-01 6.34479922118937e-01 9.80617858230708e-03
4.80082142857143e-01 6.26708313879350e-01 9.70260812986322e-03
4.81717857142857e-01 6.19031898402929e-01 9.60007583659897e-03
4.83353571428571e-01 6.11449509693837e-01 9.49857229565916e-03
4.84989285714286e-01 6.03959996025919e-01 9.39808815713886e-03
4.86625000000000e-01 5.96562219805227e-01 9.29861413714727e-03
4.88260714285714e-01 5.89255057359364e-01 9.20014102389364e-03
4.89896428571429e-01 5.82037398779555e-01 9.10265967114868e-03
4.91532142857143e-01 5.74908147740460e-01 9.00616099297779e-03
4.93167857142857e-01 5.67866221368816e-01 8.91063596919548e-03
4.94803571428571e-01 5.60910550043418e-01 8.81607565369334e-03
4.96439285714286e-01 5.54040077233547e-01 8.72247115766324e-03
4.98075000000000e-01 5.47253759372074e-01 8.62981365773085e-03
4.99710714285714e-01 5.40550565663011e-01 8.53809440139141e-03
5.01346428571429e-01 5.33929477936376e-01 8.44730470100099e-03
5.02982142857143e-01 5.27389490483125e-01 8.35743592892143e-03
5.04617857142857e-01 5.20929609933932e-01 8.26847952238638e-03
5.06253571428571e-01 5.14548855076437e-01 8.18042699097819e-03
5.07889285714286e-01 5.08246256707012e-01 8.09326990133804e-03
5.09525000000000e-01 5.02020857513650e-01 8.00699988446589e-03
5.11160714285714e-01 4.95871711900138e-01 7.92160864057883e-03
5.12796428571429e-01 4.89797885852669e-01 7.83708793358971e-03
5.14432142857143e-01 4.83798456788642e-01 7.75342958663167e-03
5.16067857142857e-01 4.77872513444804e-01 7.67062548640253e-03
