Energy (eV)          EEDF (eV^-(3/2))     First Anisotropy
1.30500000000000e-01 5.32698787707436e-02 6.22774069116211e-05
3.91500000000000e-01 5.14635750193806e-02 1.01435167014844e-04
6.52500000000000e-01 4.97185203888613e-02 1.30241051193130e-04
9.13500000000000e-01 4.80326380109954e-02 1.50012966341010e-04
1.17450000000000e+00 4.64039214411577e-02 1.64837509429515e-04
1.43550000000000e+00 4.48304322703285e-02 1.76328107249636e-04
1.69650000000000e+00 4.33102978181054e-02 1.85353317801628e-04
1.95750000000000e+00 4.18417089039423e-02 1.92457022157031e-04
2.21850000000000e+00 4.04229176939617e-02 1.98012140706325e-04
2.47950000000000e+00 3.90522356207791e-02 2.02290355148494e-04
2.74050000000000e+00 3.77280313738624e-02 2.05498345743332e-04
3.00150000000000e+00 3.64487289580362e-02 2.07798503893975e-04
3.26250000000000e+00 3.52128058178187e-02 2.09321637697148e-04
3.52350000000000e+00 3.40187910253596e-02 2.10175204856425e-04
3.78450000000000e+00 3.28652635298227e-02 2.10448886778879e-04
4.04550000000000e+00 3.17508504661293e-02 2.10218500917361e-04
4.30650000000000e+00 3.06742255210495e-02 2.09548830749457e-04
4.56750000000000e+00 2.96341073546968e-02 2.08495725899776e-04
4.82850000000000e+00 2.86292580755484e-02 2.07107695332156e-04
5.08950000000000e+00 2.76584817671737e-02 2.05427139332173e-04
5.35050000000000e+00 2.67206230649213e-02 2.03491318300013e-04
5.61150000000000e+00 2.58145657808665e-02 2.01333125961065e-04
5.87250000000000e+00 2.49392315753864e-02 1.98981714668724e-04
6.13350000000000e+00 2.40935786737790e-02 1.96463007086938e-04
6.39450000000000e+00 2.32766006264002e-02 1.93800119351776e-04
6.65550000000000e+00 2.24873251108427e-02 1.91013714380440e-04
6.91650000000000e+00 2.17248127747312e-02 1.88122299415280e-04
7.17750000000000e+00 2.09881561177571e-02 1.85142478574598e-04
7.43850000000000e+00 2.02764784116209e-02 1.82089168746714e-04
7.69950000000000e+00 1.95889326565989e-02 1.78975785351070e-04
7.96050000000000e+00 1.89247005734904e-02 1.75814403124115e-04
8.22150000000000e+00 1.82829916297466e-02 1.72615896046587e-04
8.48250000000000e+00 1.76630420986224e-02 1.69390059726864e-04
8.74350000000000e+00 1.70641141502306e-02 1.66145718931337e-04
9.00450000000000e+00 1.64854949734175e-02 1.62890822463127e-04
9.26550000000000e+00 1.59264959274139e-02 1.59632527202869e-04
9.52650000000000e+00 1.53864517222529e-02 1.56377272816038e-04
9.78750000000000e+00 1.48647196269783e-02 1.53130848382545e-04
1.00485000000000e+01 1.43606787047014e-02 1.49898452003095e-04
1.03095000000000e+01 1.38737290735962e-02 1.46684744272560e-04
1.05705000000000e+01 1.34032911929527e-02 1.43493896376134e-04
1.08315000000000e+01 1.29488051734398e-02 1.40329633452909e-04
1.10925000000000e+01 1.25097301107552e-02 1.37195273779407e-04
1.13535000000000e+01 1.20855434418714e-02 1.34093764248704e-04
1.16145000000000e+01 1.16757403231095e-02 1.31027712556354e-04
1.18755000000000e+01 1.12798330293019e-02 1.27999416450037e-04
1.21365000000000e+01 1.08973503733291e-02 1.25010890353881e-04
1.23975000000000e+01 1.05278371453380e-02 1.22063889639393e-04
1.26585000000000e+01 1.01708535709767e-02 1.19159932781547e-04
1.29195000000000e+01 9.82597478799896e-03 1.16300321610058e-04
1.31805000000000e+01 9.49279034061635e-03 1.13486159841243e-04
1.34415000000000e+01 9.17090369099659e-03 1.10718370054691e-04
1.37025000000000e+01 8.85993174732583e-03 1.07997709260552e-04
1.39635000000000e+01 8.55950440787389e-03 1.05324783187290e-04
1.42245000000000e+01 8.26926412051944e-03 1.02700059405793e-04
1.44855000000000e+01 7.98886545721113e-03 1.00123879393541e-04
1.47465000000000e+01 7.71797470285810e-03 9.75964696318698e-05
1.50075000000000e+01 7.45626945816061e-03 9.51179518198942e-05
1.52685000000000e+01 7.20343825590806e-03 9.26883522804040e-05
1.55295000000000e+01 6.95918019028786e-03 9.03076106256871e-05
1.57905000000000e+01 6.72320455876385e-03 8.79755877447186e-05
1.60515000000000e+01 6.49523051609810e-03 8.56920731673625e-05
1.63125000000000e+01 6.27498674010430e-03 8.34567918560906e-05
1.65735000000000e+01 6.06221110873505e-03 8.12694104711102e-05
1.68345000000000e+01 5.85665038811856e-03 7.91295431506715e-05
1.70955000000000e+01 5.65805993117360e-03 7.70367568446398e-05
1.73565000000000e+01 5.46620338644399e-03 7.49905762360943e-05
1.76175000000000e+01 5.28085241680608e-03 7.29904882827293e-05
1.78785000000000e+01 5.10178642771443e-03 7.10359464071455e-05
1.81395000000000e+01 4.92879230466232e-03 6.91263743626809e-05
1.84005000000000e+01 4.76166415954452e-03 6.72611697992373e-05
1.86615000000000e+01 4.60020308562063e-03 6.54397075515568e-05
1.89225000000000e+01 4.44421692078717e-03 6.36613426705993e-05
1.91835000000000e+01 4.29352001887679e-03 6.19254132170243e-05
1.94445000000000e+01 4.14793302871244e-03 6.02312428342842e-05
1.97055000000000e+01 4.00728268065338e-03 5.85781431174669e-05
1.99665000000000e+01 3.87140158037924e-03 5.69654157927837e-05
2.02275000000000e+01 3.74012800966642e-03 5.53923547214619e-05
2.04885000000000e+01 3.61330573392001e-03 5.38582477407532e-05
2.07495000000000e+01 3.49078381623191e-03 5.23623783538208e-05
2.10105000000000e+01 3.37241643774404e-03 5.09040272793873e-05
2.12715000000000e+01 3.25806272410271e-03 4.94824738712279e-05
2.15325000000000e+01 3.14758657779773e-03 4.80969974168462e-05
2.17935000000000e+01 3.04085651618661e-03 4.67468783240046e-05
2.20545000000000e+01 2.93774551501115e-03 4.54313992031392e-05
2.23155000000000e+01 2.83813085722013e-03 4.41498458531227e-05
2.25765000000000e+01 2.74189398691823e-03 4.29015081573058e-05
2.28375000000000e+01 2.64892036826730e-03 4.16856808962708e-05
2.30985000000000e+01 2.55909934917211e-03 4.05016644832884e-05
2.33595000000000e+01 2.47232402958830e-03 3.93487656280335e-05
2.36205000000000e+01 2.38849113429579e-03 3.82262979337427e-05
2.38815000000000e+01 2.30750088998633e-03 3.71335824326269e-05
2.41425000000000e+01 2.22925690651876e-03 3.60699480640206e-05
2.44035000000000e+01 2.15366606220075e-03 3.50347320994461e-05
2.46645000000000e+01 2.08063839296049e-03 3.40272805184751e-05
2.49255000000000e+01 2.01008698527642e-03 3.30469483390126e-05
2.51865000000000e+01 1.94192787273745e-03 3.20930999053733e-05
2.54475000000000e+01 1.87607993611083e-03 3.11651091372967e-05
2.57085000000000e+01 1.81246480679845e-03 3.02623597428296e-05
2.59695000000000e+01 1.75100677356687e-03 2.93842453978093e-05
2.62305000000000e+01 1.69163269243991e-03 2.85301698944888e-05
2.64915000000000e+01 1.63427189964678e-03 2.76995472616839e-05
2.67525000000000e+01 1.57885612752188e-03 2.68918018586507e-05
2.70135000000000e+01 1.52531942325641e-03 2.61063684447585e-05
2.72745000000000e+01 1.47359807040495e-03 2.53426922268836e-05
2.75355000000000e+01 1.42363051305363e-03 2.46002288863150e-05
2.77965000000000e+01 1.37535728255968e-03 2.38784445868456e-05
2.80575000000000e+01 1.32872092677511e-03 2.31768159656088e-05
2.83185000000000e+01 1.28366594167033e-03 2.24948301081148e-05
2.85795000000000e+01 1.24013870527627e-03 2.18319845088387e-05
2.88405000000000e+01 1.19808741386649e-03 2.11877870186252e-05
2.91015000000000e+01 1.15746202030322e-03 2.05617557800843e-05
2.93625000000000e+01 1.11821417447401e-03 1.99534191520754e-05
2.96235000000000e+01 1.08029716574806e-03 1.93623156243008e-05
2.98845000000000e+01 1.04366586738381e-03 1.87879937229565e-05
3.01455000000000e+01 1.00827668282158e-03 1.82300119083281e-05
3.04065000000000e+01 9.74087493797298e-04 1.76879384651525e-05
3.06675000000000e+01 9.41057610215716e-04 1.71613513865111e-05
3.09285000000000e+01 9.09147721723240e-04 1.66498382519683e-05
3.11895000000000e+01 8.78319850922932e-04 1.61529961006148e-05
3.14505000000000e+01 8.48537308175890e-04 1.56704312996316e-05
3.17115000000000e+01 8.19764647935257e-04 1.52017594089439e-05
3.19725000000000e+01 7.91967626560879e-04 1.47466050424961e-05
3.22335000000000e+01 7.65113161564400e-04 1.43046017266374e-05
3.24945000000000e+01 7.39169292236305e-04 1.38753917560729e-05
3.27555000000000e+01 7.14105141608038e-04 1.34586260478020e-05
3.30165000000000e+01 6.89890879703931e-04 1.30539639934338e-05
3.32775000000000e+01 6.66497688039202e-04 1.26610733102396e-05
3.35385000000000e+01 6.43897725321777e-04 1.22796298912742e-05
3.37995000000000e+01 6.22064094317117e-04 1.19093176548734e-05
3.40605000000000e+01 6.00970809836604e-04 1.15498283938119e-05
3.43215000000000e+01 5.80592767811394e-04 1.12008616243788e-05
3.45825000000000e+01 5.60905715414939e-04 1.08621244356126e-05
3.48435000000000e+01 5.41886222198599e-04 1.05333313389132e-05
3.51045000000000e+01 5.23511652206011e-04 1.02142041182326e-05
3.53655000000000e+01 5.05760137033017e-04 9.90447168102842e-06
3.56265000000000e+01 4.88610549801091e-04 9.60386991014714e-06
3.58875000000000e+01 4.72042480013284e-04 9.31214151679018e-06
3.61485000000000e+01 4.56036209262779e-04 9.02903589470170e-06
3.64095000000000e+01 4.40572687765120e-04 8.75430897570351e-06
3.66705000000000e+01 4.25633511686205e-04 8.48772308669026e-06
3.69315000000000e+01 4.11200901239057e-04 8.22904680818764e-06
3.71925000000000e+01 3.97257679523294e-04 7.97805483456429e-06
3.74535000000000e+01 3.83787252082127e-04 7.73452783597969e-06
3.77145000000000e+01 3.70773587152552e-04 7.49825232214006e-06
3.79755000000000e+01 3.58201196585219e-04 7.26902050792592e-06
3.82365000000000e+01 3.46055117411293e-04 7.04663018094758e-06
3.84975000000000e+01 3.34320894034348e-04 6.83088457107679e-06
3.87585000000000e+01 3.22984561026111e-04 6.62159222199632e-06
3.90195000000000e+01 3.12032626505575e-04 6.41856686480221e-06
3.92805000000000e+01 3.01452056081704e-04 6.22162729368849e-06
3.95415000000000e+01 2.91230257340616e-04 6.03059724373811e-06
3.98025000000000e+01 2.81355064858783e-04 5.84530527083820e-06
4.00635000000000e+01 2.71814725724413e-04 5.66558463373428e-06
4.03245000000000e+01 2.62597885549782e-04 5.49127317823298e-06
4.05855000000000e+01 2.53693574957859e-04 5.32221322355857e-06
4.08465000000000e+01 2.45091196527162e-04 5.15825145086538e-06
4.11075000000000e+01 2.36780512179287e-04 4.99923879390479e-06
4.13685000000000e+01 2.28751630994106e-04 4.84503033184202e-06
4.16295000000000e+01 2.20994997438143e-04 4.69548518421546e-06
4.18905000000000e+01 2.13501379992097e-04 4.55046640802786e-06
4.21515000000000e+01 2.06261860164001e-04 4.40984089695748e-06
4.24125000000000e+01 1.99267821874916e-04 4.27347928267422e-06
4.26735000000000e+01 1.92510941204550e-04 4.14125583824386e-06
4.29345000000000e+01 1.85983176484587e-04 4.01304838360210e-06
4.31955000000000e+01 1.79676758727933e-04 3.88873819307793e-06
4.34565000000000e+01 1.73584182382491e-04 3.76820990494503e-06
4.37175000000000e+01 1.67698196398474e-04 3.65135143297777e-06
4.39785000000000e+01 1.62011795598593e-04 3.53805387998780e-06
4.42395000000000e+01 1.56518212340888e-04 3.42821145331604e-06
4.45005000000000e+01 1.51210908464248e-04 3.32172138225371e-06
4.47615000000000e+01 1.46083567507052e-04 3.21848383736535e-06
4.50225000000000e+01 1.41130087189663e-04 3.11840185168607e-06
4.52835000000000e+01 1.36344572151829e-04 3.02138124376487e-06
4.55445000000000e+01 1.31721326936351e-04 2.92733054252468e-06
4.58055000000000e+01 1.27254849210660e-04 2.83616091391001e-06
4.60665000000000e+01 1.22939823218247e-04 2.74778608929256e-06
4.63275000000000e+01 1.18771113452137e-04 2.66212229560449e-06
4.65885000000000e+01 1.14743758542892e-04 2.57908818716919e-06
4.68495000000000e+01 1.10852965353863e-04 2.49860477919938e-06
4.71105000000000e+01 1.07094103276661e-04 2.42059538293144e-06
4.73715000000000e+01 1.03462698720062e-04 2.34498554236590e-06
4.76325000000000e+01 9.99544297857816e-05 2.27170297258326e-06
4.78935000000000e+01 9.65651211247931e-05 2.20067749960465e-06
4.81545000000000e+01 9.32907389680534e-05 2.13184100176681e-06
4.84155000000000e+01 9.01273863257334e-05 2.06512735258111e-06
4.86765000000000e+01 8.70712983492352e-05 2.00047236504641e-06
4.89375000000000e+01 8.41188378504754e-05 1.93781373738573e-06
4.91985000000000e+01 8.12664909731041e-05 1.87709100017693e-06
4.94595000000000e+01 7.85108630105056e-05 1.81824546484805e-06
4.97205000000000e+01 7.58486743656054e-05 1.76122017350783e-06
4.99815000000000e+01 7.32767566476734e-05 1.70595985008256e-06
5.02425000000000e+01 7.07920489014797e-05 1.65241085273062e-06
5.05035000000000e+01 6.83915939643135e-05 1.60052112750637e-06
5.07645000000000e+01 6.60725349465307e-05 1.55024016324537e-06
5.10255000000000e+01 6.38321118314403e-05 1.50151894764345e-06
5.12865000000000e+01 6.16676581904846e-05 1.45430992450223e-06
5.15475000000000e+01 5.95765980098019e-05 1.40856695211446e-06
5.18085000000000e+01 5.75564426243967e-05 1.36424526276242e-06
5.20695000000000e+01 5.56047877562669e-05 1.32130142330363e-06
5.23305000000000e+01 5.37193106529645e-05 1.27969329681812e-06
5.25915000000000e+01 5.18977673231827e-05 1.23938000529190e-06
5.28525000000000e+01 5.01379898660814e-05 1.20032189331207e-06
5.31135000000000e+01 4.84378838911701e-05 1.16248049274906e-06
5.33745000000000e+01 4.67954260256793e-05 1.12581848840196e-06
5.36355000000000e+01 4.52086615064539e-05 1.09029968458361e-06
5.38965000000000e+01 4.36757018535009e-05 1.05588897262232e-06
5.41575000000000e+01 4.21947226224245e-05 1.02255229925740e-06
5.44185000000000e+01 4.07639612330725e-05 9.90256635906448e-07
5.46795000000000e+01 3.93817148718101e-05 9.58969948782603e-07
5.49405000000000e+01 3.80463384649247e-05 9.28661169840235e-07
5.52015000000000e+01 3.67562427207498e-05 8.99300168528340e-07
5.54625000000000e+01 3.55098922381766e-05 8.70857724330993e-07
5.57235000000000e+01 3.43058036793047e-05 8.43305500074820e-07
5.59845000000000e+01 3.31425440040544e-05 8.16616015983789e-07
5.62455000000000e+01 3.20187287646410e-05 7.90762624462143e-07
5.65065000000000e+01 3.09330204578814e-05 7.65719485586543e-07
5.67675000000000e+01 2.98841269333710e-05 7.41461543289016e-07
5.70285000000000e+01 2.88707998556373e-05 7.17964502212754e-07
5.72895000000000e+01 2.78918332184398e-05 6.95204805223044e-07
5.75505000000000e+01 2.69460619094472e-05 6.73159611556074e-07
5.78115000000000e+01 2.60323603235850e-05 6.51806775588865e-07
5.80725000000000e+01 2.51496410234019e-05 6.31124826213822e-07
5.83335000000000e+01 2.42968534448619e-05 6.11092946801793e-07
5.85945000000000e+01 2.34729826470200e-05 5.91690955737944e-07
5.88555000000000e+01 2.26770481040960e-05 5.72899287515104e-07
5.91165000000000e+01 2.19081025385058e-05 5.54698974369601e-07
5.93775000000000e+01 2.11652307934644e-05 5.37071628444942e-07
5.96385000000000e+01 2.04475487438159e-05 5.19999424469066e-07
5.98995000000000e+01 1.97542022437965e-05 5.03465082931254e-07
6.01605000000000e+01 1.90843661104774e-05 4.87451853745049e-07
6.04215000000000e+01 1.84372431416771e-05 4.71943500383962e-07
6.06825000000000e+01 1.78120631671751e-05 4.56924284476994e-07
6.09435000000000e+01 1.72080821320977e-05 4.42378950851359e-07
6.12045000000000e+01 1.66245812113850e-05 4.28292713010113e-07
6.14655000000000e+01 1.60608659542842e-05 4.14651239032648e-07
6.17265000000000e+01 1.55162654578530e-05 4.01440637886374e-07
6.19875000000000e+01 1.49901315684875e-05 3.88647446138196e-07
6.22485000000000e+01 1.44818381105255e-05 3.76258615054615e-07
6.25095000000000e+01 1.39907801410065e-05 3.64261498079679e-07
6.27705000000000e+01 1.35163732297017e-05 3.52643838680186e-07
6.30315000000000e+01 1.30580527635577e-05 3.41393758547844e-07
6.32925000000000e+01 1.26152732747244e-05 3.30499746148421e-07
6.35535000000000e+01 1.21875077913696e-05 3.19950645608054e-07
6.38145000000000e+01 1.17742472105061e-05 3.09735645927245e-07
6.40755000000000e+01 1.13749996920848e-05 2.99844270513309e-07
6.43365000000000e+01 1.09892900736341e-05 2.90266367022196e-07
6.45975000000000e+01 1.06166593047476e-05 2.80992097500954e-07
6.48585000000000e+01 1.02566639007474e-05 2.72011928822286e-07
6.51195000000000e+01 9.90887541487284e-06 2.63316623402849e-07
6.53805000000000e+01 9.57287992836701e-06 2.54897230197233e-07
6.56415000000000e+01 9.24827755785323e-06 2.46745075959729e-07
6.59025000000000e+01 8.93468197941578e-06 2.38851756766192e-07
6.61635000000000e+01 8.63171996881843e-06 2.31209129788562e-07
6.64245000000000e+01 8.33903095731346e-06 2.23809305314779e-07
6.66855000000000e+01 8.05626660251250e-06 2.16644639007002e-07
6.69465000000000e+01 7.78309037380861e-06 2.09707724391293e-07
6.72075000000000e+01 7.51917715185595e-06 2.02991385572048e-07
6.74685000000000e+01 7.26421284163067e-06 1.96488670164699e-07
6.77295000000000e+01 7.01789399861222e-06 1.90192842440335e-07
6.79905000000000e+01 6.77992746764032e-06 1.84097376676104e-07
6.82515000000000e+01 6.55003003401786e-06 1.78195950705413e-07
6.85125000000000e+01 6.32792808644425e-06 1.72482439662107e-07
6.87735000000000e+01 6.11335729137831e-06 1.66950909912972e-07
6.90345000000000e+01 5.90606227844299e-06 1.61595613173054e-07
6.92955000000000e+01 5.70579633649759e-06 1.56410980798467e-07
6.95565000000000e+01 5.51232112001570e-06 1.51391618251472e-07
6.98175000000000e+01 5.32540636541943e-06 1.46532299732787e-07
7.00785000000000e+01 5.14482961703237e-06 1.41827962976206e-07
7.03395000000000e+01 4.97037596232503e-06 1.37273704200776e-07
7.06005000000000e+01 4.80183777613777e-06 1.32864773215876e-07
7.08615000000000e+01 4.63901447357674e-06 1.28596568674689e-07
7.11225000000000e+01 4.48171227128875e-06 1.24464633471701e-07
7.13835000000000e+01 4.32974395683093e-06 1.20464650279956e-07
7.16445000000000e+01 4.18292866586083e-06 1.16592437223946e-07
7.19055000000000e+01 4.04109166688157e-06 1.12843943684109e-07
7.21665000000000e+01 3.90406415328599e-06 1.09215246229031e-07
7.24275000000000e+01 3.77168304245233e-06 1.05702544671558e-07
7.26885000000000e+01 3.64379078165225e-06 1.02302158245158e-07
7.29495000000000e+01 3.52023516054019e-06 9.90105218969202e-08
7.32105000000000e+01 3.40086913000102e-06 9.58241826937340e-08
7.34715000000000e+01 3.28555062714023e-06 9.27397963382773e-08
7.37325000000000e+01 3.17414240620847e-06 8.97541237915280e-08
7.39935000000000e+01 3.06651187525922e-06 8.68640279986132e-08
7.42545000000000e+01 2.96253093834512e-06 8.40664707149090e-08
7.45155000000000e+01 2.86207584306521e-06 8.13585094293906e-08
7.47765000000000e+01 2.76502703328162e-06 7.87372943823102e-08
7.50375000000000e+01 2.67126900683043e-06 7.62000656743763e-08
7.52985000000000e+01 2.58069017805732e-06 7.37441504646900e-08
7.55595000000000e+01 2.49318274501445e-06 7.13669602547626e-08
7.58205000000000e+01 2.40864256116052e-06 6.90659882560254e-08
7.60815000000000e+01 2.32696901141127e-06 6.68388068383210e-08
7.63425000000000e+01 2.24806489239292e-06 6.46830650569321e-08
7.66035000000000e+01 2.17183629675608e-06 6.25964862557786e-08
7.68645000000000e+01 2.09819250141234e-06 6.05768657444781e-08
7.71255000000000e+01 2.02704585956066e-06 5.86220685470442e-08
7.73865000000000e+01 1.95831169637495e-06 5.67300272200508e-08
7.76475000000000e+01 1.89190820822877e-06 5.48987397381593e-08
7.79085000000000e+01 1.82775636533709e-06 5.31262674449681e-08
7.81695000000000e+01 1.76577981769943e-06 5.14107330672033e-08
7.84305000000000e+01 1.70590480423225e-06 4.97503187903237e-08
7.86915000000000e+01 1.64806006498260e-06 4.81432643936828e-08
7.89525000000000e+01 1.59217675631838e-06 4.65878654434307e-08
7.92135000000000e+01 1.53818836899448e-06 4.50824715413978e-08
7.94745000000000e+01 1.48603064899710e-06 4.36254846282605e-08
7.97355000000000e+01 1.43564152107216e-06 4.22153573393310e-08
7.99965000000000e+01 1.38696101484674e-06 4.08505914113699e-08
8.02575000000000e+01 1.33993119345565e-06 3.95297361388607e-08
8.05185000000000e+01 1.29449608458813e-06 3.82513868782358e-08
8.07795000000000e+01 1.25060161387269e-06 3.70141835985921e-08
8.10405000000000e+01 1.20819554052078e-06 3.58168094774711e-08
8.13015000000000e+01 1.16722739515262e-06 3.46579895403236e-08
8.15625000000000e+01 1.12764841973140e-06 3.35364893423236e-08
8.18235000000000e+01 1.08941150953406e-06 3.24511136912325e-08
8.20845000000000e+01 1.05247115708987e-06 3.14007054100535e-08
8.23455000000000e+01 1.01678339801996e-06 3.03841441382559e-08
