Energy (eV)          EEDF (eV^-(3/2))     First Anisotropy
1.03076923076923e-02 1.47632664753364e-01 6.86727913727761e-05
3.09230769230769e-02 1.46848967244685e-01 1.13478807495948e-04
5.15384615384615e-02 1.46069429939518e-01 1.50018321280351e-04
7.21538461538462e-02 1.45294030752993e-01 1.77907968918782e-04
9.27692307692308e-02 1.44522747717129e-01 2.01276392958234e-04
1.13384615384615e-01 1.43755558983426e-01 2.21681033242156e-04
1.34000000000000e-01 1.42992442813968e-01 2.39926130340732e-04
1.54615384615385e-01 1.42233377596080e-01 2.56496321416655e-04
1.75230769230769e-01 1.41478341820128e-01 2.71712358883587e-04
1.95846153846154e-01 1.40727314096302e-01 2.85800474018301e-04
2.16461538461538e-01 1.39980273152309e-01 2.98927790489281e-04
2.37076923076923e-01 1.39237197820759e-01 3.11222202876530e-04
2.57692307692308e-01 1.38498067053671e-01 3.22784352909797e-04
2.78307692307692e-01 1.37762859908657e-01 3.33695249389872e-04
2.98923076923077e-01 1.37031555557500e-01 3.44021330697048e-04
3.19538461538462e-01 1.36304133285047e-01 3.53817954546375e-04
3.40153846153846e-01 1.35580572481164e-01 3.63131872144863e-04
3.60769230769231e-01 1.34860852649633e-01 3.72003030116275e-04
3.81384615384615e-01 1.34144953398915e-01 3.80465911270584e-04
4.02000000000000e-01 1.33432854447769e-01 3.88550549831893e-04
4.22615384615385e-01 1.32724535624375e-01 3.96283316413655e-04
4.43230769230769e-01 1.32019976860477e-01 4.03687530285181e-04
4.63846153846154e-01 1.31319158196099e-01 4.10783944607948e-04
4.84461538461538e-01 1.30622059778737e-01 4.17591137640427e-04
5.05076923076923e-01 1.29928661858230e-01 4.24125827917510e-04
5.25692307692308e-01 1.29238944792126e-01 4.30403133164045e-04
5.46307692307692e-01 1.28552889039551e-01 4.36436784277310e-04
5.66923076923077e-01 1.27870475164695e-01 4.42239302438282e-04
5.87538461538462e-01 1.27191683836134e-01 4.47822149587542e-04
6.08153846153846e-01 1.26516495822655e-01 4.53195853743973e-04
6.28769230769231e-01 1.25844891997418e-01 4.58370116325298e-04
6.49384615384615e-01 1.25176853332946e-01 4.63353904014524e-04
6.70000000000000e-01 1.24512360903850e-01 4.68155526811091e-04
6.90615384615385e-01 1.23851395886189e-01 4.72782707177929e-04
7.11230769230769e-01 1.23193939553982e-01 4.77242638638914e-04
7.31846153846154e-01 1.22539973281636e-01 4.81542036827555e-04
7.52461538461538e-01 1.21889478543318e-01 4.85687185662274e-04
7.73076923076923e-01 1.21242436909756e-01 4.89683976412011e-04
7.93692307692308e-01 1.20598830051221e-01 4.93537942885123e-04
8.14307692307692e-01 1.19958639733643e-01 4.97254292673049e-04
8.34923076923077e-01 1.19321847820563e-01 5.00837934120915e-04
8.55538461538462e-01 1.18688436272561e-01 5.04293501848990e-04
8.76153846153846e-01 1.18058387144460e-01 5.07625378170329e-04
8.96769230769231e-01 1.17431682587804e-01 5.10837712947862e-04
9.17384615384615e-01 1.16808304847478e-01 5.13934441512179e-04
9.38000000000000e-01 1.16188236263320e-01 5.16919300092466e-04
9.58615384615385e-01 1.15571459269570e-01 5.19795841113746e-04
9.79230769230769e-01 1.14957956392410e-01 5.22567445890673e-04
9.99846153846154e-01 1.14347710251430e-01 5.25237336637921e-04
1.02046153846154e+00 1.13740703556677e-01 5.27808585900584e-04
1.04107692307692e+00 1.13136919116584e-01 5.30284129624768e-04
1.06169230769231e+00 1.12536339820186e-01 5.32666773171494e-04
1.08230769230769e+00 1.11938948658946e-01 5.34959199634229e-04
1.10292307692308e+00 1.11344728708678e-01 5.37163982155283e-04
1.12353846153846e+00 1.10753663129918e-01 5.39283583502917e-04
1.14415384615385e+00 1.10165735183132e-01 5.41320367319608e-04
1.16476923076923e+00 1.09580928207331e-01 5.43276602933832e-04
1.18538461538462e+00 1.08999225640068e-01 5.45154470645702e-04
1.20600000000000e+00 1.08420610996927e-01 5.46956066925080e-04
1.22661538461538e+00 1.07845067890683e-01 5.48683408918561e-04
1.24723076923077e+00 1.07272580011614e-01 5.50338438929772e-04
1.26784615384615e+00 1.06703131145870e-01 5.51923028282669e-04
1.28846153846154e+00 1.06136705156565e-01 5.53438981205405e-04
1.30907692307692e+00 1.05573286001401e-01 5.54888038158200e-04
1.32969230769231e+00 1.05012857714484e-01 5.56271879218286e-04
1.35030769230769e+00 1.04455404423260e-01 5.57592125954572e-04
1.37092307692308e+00 1.03900910335054e-01 5.58850348419704e-04
1.39153846153846e+00 1.03349359737153e-01 5.60048061633674e-04
1.41215384615385e+00 1.02800737008181e-01 5.61186732103708e-04
1.43276923076923e+00 1.02255026601906e-01 5.62267779224406e-04
1.45338461538462e+00 1.01712213062261e-01 5.63292577325266e-04
1.47400000000000e+00 1.01172281007723e-01 5.64262457838053e-04
1.49461538461538e+00 1.00635215145791e-01 5.65178711093074e-04
1.51523076923077e+00 1.00101000257902e-01 5.66042588247239e-04
1.53584615384615e+00 9.95696212133949e-02 5.66855302864992e-04
1.55646153846154e+00 9.90410629549354e-02 5.67618032640343e-04
1.57707692307692e+00 9.85153105119917e-02 5.68331920792703e-04
1.59769230769231e+00 9.79923489867484e-02 5.68998077610511e-04
1.61830769230769e+00 9.74721635671127e-02 5.69617580830124e-04
1.63892307692308e+00 9.69547395162432e-02 5.70191480458492e-04
1.65953846153846e+00 9.64400621724920e-02 5.70720794737221e-04
1.68015384615385e+00 9.59281169582361e-02 5.71206514735864e-04
1.70076923076923e+00 9.54188893671421e-02 5.71649604650713e-04
1.72138461538462e+00 9.49123649758788e-02 5.72051002730542e-04
1.74200000000000e+00 9.44085294317792e-02 5.72411622354685e-04
1.76261538461538e+00 9.39073684641739e-02 5.72732352860360e-04
1.78323076923077e+00 9.34088678724315e-02 5.73014060523192e-04
1.80384615384615e+00 9.29130135369311e-02 5.73257589297819e-04
1.82446153846154e+00 9.24197914074645e-02 5.73463761712640e-04
1.84507692307692e+00 9.19291875138626e-02 5.73633379534093e-04
1.86569230769231e+00 9.14411879547446e-02 5.73767224585083e-04
1.88630769230769e+00 9.09557789078136e-02 5.73866058601059e-04
1.90692307692308e+00 9.04729466214617e-02 5.73930626949620e-04
1.92753846153846e+00 8.99926774146367e-02 5.73961654729206e-04
1.94815384615385e+00 8.95149576838847e-02 5.73959850350616e-04
1.96876923076923e+00 8.90397738930640e-02 5.73925905428678e-04
1.98938461538462e+00 8.85671125827176e-02 5.73860495245202e-04
2.01000000000000e+00 8.80969603600779e-02 5.73764279358160e-04
2.03061538461538e+00 8.76293039081622e-02 5.73637902020094e-04
2.05123076923077e+00 8.71641299760568e-02 5.73481992741733e-04
2.07184615384615e+00 8.67014253877467e-02 5.73297166670595e-04
2.09246153846154e+00 8.62411770326681e-02 5.73084025113343e-04
2.11307692307692e+00 8.57833718742828e-02 5.72843155879162e-04
2.13369230769231e+00 8.53279969408891e-02 5.72575133764744e-04
2.15430769230769e+00 8.48750393339506e-02 5.72280520218702e-04
2.17492307692308e+00 8.44244862212188e-02 5.71959866385980e-04
2.19553846153846e+00 8.39763248365598e-02 5.71613709513624e-04
2.21615384615385e+00 8.35305424856796e-02 5.71242575899317e-04
2.23676923076923e+00 8.30871265376540e-02 5.70846980626315e-04
2.25738461538462e+00 8.26460644325720e-02 5.70427427810348e-04
2.27800000000000e+00 8.22073436732860e-02 5.69984410978672e-04
2.29861538461538e+00 8.17709518328463e-02 5.69518413294962e-04
2.31923076923077e+00 8.13368765464643e-02 5.69029907914276e-04
2.33984615384615e+00 8.09051055187450e-02 5.68519358188094e-04
2.36046153846154e+00 8.04756265158561e-02 5.67987217997456e-04
2.38107692307692e+00 8.00484273725655e-02 5.67433931939662e-04
2.40169230769231e+00 7.96234959846090e-02 5.66859935641588e-04
2.42230769230769e+00 7.92008203155407e-02 5.66265655360526e-04
2.44292307692308e+00 7.87803883910046e-02 5.65651510560867e-04
2.46353846153846e+00 7.83621882985409e-02 5.65017910657012e-04
2.48415384615385e+00 7.79462081923114e-02 5.64365257517405e-04
2.50476923076923e+00 7.75324362860182e-02 5.63693945143905e-04
2.52538461538462e+00 7.71208608592304e-02 5.63004359808668e-04
2.54600000000000e+00 7.67114702504750e-02 5.62296880308086e-04
2.56661538461538e+00 7.63042528634016e-02 5.61571878087970e-04
2.58723076923077e+00 7.58991971600399e-02 5.60829717483826e-04
2.60784615384615e+00 7.54962916668065e-02 5.60070755835189e-04
2.62846153846154e+00 7.50955249679251e-02 5.59295343713267e-04
2.64907692307692e+00 7.46968857112807e-02 5.58503825025419e-04
2.66969230769231e+00 7.43003626019962e-02 5.57696537231178e-04
2.69030769230769e+00 7.39059444081395e-02 5.56873810933274e-04
2.71092307692308e+00 7.35136199558916e-02 5.56035972103686e-04
2.73153846153846e+00 7.31233781293429e-02 5.55183339148342e-04
2.75215384615385e+00 7.27352078744398e-02 5.54316225074774e-04
2.77276923076923e+00 7.23490981929944e-02 5.53434937159866e-04
2.79338461538462e+00 7.19650381479821e-02 5.52539777026760e-04
2.81400000000000e+00 7.15830168576896e-02 5.51631040825458e-04
2.83461538461538e+00 7.12030235008830e-02 5.50709019303023e-04
2.85523076923077e+00 7.08250473110892e-02 5.49773997975608e-04
2.87584615384615e+00 7.04490775816397e-02 5.48826257192746e-04
2.89646153846154e+00 7.00751036600812e-02 5.47866072301598e-04
2.91707692307692e+00 6.97031149530979e-02 5.46893713705377e-04
2.93769230769231e+00 6.93331009210479e-02 5.45909447020316e-04
2.95830769230769e+00 6.89650510827687e-02 5.44913532680177e-04
2.97892307692308e+00 6.85989550114572e-02 5.43906227884716e-04
2.99953846153846e+00 6.82348023344651e-02 5.42887783958389e-04
3.02015384615385e+00 6.78725827366256e-02 5.41858448250325e-04
3.04076923076923e+00 6.75122859551376e-02 5.40818463810174e-04
3.06138461538462e+00 6.71539017840438e-02 5.39768069430984e-04
3.08200000000000e+00 6.67974200692267e-02 5.38707499783432e-04
3.10261538461538e+00 6.64428307127827e-02 5.37636985454549e-04
3.12323076923077e+00 6.60901236681264e-02 5.36556753076485e-04
3.14384615384615e+00 6.57392889442643e-02 5.35467025361667e-04
3.16446153846154e+00 6.53903166010043e-02 5.34368021226591e-04
3.18507692307692e+00 6.50431967531313e-02 5.33259955823475e-04
3.20569230769231e+00 6.46979195657192e-02 5.32143040659077e-04
3.22630769230769e+00 6.43544752582119e-02 5.31017483222401e-04
3.24692307692308e+00 6.40128541008804e-02 5.29883488705945e-04
3.26753846153846e+00 6.36730464146211e-02 5.28741257627723e-04
3.28815384615385e+00 6.33350425737829e-02 5.27590987511368e-04
3.30876923076923e+00 6.29988330017626e-02 5.26432872579000e-04
3.32938461538462e+00 6.26644081748204e-02 5.25267103773788e-04
3.35000000000000e+00 6.23317586177678e-02 5.24093868863358e-04
3.37061538461538e+00 6.20008749076981e-02 5.22913352459918e-04
3.39123076923077e+00 6.16717476697630e-02 5.21725736120045e-04
3.41184615384615e+00 6.13443675808214e-02 5.20531198362500e-04
3.43246153846154e+00 6.10187253653026e-02 5.19329914764593e-04
3.45307692307692e+00 6.06948117987750e-02 5.18122057977854e-04
3.47369230769231e+00 6.03726177038940e-02 5.16907797821086e-04
3.49430769230769e+00 6.00521339538925e-02 5.15687300934438e-04
3.51492307692308e+00 5.97333514695131e-02 5.14460732310427e-04
3.53553846153846e+00 5.94162612188111e-02 5.13228253150247e-04
3.55615384615385e+00 5.91008542195735e-02 5.11990022358948e-04
3.57676923076923e+00 5.87871215355013e-02 5.10746196259024e-04
3.59738461538462e+00 5.84750542794822e-02 5.09496928600418e-04
3.61800000000000e+00 5.81646436098494e-02 5.08242370642796e-04
3.63861538461538e+00 5.78558807335846e-02 5.06982671164097e-04
3.65923076923077e+00 5.75487569026513e-02 5.05717976540036e-04
3.67984615384615e+00 5.72432634171292e-02 5.04448430751501e-04
3.70046153846154e+00 5.69393916216202e-02 5.03174175461504e-04
3.72107692307692e+00 5.66371329083163e-02 5.01895350021109e-04
3.74169230769231e+00 5.63364787134767e-02 5.00612091544190e-04
3.76230769230769e+00 5.60374205204309e-02 4.99324534588536e-04
3.78292307692308e+00 5.57399498569059e-02 4.98032812524389e-04
3.80353846153846e+00 5.54440582948362e-02 4.96737055599367e-04
3.82415384615385e+00 5.51497374524454e-02 4.95437392275552e-04
3.84476923076923e+00 5.48569789909174e-02 4.94133948964313e-04
3.86538461538462e+00 5.45657746172204e-02 4.92826850028874e-04
3.88600000000000e+00 5.42761160808424e-02 4.91516217851142e-04
3.90661538461538e+00 5.39879951765567e-02 4.90202172833136e-04
3.92723076923077e+00 5.37014037412205e-02 4.88884833461930e-04
3.94784615384615e+00 5.34163336564827e-02 4.87564316310353e-04
3.96846153846154e+00 5.31327768456440e-02 4.86240736099951e-04
3.98907692307692e+00 5.28507252763092e-02 4.84914205700860e-04
4.00969230769231e+00 5.25701709573071e-02 4.83584836193028e-04
4.03030769230769e+00 5.22911059412886e-02 4.82252736573695e-04
4.05092307692308e+00 5.20135223223855e-02 4.80918014985513e-04
4.07153846153846e+00 5.17374122360288e-02 4.79580776966744e-04
4.09215384615385e+00 5.14627678607479e-02 4.78241126651844e-04
4.11276923076923e+00 5.11895814152552e-02 4.76899166527301e-04
4.13338461538462e+00 5.09178451608932e-02 4.75554997429395e-04
4.15400000000000e+00 5.06475513987737e-02 4.74208718599575e-04
4.17461538461538e+00 5.03786924721755e-02 4.72860427681494e-04
4.19523076923077e+00 5.01112607637370e-02 4.71510220774909e-04
4.21584615384615e+00 4.98452486978062e-02 4.70158192432379e-04
4.23646153846154e+00 4.95806487376847e-02 4.68804435711573e-04
4.25707692307692e+00 4.93174533879311e-02 4.67449042171471e-04
4.27769230769231e+00 4.90556551916560e-02 4.66092101923488e-04
4.29830769230769e+00 4.87952467327797e-02 4.64733703363445e-04
4.31892307692308e+00 4.85362206339723e-02 4.63373934277337e-04
4.33953846153846e+00 4.82785695564803e-02 4.62012880256815e-04
4.36015384615385e+00 4.80222862016894e-02 4.60650625780512e-04
4.38076923076923e+00 4.77673633085588e-02 4.59287253989725e-04
4.40138461538462e+00 4.75137936557520e-02 4.57922846683339e-04
4.42200000000000e+00 4.72615700591176e-02 4.56557484364261e-04
4.44261538461538e+00 4.70106853737789e-02 4.55191246233910e-04
4.46323076923077e+00 4.67611324916599e-02 4.53824210237695e-04
4.48384615384615e+00 4.65129043435340e-02 4.52456453059079e-04
4.50446153846154e+00 4.62659938965948e-02 4.51088050163777e-04
4.52507692307692e+00 4.60203941564650e-02 4.49719075793684e-04
4.54569230769231e+00 4.57760981648108e-02 4.48349603010115e-04
4.56630769230769e+00 4.55330990013118e-02 4.46979703448594e-04
4.58692307692308e+00 4.52913897818413e-02 4.45609448317221e-04
4.60753846153846e+00 4.50509636583018e-02 4.44238906959542e-04
4.62815384615385e+00 4.48118138199872e-02 4.42868147830927e-04
4.64876923076923e+00 4.45739334913161e-02 4.41497238293081e-04
4.66938461538462e+00 4.43373159336949e-02 4.40126244607098e-04
4.69000000000000e+00 4.41019544432906e-02 4.38755231973050e-04
4.71061538461538e+00 4.38678423528583e-02 4.37384264522864e-04
4.73123076923077e+00 4.36349730295538e-02 4.36013405358977e-04
4.75184615384615e+00 4.34033398767257e-02 4.34642716547157e-04
4.77246153846154e+00 4.31729363317664e-02 4.33272259154187e-04
4.79307692307692e+00 4.29437558678706e-02 4.31902093240367e-04
4.81369230769231e+00 4.27157919919240e-02 4.30532277896563e-04
4.83430769230769e+00 4.24890382462276e-02 4.29162871020035e-04
4.85492307692308e+00 4.22634882068856e-02 4.27793930217706e-04
4.87553846153846e+00 4.20391354836486e-02 4.26425511501058e-04
4.89615384615385e+00 4.18159737211055e-02 4.25057670169886e-04
4.91676923076923e+00 4.15939965966746e-02 4.23690460623772e-04
4.93738461538462e+00 4.13731978222367e-02 4.22323936354296e-04
4.95800000000000e+00 4.11535711421614e-02 4.20958149979178e-04
4.97861538461538e+00 4.09351103349089e-02 4.19593153234166e-04
4.99923076923077e+00 4.07178092110909e-02 4.18228997006362e-04
5.01984615384615e+00 4.05016616150424e-02 4.16865731326169e-04
5.04046153846154e+00 4.02866614229155e-02 4.15503405399907e-04
5.06107692307692e+00 4.00728025442227e-02 4.14142067601527e-04
5.08169230769231e+00 3.98600789199624e-02 4.12781765504538e-04
5.10230769230769e+00 3.96484845241342e-02 4.11422545677190e-04
5.12292307692308e+00 3.94380133623046e-02 4.10064454501285e-04
5.14353846153846e+00 3.92286594714591e-02 4.08707536985446e-04
5.16415384615385e+00 3.90204169210477e-02 4.07351837566394e-04
5.18476923076923e+00 3.88132798111993e-02 4.05997399936358e-04
5.20538461538462e+00 3.86072422741577e-02 4.04644267034826e-04
5.22600000000000e+00 3.84022984725263e-02 4.03292481078018e-04
5.24661538461538e+00 3.81984426006781e-02 4.01942083550469e-04
5.26723076923077e+00 3.79956688830295e-02 4.00593115233991e-04
5.28784615384615e+00 3.77939715754246e-02 3.99245616199178e-04
5.30846153846154e+00 3.75933449634383e-02 3.97899625833749e-04
5.32907692307692e+00 3.73937833637352e-02 3.96555182834163e-04
5.34969230769231e+00 3.71952811224010e-02 3.95212325233224e-04
5.37030769230769e+00 3.69978326162765e-02 3.93871090212741e-04
5.39092307692308e+00 3.68014322516792e-02 3.92531514847234e-04
5.41153846153846e+00 3.66060744642638e-02 3.91193635023455e-04
5.43215384615385e+00 3.64117537199414e-02 3.89857486168216e-04
5.45276923076923e+00 3.62184645132881e-02 3.88523103090284e-04
5.47338461538462e+00 3.60262013688112e-02 3.87190519971953e-04
5.49400000000000e+00 3.58349588393844e-02 3.85859770394787e-04
5.51461538461538e+00 3.56447315074910e-02 3.84530887331149e-04
5.53523076923077e+00 3.54555139836848e-02 3.83203903169470e-04
5.55584615384615e+00 3.52673009078110e-02 3.81878849705745e-04
5.57646153846154e+00 3.50800869474928e-02 3.80555758168328e-04
5.59707692307692e+00 3.48938667993303e-02 3.79234659209348e-04
5.61769230769231e+00 3.47086351874116e-02 3.77915582929056e-04
5.63830769230769e+00 3.45243868644906e-02 3.76598558704471e-04
5.65892307692308e+00 3.43411166108441e-02 3.75283615865661e-04
5.67953846153846e+00 3.41588192341402e-02 3.73970782711001e-04
5.70015384615385e+00 3.39774895702492e-02 3.72660087169270e-04
5.72076923076923e+00 3.37971224818214e-02 3.71351556654773e-04
5.74138461538462e+00 3.36177128594060e-02 3.70045218058922e-04
5.76200000000000e+00 3.34392556200530e-02 3.68741097773006e-04
5.78261538461538e+00 3.32617457084123e-02 3.67439221679653e-04
5.80323076923077e+00 3.30851780953575e-02 3.66139615175126e-04
5.82384615384615e+00 3.29095477790658e-02 3.64842303160921e-04
5.84446153846154e+00 3.27348497836646e-02 3.63547310065528e-04
5.86507692307692e+00 3.25610791602921e-02 3.62254659836140e-04
5.88569230769231e+00 3.23882309857652e-02 3.60964375960020e-04
5.90630769230769e+00 3.22163003636222e-02 3.59676481307675e-04
5.92692307692308e+00 3.20452824230985e-02 3.58390998748667e-04
5.94753846153846e+00 3.18751723190029e-02 3.57107950253320e-04
5.96815384615385e+00 3.17059652324339e-02 3.55827357495681e-04
5.98876923076923e+00 3.15376563695063e-02 3.54549241720765e-04
6.00938461538462e+00 3.13702409623427e-02 3.53273623736433e-04
6.03000000000000e+00 3.12037142678204e-02 3.52000523933364e-04
6.05061538461538e+00 3.10380715685457e-02 3.50729962276849e-04
6.07123076923077e+00 3.08733081716212e-02 3.49461958326447e-04
6.09184615384615e+00 3.07094194096026e-02 3.48196531227862e-04
6.11246153846154e+00 3.05464006392854e-02 3.46933699732175e-04
6.13307692307692e+00 3.03842472426458e-02 3.45673482187787e-04
6.15369230769231e+00 3.02229546256465e-02 3.44415896559337e-04
6.17430769230769e+00 3.00625182191607e-02 3.43160960284054e-04
6.19492307692308e+00 2.99029334780532e-02 3.41908690833341e-04
6.21553846153846e+00 2.97441958810639e-02 3.40659104892381e-04
6.23615384615385e+00 2.95863009314416e-02 3.39412218909929e-04
6.25676923076923e+00 2.94292441558020e-02 3.38168048976734e-04
6.27738461538462e+00 2.92730211050069e-02 3.36926610817565e-04
6.29800000000000e+00 2.91176273530408e-02 3.35687919809004e-04
6.31861538461538e+00 2.89630584978747e-02 3.34451990971572e-04
6.33923076923077e+00 2.88093101603598e-02 3.33218838987118e-04
6.35984615384615e+00 2.86563779850777e-02 3.31988478191049e-04
6.38046153846154e+00 2.85042576392502e-02 3.30760922589337e-04
6.40107692307692e+00 2.83529448135756e-02 3.29536185850857e-04
6.42169230769231e+00 2.82024352211557e-02 3.28314281324164e-04
6.44230769230769e+00 2.80527245983171e-02 3.27095221905898e-04
6.46292307692308e+00 2.79038087037841e-02 3.25879020553356e-04
6.48353846153846e+00 2.77556833185701e-02 3.24665689534698e-04
6.50415384615385e+00 2.76083442465390e-02 3.23455240930787e-04
