Energy (eV)          EEDF (eV^-(3/2))     First Anisotropy
1.12359550561798e-03 6.14932786387195e-01 3.05827924441416e-08
3.37078651685393e-03 6.14932765090926e-01 9.02168065243396e-08
5.61797752808989e-03 6.14932713774651e-01 2.17174072918816e-07
7.86516853932584e-03 6.14932629577726e-01 3.77430192396338e-07
1.01123595505618e-02 6.14932514571035e-01 5.59246860331368e-07
1.23595505617978e-02 6.14932369069625e-01 7.64770142548371e-07
1.46067415730337e-02 6.14932192084432e-01 9.88661862329272e-07
1.68539325842697e-02 6.14931985271122e-01 1.21626889589135e-06
1.91011235955056e-02 6.14931752182775e-01 1.44236580048368e-06
2.13483146067416e-02 6.14931494858104e-01 1.66891912031107e-06
2.35955056179775e-02 6.14931215016609e-01 1.89993979079089e-06
2.58426966292135e-02 6.14930912728360e-01 2.13932803197661e-06
2.80898876404494e-02 6.14930588188519e-01 2.38582330123522e-06
3.03370786516854e-02 6.14930241678649e-01 2.63369339858455e-06
3.25842696629213e-02 6.14929874815443e-01 2.88095713215520e-06
3.48314606741573e-02 6.14929488138045e-01 3.13439666642232e-06
3.70786516853933e-02 6.14929081262767e-01 3.39707452913552e-06
3.93258426966292e-02 6.14928653902527e-01 3.66905596897124e-06
4.15730337078652e-02 6.14928205666211e-01 3.95347272131258e-06
4.38202247191011e-02 6.14927735539368e-01 4.25131222346393e-06
4.60674157303371e-02 6.14927242970382e-01 4.56061169409780e-06
4.83146067415730e-02 6.14926727456761e-01 4.88105293763368e-06
5.05617977528090e-02 6.14926188545825e-01 5.20304203018131e-06
5.28089887640449e-02 6.14925627822206e-01 5.52294534856648e-06
5.50561797752809e-02 6.14925045499158e-01 5.85003260451224e-06
5.73033707865169e-02 6.14924441110510e-01 6.18744388558097e-06
5.95505617977528e-02 6.14923814218825e-01 6.53506512293874e-06
6.17977528089888e-02 6.14923164402991e-01 6.89308254212217e-06
6.40449438202247e-02 6.14922491209270e-01 7.26202366225428e-06
6.62921348314607e-02 6.14921794135737e-01 7.64217599741082e-06
6.85393258426966e-02 6.14921072696679e-01 8.03347921838142e-06
7.07865168539326e-02 6.14920326423394e-01 8.42015262263450e-06
7.30337078651686e-02 6.14919557762470e-01 8.79848730811270e-06
7.52808988764045e-02 6.14918766818974e-01 9.18366551192045e-06
7.75280898876405e-02 6.14917953193025e-01 9.57844573877856e-06
7.97752808988764e-02 6.14917116497596e-01 9.98280497989969e-06
8.20224719101124e-02 6.14916256352559e-01 1.03968740487003e-05
8.42696629213483e-02 6.14915372363449e-01 1.08208978725080e-05
8.65168539325843e-02 6.14914464123433e-01 1.12549374043732e-05
8.87640449438202e-02 6.14913531242260e-01 1.16988521647824e-05
9.10112359550562e-02 6.14912573349469e-01 1.21525597633251e-05
9.32584269662921e-02 6.14911590080109e-01 1.26162073232749e-05
9.55056179775281e-02 6.14910581051088e-01 1.30899425071856e-05
9.77528089887641e-02 6.14909545884692e-01 1.35737810841737e-05
1.00000000000000e-01 6.14908484205950e-01 1.40562283141212e-05
1.02247191011236e-01 6.14907397466923e-01 1.45244840046207e-05
1.04494382022472e-01 6.14906287255338e-01 1.49882566885854e-05
1.06741573033708e-01 6.14905153414461e-01 1.54585540130106e-05
1.08988764044944e-01 6.14903995786412e-01 1.59353950808132e-05
1.11235955056180e-01 6.14902814211472e-01 1.64188039600915e-05
1.13483146067416e-01 6.14901608528190e-01 1.69088043555955e-05
1.15730337078652e-01 6.14900378573476e-01 1.74054196548142e-05
1.17977528089888e-01 6.14899124182691e-01 1.79086729626998e-05
1.20224719101124e-01 6.14897845189721e-01 1.84185871546619e-05
1.22471910112360e-01 6.14896541427047e-01 1.89351848975087e-05
1.24719101123596e-01 6.14895212725807e-01 1.94584886836780e-05
1.26966292134831e-01 6.14893858915854e-01 1.99885208649245e-05
1.29213483146067e-01 6.14892479825800e-01 2.05253036723830e-05
1.31460674157303e-01 6.14891075283069e-01 2.10688592446654e-05
1.33707865168539e-01 6.14889645113930e-01 2.16192096389324e-05
1.35955056179775e-01 6.14888189143537e-01 2.21763768402590e-05
1.38202247191011e-01 6.14886707195964e-01 2.27403828000443e-05
1.40449438202247e-01 6.14885199094231e-01 2.33112494467795e-05
1.42696629213483e-01 6.14883664660332e-01 2.38889986793303e-05
1.44943820224719e-01 6.14882103715260e-01 2.44736523890379e-05
1.47191011235955e-01 6.14880516079026e-01 2.50652324831895e-05
1.49438202247191e-01 6.14878901570682e-01 2.56637608737733e-05
1.51685393258427e-01 6.14877260008337e-01 2.62692594824722e-05
1.53932584269663e-01 6.14875591209174e-01 2.68817502669784e-05
1.56179775280899e-01 6.14873894989463e-01 2.75012552212477e-05
1.58426966292135e-01 6.14872171164574e-01 2.81277963734623e-05
1.60674157303371e-01 6.14870419548991e-01 2.87613957914385e-05
1.62921348314607e-01 6.14868639956320e-01 2.94020755929806e-05
1.65168539325843e-01 6.14866832199300e-01 3.00498579429805e-05
1.67415730337079e-01 6.14864996089811e-01 3.07047650660757e-05
1.69662921348315e-01 6.14863131438881e-01 3.13668190147592e-05
1.71910112359551e-01 6.14861238056721e-01 3.20360409462274e-05
1.74157303370787e-01 6.14859315752818e-01 3.27124498188751e-05
1.76404494382022e-01 6.14857364336116e-01 3.33960599613594e-05
1.78651685393258e-01 6.14855383615394e-01 3.40868730666007e-05
1.80898876404494e-01 6.14853373400369e-01 3.47848687019735e-05
1.83146067415730e-01 6.14851333503139e-01 3.54899989407094e-05
1.85393258426966e-01 6.14849263739846e-01 3.62021805043624e-05
1.87640449438202e-01 6.14847163932945e-01 3.69212573794848e-05
1.89887640449438e-01 6.14845033917054e-01 3.76470085536174e-05
1.92134831460674e-01 6.14842873540100e-01 3.83792338799450e-05
1.94382022471910e-01 6.14840682659243e-01 3.91177870498105e-05
1.96629213483146e-01 6.14838461138380e-01 3.98625657200101e-05
1.98876404494382e-01 6.14836208845342e-01 4.06135157764259e-05
2.01123595505618e-01 6.14833925649082e-01 4.13219756447264e-05
2.03370786516854e-01 6.14831617179380e-01 4.19865571894677e-05
2.05617977528090e-01 6.14829283396517e-01 4.26546996244999e-05
2.07865168539326e-01 6.14826924280771e-01 4.33262025122877e-05
2.10112359550562e-01 6.14824539812322e-01 4.40010466430634e-05
2.12359550561798e-01 6.14822129971241e-01 4.46792133916929e-05
2.14606741573034e-01 6.14819694737477e-01 4.53606846830808e-05
2.16853932584270e-01 6.14817234090842e-01 4.60454429857380e-05
2.19101123595506e-01 6.14814748011003e-01 4.67334713043525e-05
2.21348314606742e-01 6.14812236477465e-01 4.74247531462945e-05
2.23595505617978e-01 6.14809699469568e-01 4.81192725136097e-05
2.25842696629213e-01 6.14807136966470e-01 4.88170138876581e-05
2.28089887640449e-01 6.14804548947144e-01 4.95179622114492e-05
2.30337078651685e-01 6.14801935390364e-01 5.02221028844736e-05
2.32584269662921e-01 6.14799296274701e-01 5.09294217490930e-05
2.34831460674157e-01 6.14796631578513e-01 5.16399050746545e-05
2.37078651685393e-01 6.14793941279941e-01 5.23535395489397e-05
2.39325842696629e-01 6.14791225356896e-01 5.30703122642166e-05
2.41573033707865e-01 6.14788483787059e-01 5.37902107150779e-05
2.43820224719101e-01 6.14785716547872e-01 5.45132227844616e-05
2.46067415730337e-01 6.14782923616531e-01 5.52393367229725e-05
2.48314606741573e-01 6.14780104969984e-01 5.59685411465584e-05
2.50561797752809e-01 6.14777260584922e-01 5.67008250310306e-05
2.52808988764045e-01 6.14774390437780e-01 5.74361777022259e-05
2.55056179775281e-01 6.14771494504725e-01 5.81745888239053e-05
2.57303370786517e-01 6.14768572761657e-01 5.89160483955904e-05
2.59550561797753e-01 6.14765625184206e-01 5.96605467315154e-05
2.61797752808989e-01 6.14762651747723e-01 6.04080744639835e-05
2.64044943820225e-01 6.14759652427281e-01 6.11586225357088e-05
2.66292134831461e-01 6.14756627197669e-01 6.19121821853713e-05
2.68539325842697e-01 6.14753576033392e-01 6.26687449094508e-05
2.70786516853933e-01 6.14750498908668e-01 6.34283023103248e-05
2.73033707865169e-01 6.14747395797442e-01 6.41908457543552e-05
2.75280898876405e-01 6.14744266673419e-01 6.49563657556550e-05
2.77528089887640e-01 6.14741111510132e-01 6.57248503025193e-05
2.79775280898876e-01 6.14737930281139e-01 6.64962819652135e-05
2.82022471910112e-01 6.14734722960366e-01 6.72706354716349e-05
2.84269662921348e-01 6.14731489522525e-01 6.80478755006427e-05
2.86516853932584e-01 6.14728229943657e-01 6.88279491604387e-05
2.88764044943820e-01 6.14724944202254e-01 6.96107811424317e-05
2.91011235955056e-01 6.14721632280225e-01 7.03962895138874e-05
2.93258426966292e-01 6.14718294162477e-01 7.11844056880341e-05
2.95505617977528e-01 6.14714929835997e-01 7.19750781563649e-05
2.97752808988764e-01 6.14711539289093e-01 7.27682718273885e-05
3.00000000000000e-01 6.14708122510565e-01 7.35452758766433e-05
3.02247191011236e-01 6.14704681388154e-01 7.42975402825708e-05
3.04494382022472e-01 6.14701216849960e-01 7.50743926937057e-05
3.06741573033708e-01 6.14697726038541e-01 7.59242990701922e-05
3.08988764044944e-01 6.14694205268877e-01 7.68551859974216e-05
3.11235955056180e-01 6.14690651014835e-01 7.78643778680488e-05
3.13483146067416e-01 6.14687059903434e-01 7.89492719133706e-05
3.15730337078652e-01 6.14683428709347e-01 8.01073359688346e-05
3.17977528089888e-01 6.14679754349609e-01 8.13361063089303e-05
3.20224719101124e-01 6.14676033878535e-01 8.26331855669413e-05
3.22471910112360e-01 6.14672264482827e-01 8.39962407317333e-05
3.24719101123596e-01 6.14668443476876e-01 8.54230012095435e-05
3.26966292134831e-01 6.14664568298238e-01 8.69112569529756e-05
3.29213483146067e-01 6.14660636503282e-01 8.84588566616574e-05
3.31460674157303e-01 6.14656645763006e-01 9.00637060364829e-05
3.33707865168539e-01 6.14652593859004e-01 9.17237661073320e-05
3.35955056179775e-01 6.14648478679591e-01 9.34370515981279e-05
3.38202247191011e-01 6.14644298216064e-01 9.52016293497129e-05
3.40449438202247e-01 6.14640050559113e-01 9.70156168074682e-05
3.42696629213483e-01 6.14635733895353e-01 9.88771805452487e-05
3.44943820224719e-01 6.14631346503989e-01 1.00784534862135e-04
3.47191011235955e-01 6.14626886753609e-01 1.02735940375021e-04
3.49438202247191e-01 6.14622353099080e-01 1.04729702701111e-04
3.51685393258427e-01 6.14617744078572e-01 1.06764171170815e-04
3.53932584269663e-01 6.14613058310683e-01 1.08837737573916e-04
3.56179775280899e-01 6.14608294491665e-01 1.10948834966270e-04
3.58426966292135e-01 6.14603451392756e-01 1.13095936479834e-04
3.60674157303371e-01 6.14598527857601e-01 1.15277554196092e-04
3.62921348314607e-01 6.14593522799778e-01 1.17492238043320e-04
3.65168539325843e-01 6.14588435200395e-01 1.19738574744536e-04
3.67415730337079e-01 6.14583264105786e-01 1.22015186773317e-04
3.69662921348315e-01 6.14578008625280e-01 1.24320731316038e-04
3.71910112359551e-01 6.14572667929062e-01 1.26653899204064e-04
3.74157303370787e-01 6.14567241246104e-01 1.29013413740361e-04
3.76404494382023e-01 6.14561727862189e-01 1.31398029416542e-04
3.78651685393258e-01 6.14556127118025e-01 1.33806529705926e-04
3.80898876404494e-01 6.14550438407512e-01 1.36237724643067e-04
3.83146067415730e-01 6.14544661176124e-01 1.38690449137934e-04
3.85393258426966e-01 6.14538794919370e-01 1.41163560965655e-04
3.87640449438202e-01 6.14532839181394e-01 1.43655933989773e-04
3.89887640449438e-01 6.14526793554055e-01 1.46166459013607e-04
3.92134831460674e-01 6.14520657675485e-01 1.48694057081844e-04
3.94382022471910e-01 6.14514431228089e-01 1.51237684528015e-04
3.96629213483146e-01 6.14508113936732e-01 1.53796330855585e-04
3.98876404494382e-01 6.14501705566972e-01 1.56369017972827e-04
4.01123595505618e-01 6.14495205923366e-01 1.58887713854596e-04
4.03370786516854e-01 6.14488621111087e-01 1.61386048402945e-04
4.05617977528090e-01 6.14481948165714e-01 1.63976064764989e-04
4.07865168539326e-01 6.14475183262424e-01 1.66666814603801e-04
4.10112359550562e-01 6.14468322742257e-01 1.69454911881889e-04
4.12359550561798e-01 6.14461363106565e-01 1.72337062325659e-04
4.14606741573034e-01 6.14454301011639e-01 1.75310061074323e-04
4.16853932584270e-01 6.14447133263507e-01 1.78370790375263e-04
4.19101123595506e-01 6.14439856812906e-01 1.81516217415832e-04
4.21348314606742e-01 6.14432468750407e-01 1.84743392154467e-04
4.23595505617978e-01 6.14424966301696e-01 1.88049445212856e-04
4.25842696629214e-01 6.14417346823014e-01 1.91431585896095e-04
4.28089887640449e-01 6.14409607796731e-01 1.94887100204993e-04
4.30337078651685e-01 6.14401746827062e-01 1.98413348909222e-04
4.32584269662921e-01 6.14393761635924e-01 2.02007765694009e-04
4.34831460674157e-01 6.14385650058918e-01 2.05667855352745e-04
4.37078651685393e-01 6.14377410041439e-01 2.09391192032232e-04
4.39325842696629e-01 6.14369039634904e-01 2.13175417507905e-04
4.41573033707865e-01 6.14360536993109e-01 2.17018239509426e-04
4.43820224719101e-01 6.14351900368683e-01 2.20917430115932e-04
4.46067415730337e-01 6.14343128109669e-01 2.24870824174127e-04
4.48314606741573e-01 6.14334218656198e-01 2.28876317752335e-04
4.50561797752809e-01 6.14325170537277e-01 2.32931866649481e-04
4.52808988764045e-01 6.14315982367667e-01 2.37035484929903e-04
4.55056179775281e-01 6.14306652844864e-01 2.41185243516996e-04
4.57303370786517e-01 6.14297180746169e-01 2.45379268810696e-04
4.59550561797753e-01 6.14287564925856e-01 2.49615741333176e-04
4.61797752808989e-01 6.14277804312411e-01 2.53892894441574e-04
4.64044943820225e-01 6.14267897905876e-01 2.58209013045181e-04
4.66292134831461e-01 6.14257844775257e-01 2.62562432344015e-04
4.68539325842697e-01 6.14247644056023e-01 2.66951536636508e-04
4.70786516853933e-01 6.14237294947673e-01 2.71374758093365e-04
4.73033707865169e-01 6.14226796711392e-01 2.75830575505026e-04
4.75280898876405e-01 6.14216148667767e-01 2.80317513002023e-04
4.77528089887641e-01 6.14205350194596e-01 2.84834138465765e-04
4.79775280898876e-01 6.14194400724785e-01 2.89379061613872e-04
4.82022471910112e-01 6.14183299744353e-01 2.93950932255211e-04
4.84269662921348e-01 6.14172046790510e-01 2.98548438593080e-04
4.86516853932584e-01 6.14160641449838e-01 3.03170304159661e-04
4.88764044943820e-01 6.14149083356647e-01 3.07815285872716e-04
4.91011235955056e-01 6.14137372191338e-01 3.12482177969784e-04
4.93258426966292e-01 6.14125507678496e-01 3.17169816526344e-04
4.95505617977528e-01 6.14113489584941e-01 3.21877080088021e-04
4.97752808988764e-01 6.14101317717811e-01 3.26602888907750e-04
5.00000000000000e-01 6.14088991922718e-01 3.31313400230659e-04
5.02247191011236e-01 6.14076514822304e-01 3.35978537095989e-04
5.04494382022472e-01 6.14063888792994e-01 3.40637803230758e-04
5.06741573033708e-01 6.14051113213066e-01 3.45326408644762e-04
5.08988764044944e-01 6.14038187541254e-01 3.50042433180388e-04
5.11235955056180e-01 6.14025111301246e-01 3.54784179854454e-04
5.13483146067416e-01 6.14011884079516e-01 3.59549996181205e-04
5.15730337078652e-01 6.13998505523219e-01 3.64338273241733e-04
5.17977528089888e-01 6.13984975338144e-01 3.69147444749284e-04
5.20224719101124e-01 6.13971293286722e-01 3.73975986124556e-04
5.22471910112360e-01 6.13957459186089e-01 3.78822413605877e-04
5.24719101123596e-01 6.13943472906203e-01 3.83685283422521e-04
5.26966292134831e-01 6.13929334368011e-01 3.88563190911123e-04
5.29213483146067e-01 6.13915043541667e-01 3.93454769688964e-04
5.31460674157303e-01 6.13900600444801e-01 3.98358690895998e-04
5.33707865168539e-01 6.13886005140827e-01 4.03273662348316e-04
5.35955056179775e-01 6.13871257737310e-01 4.08198427779628e-04
5.38202247191011e-01 6.13856358384367e-01 4.13131766103462e-04
5.40449438202247e-01 6.13841307273115e-01 4.18072490647621e-04
5.42696629213483e-01 6.13826104634164e-01 4.23019448463946e-04
5.44943820224719e-01 6.13810750736144e-01 4.27971519614634e-04
5.47191011235955e-01 6.13795245884282e-01 4.32927616438264e-04
5.49438202247191e-01 6.13779590419009e-01 4.37886682917716e-04
5.51685393258427e-01 6.13763784714608e-01 4.42847694001451e-04
5.53932584269663e-01 6.13747829177903e-01 4.47809654956974e-04
5.56179775280899e-01 6.13731724246977e-01 4.52771600727702e-04
5.58426966292135e-01 6.13715470389928e-01 4.57732595320023e-04
5.60674157303371e-01 6.13699068103660e-01 4.62691731200974e-04
5.62921348314607e-01 6.13682517912705e-01 4.67648128691305e-04
5.65168539325843e-01 6.13665820368079e-01 4.72600935383907e-04
5.67415730337079e-01 6.13648976046166e-01 4.77549325575620e-04
5.69662921348315e-01 6.13631985547637e-01 4.82492499701186e-04
5.71910112359551e-01 6.13614849496397e-01 4.87429683719074e-04
5.74157303370787e-01 6.13597568538563e-01 4.92360128511071e-04
5.76404494382023e-01 6.13580143341473e-01 4.97283109178279e-04
5.78651685393259e-01 6.13562574592735e-01 5.02197923987251e-04
5.80898876404494e-01 6.13544862999329e-01 5.07103893256372e-04
5.83146067415730e-01 6.13527009286751e-01 5.12000358464512e-04
5.85393258426966e-01 6.13509014198192e-01 5.16886681348889e-04
5.87640449438202e-01 6.13490878493762e-01 5.21762241646813e-04
5.89887640449438e-01 6.13472602949846e-01 5.26626437317895e-04
5.92134831460674e-01 6.13454188358313e-01 5.31478689082193e-04
5.94382022471910e-01 6.13435635525563e-01 5.36318442735728e-04
5.96629213483146e-01 6.13416945271579e-01 5.41145168843969e-04
5.98876404494382e-01 6.13398118429005e-01 5.45958360673594e-04
6.01123595505618e-01 6.13379155842382e-01 5.50821434588238e-04
6.03370786516854e-01 6.13360053951685e-01 5.55923241058992e-04
6.05617977528090e-01 6.13340800582678e-01 5.61446507205298e-04
6.07865168539326e-01 6.13321379661448e-01 5.67441255826385e-04
6.10112359550562e-01 6.13301775706164e-01 5.73892632372613e-04
6.12359550561798e-01 6.13281973810454e-01 5.80786142434289e-04
6.14606741573034e-01 6.13261959627244e-01 5.88107643192730e-04
6.16853932584270e-01 6.13241719353035e-01 5.95843335078195e-04
6.19101123595506e-01 6.13221239712607e-01 6.03979753627215e-04
6.21348314606742e-01 6.13200507944140e-01 6.12503761552755e-04
6.23595505617978e-01 6.13179511784742e-01 6.21402541026037e-04
6.25842696629214e-01 6.13158239456364e-01 6.30663586109835e-04
6.28089887640449e-01 6.13136679652104e-01 6.40274695390272e-04
6.30337078651685e-01 6.13114821522877e-01 6.50223964807040e-04
6.32584269662921e-01 6.13092654664450e-01 6.60499780639171e-04
6.34831460674157e-01 6.13070169104823e-01 6.71090812630818e-04
6.37078651685393e-01 6.13047355291960e-01 6.81986007308741e-04
6.39325842696629e-01 6.13024204081846e-01 6.93174581431558e-04
6.41573033707865e-01 6.13000706726867e-01 7.04646015610782e-04
6.43820224719101e-01 6.12976854864514e-01 7.16390048091094e-04
6.46067415730337e-01 6.12952640506379e-01 7.28396668624068e-04
6.48314606741573e-01 6.12928056027461e-01 7.40656112544574e-04
6.50561797752809e-01 6.12903094155759e-01 7.53158854959229e-04
6.52808988764045e-01 6.12877747962138e-01 7.65895605046634e-04
6.55056179775281e-01 6.12852010850487e-01 7.78857300532423e-04
6.57303370786517e-01 6.12825876548126e-01 7.92035102272600e-04
6.59550561797753e-01 6.12799339096486e-01 8.05420388951330e-04
6.61797752808989e-01 6.12772392842033e-01 8.19004751916144e-04
6.64044943820225e-01 6.12745032427446e-01 8.32779990126712e-04
6.66292134831461e-01 6.12717252783030e-01 8.46738105219922e-04
6.68539325842697e-01 6.12689049118360e-01 8.60871296684220e-04
6.70786516853933e-01 6.12660416914159e-01 8.75171957131274e-04
6.73033707865169e-01 6.12631351914393e-01 8.89632667648639e-04
6.75280898876405e-01 6.12601850118585e-01 9.04246193195810e-04
6.77528089887640e-01 6.12571907774340e-01 9.19005477966796e-04
6.79775280898877e-01 6.12541521370093e-01 9.33903640706274e-04
6.82022471910112e-01 6.12510687628063e-01 9.48933970133656e-04
6.84269662921348e-01 6.12479403497414e-01 9.64089920432011e-04
6.86516853932584e-01 6.12447666147624e-01 9.79365105983092e-04
6.88764044943820e-01 6.12415472962099e-01 9.94753297358305e-04
6.91011235955056e-01 6.12382821531901e-01 1.01024842174945e-03
6.93258426966292e-01 6.12349709649412e-01 1.02584456096665e-03
6.95505617977528e-01 6.12316135302298e-01 1.04153594550621e-03
6.97752808988764e-01 6.12282096667682e-01 1.05731695341990e-03
7.00000000000000e-01 6.12247592106234e-01 1.07315448690075e-03
7.02247191011236e-01 6.12212622215879e-01 1.08910907831150e-03
7.04494382022472e-01 6.12177181729259e-01 1.10551127962790e-03
7.06741573033708e-01 6.12141249663038e-01 1.12271264192252e-03
7.08988764044944e-01 6.12104797915525e-01 1.14081122099789e-03
