Energy (eV)          EEDF (eV^-(3/2))     First Anisotropy
1.26415094339623e-02 1.47542591462485e-01 7.59586924417413e-05
3.79245283018868e-02 1.46582616316161e-01 1.25443057155605e-04
6.32075471698113e-02 1.45628887180956e-01 1.65635259252531e-04
8.84905660377358e-02 1.44681363414608e-01 1.96191648177400e-04
1.13773584905660e-01 1.43740004646404e-01 2.21694326435646e-04
1.39056603773585e-01 1.42804770759085e-01 2.43874784731472e-04
1.64339622641509e-01 1.41875621902015e-01 2.63628607707218e-04
1.89622641509434e-01 1.40952518483664e-01 2.81496339597712e-04
2.14905660377358e-01 1.40035421169958e-01 2.97836299611483e-04
2.40188679245283e-01 1.39124290882711e-01 3.12901614284354e-04
2.65471698113208e-01 1.38219088798020e-01 3.26879567996871e-04
2.90754716981132e-01 1.37319776344555e-01 3.39913708296798e-04
3.16037735849057e-01 1.36426315204879e-01 3.52117171817280e-04
3.41320754716981e-01 1.35538667304725e-01 3.63581166562417e-04
3.66603773584906e-01 1.34656794820735e-01 3.74380612480239e-04
3.91886792452830e-01 1.33780660175632e-01 3.84578030279345e-04
4.17169811320755e-01 1.32910226036604e-01 3.94226301963717e-04
4.42452830188679e-01 1.32045455313757e-01 4.03370681658744e-04
4.67735849056604e-01 1.31186311158520e-01 4.12050292260407e-04
4.93018867924528e-01 1.30332756963831e-01 4.20299261674489e-04
5.18301886792453e-01 1.29484756357195e-01 4.28147598386717e-04
5.43584905660377e-01 1.28642273204620e-01 4.35621876830662e-04
5.68867924528302e-01 1.27805271607217e-01 4.42745782055522e-04
5.94150943396226e-01 1.26973715899662e-01 4.49540546171418e-04
6.19433962264151e-01 1.26147570648677e-01 4.56025302613762e-04
6.44716981132075e-01 1.25326800651539e-01 4.62217376358993e-04
6.70000000000000e-01 1.24511370934563e-01 4.68132523610708e-04
6.95283018867925e-01 1.23701246752800e-01 4.73785132153876e-04
7.20566037735849e-01 1.22896393584959e-01 4.79188388760697e-04
7.45849056603774e-01 1.22096777135585e-01 4.84354420627349e-04
7.71132075471698e-01 1.21302363332361e-01 4.89294416494892e-04
7.96415094339623e-01 1.20513118324654e-01 4.94018729656920e-04
8.21698113207547e-01 1.19729008482082e-01 4.98536966731481e-04
8.46981132075472e-01 1.18950000393074e-01 5.02858064428270e-04
8.72264150943396e-01 1.18176060863450e-01 5.06990356108779e-04
8.97547169811321e-01 1.17407156915871e-01 5.10941630431548e-04
9.22830188679245e-01 1.16643255785805e-01 5.14719182093998e-04
9.48113207547170e-01 1.15884324922791e-01 5.18329856449953e-04
9.73396226415094e-01 1.15130331988154e-01 5.21780089611258e-04
9.98679245283019e-01 1.14381244853626e-01 5.25075942835298e-04
1.02396226415094e+00 1.13637031603564e-01 5.28223135812905e-04
1.04924528301887e+00 1.12897660522019e-01 5.31227073047997e-04
1.07452830188679e+00 1.12163100103823e-01 5.34092867556369e-04
1.09981132075472e+00 1.11433319048793e-01 5.36825365463731e-04
1.12509433962264e+00 1.10708286260395e-01 5.39429165399729e-04
1.15037735849057e+00 1.09987970844400e-01 5.41908636689823e-04
1.17566037735849e+00 1.09272342107603e-01 5.44267935815555e-04
1.20094339622642e+00 1.08561369556507e-01 5.46511021347455e-04
1.22622641509434e+00 1.07855022896012e-01 5.48641666419740e-04
1.25150943396226e+00 1.07153272033750e-01 5.50663474359541e-04
1.27679245283019e+00 1.06456087061778e-01 5.52579887758012e-04
1.30207547169811e+00 1.05763438272497e-01 5.54394196563584e-04
1.32735849056604e+00 1.05075296151594e-01 5.56109550868004e-04
1.35264150943396e+00 1.04391631376791e-01 5.57728968454031e-04
1.37792452830189e+00 1.03712414816573e-01 5.59255342757369e-04
1.40320754716981e+00 1.03037617528984e-01 5.60691450205815e-04
1.42849056603774e+00 1.02367210760374e-01 5.62039956995872e-04
1.45377358490566e+00 1.01701165944175e-01 5.63303424403438e-04
1.47905660377358e+00 1.01039454704161e-01 5.64484317413104e-04
1.50433962264151e+00 1.00382048839687e-01 5.65585008176526e-04
1.52962264150943e+00 9.97289203381655e-02 5.66607779071118e-04
1.55490566037736e+00 9.90800413692669e-02 5.67554830222575e-04
1.58018867924528e+00 9.84353842837361e-02 5.68428282838635e-04
1.60547169811321e+00 9.77949216122075e-02 5.69230183215261e-04
1.63075471698113e+00 9.71586260640515e-02 5.69962506478358e-04
1.65603773584906e+00 9.65264705262021e-02 5.70627160081093e-04
1.68132075471698e+00 9.58984280620015e-02 5.71225986242781e-04
1.70660377358491e+00 9.52744719137068e-02 5.71760767498837e-04
1.73188679245283e+00 9.46545754902945e-02 5.72233227895525e-04
1.75716981132075e+00 9.40387123774774e-02 5.72645033993920e-04
1.78245283018868e+00 9.34268563328300e-02 5.72997799934763e-04
1.80773584905660e+00 9.28189812846681e-02 5.73293088959119e-04
1.83301886792453e+00 9.22150613309376e-02 5.73532415638054e-04
1.85830188679245e+00 9.16150707381196e-02 5.73717247976316e-04
1.88358490566038e+00 9.10189839401272e-02 5.73849009395700e-04
1.90886792452830e+00 9.04267755372172e-02 5.73929079872005e-04
1.93415094339623e+00 8.98384202979453e-02 5.73958799906582e-04
1.95943396226415e+00 8.92538931489046e-02 5.73939470716043e-04
1.98471698113208e+00 8.86731691829176e-02 5.73872354319048e-04
2.01000000000000e+00 8.80962236548631e-02 5.73758677278825e-04
2.03528301886792e+00 8.75230319806189e-02 5.73599631363242e-04
2.06056603773585e+00 8.69535697360171e-02 5.73396374884655e-04
2.08584905660377e+00 8.63878126558066e-02 5.73150033973858e-04
2.11113207547170e+00 8.58257366326159e-02 5.72861703130013e-04
2.13641509433962e+00 8.52673177185300e-02 5.72532448355204e-04
2.16169811320755e+00 8.47125321161984e-02 5.72163306913957e-04
2.18698113207547e+00 8.41613561857533e-02 5.71755287027576e-04
2.21226415094340e+00 8.36137664411375e-02 5.71309370887520e-04
2.23754716981132e+00 8.30697395491036e-02 5.70826514918387e-04
2.26283018867925e+00 8.25292523282171e-02 5.70307650673740e-04
2.28811320754717e+00 8.19922817478732e-02 5.69753685691035e-04
2.31339622641509e+00 8.14588049273150e-02 5.69165504309619e-04
2.33867924528302e+00 8.09287991346574e-02 5.68543967859567e-04
2.36396226415094e+00 8.04022417881367e-02 5.67889917187655e-04
2.38924528301887e+00 7.98791104484449e-02 5.67204172176138e-04
2.41452830188679e+00 7.93593828245262e-02 5.66487531219054e-04
2.43981132075472e+00 7.88430367703599e-02 5.65740773688835e-04
2.46509433962264e+00 7.83300502840163e-02 5.64964659952469e-04
2.49037735849057e+00 7.78204015067166e-02 5.64159931967440e-04
2.51566037735849e+00 7.73140687219065e-02 5.63327313854095e-04
2.54094339622642e+00 7.68110303543297e-02 5.62467512446290e-04
2.56622641509434e+00 7.63112649691069e-02 5.61581217285740e-04
2.59150943396226e+00 7.58147512727313e-02 5.60669102731490e-04
2.61679245283019e+00 7.53214681063971e-02 5.59731827371057e-04
2.64207547169811e+00 7.48313944509024e-02 5.58770033401893e-04
2.66735849056604e+00 7.43445094238052e-02 5.57784348713603e-04
2.69264150943396e+00 7.38607922785332e-02 5.56775386771730e-04
2.71792452830189e+00 7.33802224034972e-02 5.55743747030363e-04
2.74320754716981e+00 7.29027793212186e-02 5.54690015330737e-04
2.76849056603774e+00 7.24284426874538e-02 5.53614764286591e-04
2.79377358490566e+00 7.19571922903273e-02 5.52518553171980e-04
2.81905660377358e+00 7.14890080511238e-02 5.51401929727382e-04
2.84433962264151e+00 7.10238700184392e-02 5.50265429531907e-04
2.86962264150943e+00 7.05617583723578e-02 5.49109575353240e-04
2.89490566037736e+00 7.01026534219210e-02 5.47934878943892e-04
2.92018867924528e+00 6.96465356042872e-02 5.46741840854195e-04
2.94547169811321e+00 6.91933854838975e-02 5.45530950727998e-04
2.97075471698113e+00 6.87431837516507e-02 5.44302687589693e-04
2.99603773584906e+00 6.82959112240789e-02 5.43057520122058e-04
3.02132075471698e+00 6.78515488425297e-02 5.41795906496916e-04
3.04660377358491e+00 6.74100776737966e-02 5.40518295949057e-04
3.07188679245283e+00 6.69714789049569e-02 5.39225128145613e-04
3.09716981132075e+00 6.65357338469543e-02 5.37916832538082e-04
3.12245283018868e+00 6.61028239323314e-02 5.36593829936028e-04
3.14773584905660e+00 6.56727307144378e-02 5.35256532284209e-04
3.17301886792453e+00 6.52454358666443e-02 5.33905342880699e-04
3.19830188679245e+00 6.48209211815638e-02 5.32540656589185e-04
3.22358490566038e+00 6.43991685702739e-02 5.31162860044750e-04
3.24886792452830e+00 6.39801600615465e-02 5.29772331455624e-04
3.27415094339623e+00 6.35638778023471e-02 5.28369441992004e-04
3.29943396226415e+00 6.31503040532537e-02 5.26954555172182e-04
3.32471698113208e+00 6.27394211915463e-02 5.25528026234387e-04
3.35000000000000e+00 6.23312117091658e-02 5.24090203530982e-04
3.37528301886792e+00 6.19256582119668e-02 5.22641428290207e-04
3.40056603773585e+00 6.15227434189782e-02 5.21182034780842e-04
3.42584905660377e+00 6.11224501616664e-02 5.19712350473110e-04
3.45113207547170e+00 6.07247613832037e-02 5.18232695829527e-04
3.47641509433962e+00 6.03296601388711e-02 5.16743385556200e-04
3.50169811320755e+00 5.99371295919255e-02 5.15244728013200e-04
3.52698113207547e+00 5.95471530163149e-02 5.13737024612766e-04
3.55226415094340e+00 5.91597137948139e-02 5.12220571078557e-04
3.57754716981132e+00 5.87747954183159e-02 5.10695657204917e-04
3.60283018867925e+00 5.83923814851285e-02 5.09162566987428e-04
3.62811320754717e+00 5.80124557002763e-02 5.07621578749801e-04
3.65339622641509e+00 5.76350018748062e-02 5.06072965268121e-04
3.67867924528302e+00 5.72600039250972e-02 5.04516993557789e-04
3.70396226415094e+00 5.68874458731750e-02 5.02953925995793e-04
3.72924528301887e+00 5.65173118430132e-02 5.01384019762003e-04
3.75452830188679e+00 5.61495860628933e-02 4.99807526269881e-04
3.77981132075472e+00 5.57842528637147e-02 4.98224692298268e-04
3.80509433962264e+00 5.54212966783262e-02 4.96635759753832e-04
3.83037735849057e+00 5.50607020408624e-02 4.95040965772793e-04
3.85566037735849e+00 5.47024535860860e-02 4.93440542820503e-04
3.88094339622642e+00 5.43465360487326e-02 4.91834718789157e-04
3.90622641509434e+00 5.39929342628602e-02 4.90223716787025e-04
3.93150943396226e+00 5.36416331620907e-02 4.88607756150862e-04
3.95679245283019e+00 5.32926177762878e-02 4.86987051920052e-04
3.98207547169811e+00 5.29458732336158e-02 4.85361814301758e-04
4.00735849056604e+00 5.26013847590016e-02 4.83732249693528e-04
4.03264150943396e+00 5.22591376735049e-02 4.82098560452956e-04
4.05792452830189e+00 5.19191173936920e-02 4.80460944978258e-04
4.08320754716981e+00 5.15813094310158e-02 4.78819597787571e-04
4.10849056603774e+00 5.12456993911983e-02 4.77174709596977e-04
4.13377358490566e+00 5.09122729736163e-02 4.75526467115883e-04
4.15905660377358e+00 5.05810159714843e-02 4.73875053964262e-04
4.18433962264151e+00 5.02519142688600e-02 4.72220650180198e-04
4.20962264150943e+00 4.99249538424461e-02 4.70563431719446e-04
4.23490566037736e+00 4.96001207601869e-02 4.68903571383087e-04
4.26018867924528e+00 4.92774011806743e-02 4.67241238596795e-04
4.28547169811321e+00 4.89567813525578e-02 4.65576599475743e-04
4.31075471698113e+00 4.86382476139598e-02 4.63909816888653e-04
4.33603773584906e+00 4.83217863918925e-02 4.62241050520562e-04
4.36132075471698e+00 4.80073842016797e-02 4.60570456676689e-04
4.38660377358491e+00 4.76950276470899e-02 4.58898189116611e-04
4.41188679245283e+00 4.73847034176302e-02 4.57224398594314e-04
4.43716981132075e+00 4.70763982901266e-02 4.55549232391180e-04
4.46245283018868e+00 4.67700991274411e-02 4.53872835160442e-04
4.48773584905660e+00 4.64657928779111e-02 4.52195348717315e-04
4.51301886792453e+00 4.61634665747934e-02 4.50516912091975e-04
4.53830188679245e+00 4.58631073357126e-02 4.48837661581802e-04
4.56358490566038e+00 4.55647023621112e-02 4.47157730802463e-04
4.58886792452830e+00 4.52682389387048e-02 4.45477250501344e-04
4.61415094339623e+00 4.49737044335741e-02 4.43796349318470e-04
4.63943396226415e+00 4.46810862957131e-02 4.42115153357822e-04
4.66471698113208e+00 4.43903720564191e-02 4.40433785752134e-04
4.69000000000000e+00 4.41015493281162e-02 4.38752367433865e-04
4.71528301886792e+00 4.38146058038270e-02 4.37071016936855e-04
4.74056603773585e+00 4.35295292566487e-02 4.35389850439829e-04
4.76584905660377e+00 4.32463075392319e-02 4.33708981809509e-04
4.79113207547170e+00 4.29649285832633e-02 4.32028522423359e-04
4.81641509433962e+00 4.26853803995272e-02 4.30348581871533e-04
4.84169811320755e+00 4.24076510756562e-02 4.28669267555029e-04
4.86698113207547e+00 4.21317287773724e-02 4.26990684277795e-04
4.89226415094340e+00 4.18576017473967e-02 4.25312934958369e-04
4.91754716981132e+00 4.15852583049480e-02 4.23636120442402e-04
4.94283018867925e+00 4.13146868452446e-02 4.21960339539465e-04
4.96811320754717e+00 4.10458758390111e-02 4.20285689059148e-04
4.99339622641509e+00 4.07788138319864e-02 4.18612263846910e-04
5.01867924528302e+00 4.05134894444355e-02 4.16940156616911e-04
5.04396226415094e+00 4.02498913711839e-02 4.15269458595097e-04
5.06924528301887e+00 3.99880083795702e-02 4.13600259145342e-04
5.09452830188679e+00 3.97278293105417e-02 4.11932645390160e-04
5.11981132075472e+00 3.94693430776513e-02 4.10266702862973e-04
5.14509433962264e+00 3.92125386665850e-02 4.08602515332117e-04
5.17037735849057e+00 3.89574051346925e-02 4.06940164831444e-04
5.19566037735849e+00 3.87039316105210e-02 4.05279731690585e-04
5.22094339622642e+00 3.84521072933522e-02 4.03621294565002e-04
5.24622641509434e+00 3.82019214527418e-02 4.01964930278647e-04
5.27150943396226e+00 3.79533634285307e-02 4.00310714414369e-04
5.29679245283019e+00 3.77064226289779e-02 3.98658720966185e-04
5.32207547169811e+00 3.74610885317300e-02 3.97009021986736e-04
5.34735849056604e+00 3.72173506828963e-02 3.95361688186220e-04
5.37264150943396e+00 3.69751986966039e-02 3.93716788767401e-04
5.39792452830189e+00 3.67346222545541e-02 3.92074391451425e-04
5.42320754716981e+00 3.64956111055840e-02 3.90434562503217e-04
5.44849056603774e+00 3.62581550652291e-02 3.88797366756827e-04
5.47377358490566e+00 3.60222440152893e-02 3.87162867467718e-04
5.49905660377359e+00 3.57878679038211e-02 3.85531126855625e-04
5.52433962264151e+00 3.55550167434324e-02 3.83902205781375e-04
5.54962264150943e+00 3.53236806121409e-02 3.82276163418991e-04
5.57490566037736e+00 3.50938496525210e-02 3.80653057806717e-04
5.60018867924528e+00 3.48655140712837e-02 3.79032945692549e-04
5.62547169811321e+00 3.46386641388590e-02 3.77415882556004e-04
5.65075471698113e+00 3.44132901889819e-02 3.75801922629717e-04
5.67603773584906e+00 3.41893826182802e-02 3.74191118920803e-04
5.70132075471698e+00 3.39669318858654e-02 3.72583523072580e-04
5.72660377358491e+00 3.37459285133092e-02 3.70979185864259e-04
5.75188679245283e+00 3.35263630830838e-02 3.69378156910516e-04
5.77716981132075e+00 3.33082262393229e-02 3.67780484356866e-04
5.80245283018868e+00 3.30915086870335e-02 3.66186215387015e-04
5.82773584905660e+00 3.28762011916997e-02 3.64595396078425e-04
5.85301886792453e+00 3.26622945788890e-02 3.63008071420899e-04
5.87830188679245e+00 3.24497797338622e-02 3.61424285334941e-04
5.90358490566038e+00 3.22386476011842e-02 3.59844080689877e-04
5.92886792452830e+00 3.20288891843384e-02 3.58267499174424e-04
5.95415094339623e+00 3.18204955456911e-02 3.56694581757439e-04
5.97943396226415e+00 3.16134578050618e-02 3.55125368408536e-04
6.00471698113208e+00 3.14077671403997e-02 3.53559897814926e-04
6.03000000000000e+00 3.12034147870537e-02 3.51998207849292e-04
6.05528301886792e+00 3.10003920373993e-02 3.50440335434798e-04
6.08056603773585e+00 3.07986902404673e-02 3.48886316560985e-04
6.10584905660377e+00 3.05983008015757e-02 3.47336186299446e-04
6.13113207547170e+00 3.03992151819632e-02 3.45789978682156e-04
6.15641509433962e+00 3.02014248987439e-02 3.44247727130021e-04
6.18169811320755e+00 3.00049215235845e-02 3.42709464191287e-04
6.20698113207547e+00 2.98096966833122e-02 3.41175221276363e-04
6.23226415094340e+00 2.96157420592334e-02 3.39645029093195e-04
6.25754716981132e+00 2.94230493867795e-02 3.38118917520436e-04
6.28283018867925e+00 2.92316104551546e-02 3.36596915621225e-04
6.30811320754717e+00 2.90414171069859e-02 3.35079051656862e-04
6.33339622641509e+00 2.88524612379758e-02 3.33565353100272e-04
6.35867924528302e+00 2.86647347965569e-02 3.32055846522297e-04
6.38396226415094e+00 2.84782297838384e-02 3.30550557987507e-04
6.40924528301887e+00 2.82929382523914e-02 3.29049512810884e-04
6.43452830188679e+00 2.81088523067888e-02 3.27552735311370e-04
6.45981132075472e+00 2.79259641029747e-02 3.26060249214002e-04
6.48509433962264e+00 2.77442658479299e-02 3.24572077531570e-04
6.51037735849057e+00 2.75637497993397e-02 3.23088242576465e-04
6.53566037735849e+00 2.73844082652644e-02 3.21608765972375e-04
6.56094339622642e+00 2.72062336038114e-02 3.20133668665977e-04
6.58622641509434e+00 2.70292182228094e-02 3.18662970820586e-04
6.61150943396226e+00 2.68533545797489e-02 3.17196692182133e-04
6.63679245283019e+00 2.66786351806650e-02 3.15734851852898e-04
6.66207547169811e+00 2.65050525806180e-02 3.14277468062244e-04
6.68735849056604e+00 2.63325993831082e-02 3.12824558538514e-04
6.71264150943396e+00 2.61612682397607e-02 3.11376140398559e-04
6.73792452830189e+00 2.59910518500122e-02 3.09932230157908e-04
6.76320754716981e+00 2.58219429607999e-02 3.08492843740901e-04
6.78849056603774e+00 2.56539343662527e-02 3.07057996490855e-04
6.81377358490566e+00 2.54870189073841e-02 3.05627703070632e-04
6.83905660377359e+00 2.53211894720272e-02 3.04201977801218e-04
6.86433962264151e+00 2.51564389938067e-02 3.02780834451335e-04
6.88962264150943e+00 2.49927604525670e-02 3.01364286024147e-04
6.91490566037736e+00 2.48301468738286e-02 2.99952345101419e-04
6.94018867924528e+00 2.46685913284910e-02 2.98545023740383e-04
6.96547169811321e+00 2.45080869325372e-02 2.97142333482559e-04
6.99075471698113e+00 2.43486268467406e-02 2.95744285362562e-04
7.01603773584906e+00 2.41902042763738e-02 2.94350889916798e-04
7.04132075471698e+00 2.40328124709183e-02 2.92962157090705e-04
7.06660377358491e+00 2.38764447239975e-02 2.91578096552209e-04
7.09188679245283e+00 2.37210943724276e-02 2.90198717495947e-04
7.11716981132076e+00 2.35667547966004e-02 2.88824028444899e-04
7.14245283018868e+00 2.34134194199775e-02 2.87454037568994e-04
7.16773584905660e+00 2.32610817088102e-02 2.86088752588902e-04
7.19301886792453e+00 2.31097351718610e-02 2.84728180783721e-04
7.21830188679245e+00 2.29593733601276e-02 2.83372328998562e-04
7.24358490566038e+00 2.28099898665674e-02 2.82021203652107e-04
7.26886792452830e+00 2.26615783258247e-02 2.80674810650005e-04
7.29415094339623e+00 2.25141324141603e-02 2.79333155675320e-04
7.31943396226415e+00 2.23676458485767e-02 2.77996244006272e-04
7.34471698113208e+00 2.22221123871588e-02 2.76664080331636e-04
7.37000000000000e+00 2.20775258286043e-02 2.75336669046025e-04
7.39528301886792e+00 2.19338800119587e-02 2.74014014160060e-04
7.42056603773585e+00 2.17911688163537e-02 2.72696119307075e-04
7.44584905660377e+00 2.16493861607458e-02 2.71382987749724e-04
7.47113207547170e+00 2.15085260036575e-02 2.70074622298581e-04
7.49641509433962e+00 2.13685823431048e-02 2.68771025583587e-04
7.52169811320755e+00 2.12295492157831e-02 2.67472199883089e-04
7.54698113207547e+00 2.10914206973746e-02 2.66178146950699e-04
7.57226415094340e+00 2.09541909021076e-02 2.64888868291275e-04
7.59754716981132e+00 2.08178539825057e-02 2.63604365076501e-04
7.62283018867925e+00 2.06824041291387e-02 2.62324638150813e-04
7.64811320754717e+00 2.05478355703749e-02 2.61049688037212e-04
7.67339622641509e+00 2.04141425721354e-02 2.59779514943001e-04
7.69867924528302e+00 2.02813194376498e-02 2.58514118683808e-04
7.72396226415094e+00 2.01493605073826e-02 2.57253498935341e-04
7.74924528301887e+00 2.00182601582813e-02 2.55997655074244e-04
7.77452830188679e+00 1.98880128040503e-02 2.54746586016830e-04
7.79981132075472e+00 1.97586128947408e-02 2.53500290475095e-04
7.82509433962264e+00 1.96300549165145e-02 2.52258766878042e-04
7.85037735849057e+00 1.95023333914082e-02 2.51022013376744e-04
7.87566037735849e+00 1.93754428771010e-02 2.49790027849410e-04
7.90094339622642e+00 1.92493779666817e-02 2.48562807906453e-04
7.92622641509434e+00 1.91241332884191e-02 2.47340350819456e-04
7.95150943396226e+00 1.89997035056879e-02 2.46122653754841e-04
7.97679245283019e+00 1.88760833162732e-02 2.44909713625686e-04
