Energy (eV)          EEDF (eV^-(3/2))     First Anisotropy
4.22619047619048e-02 3.40443838179652e-02 1.96859700834730e-05
1.26785714285714e-01 3.37658746015347e-02 3.24833680196942e-05
2.11309523809524e-01 3.34896438044310e-02 4.28188183934076e-05
2.95833333333333e-01 3.32156727867892e-02 5.06325576741226e-05
3.80357142857143e-01 3.29439430632472e-02 5.71177896476597e-05
4.64880952380952e-01 3.26744362972665e-02 6.27265173825983e-05
5.49404761904762e-01 3.24071343040481e-02 6.76930801878488e-05
6.33928571428572e-01 3.21420190462730e-02 7.21592407498076e-05
7.18452380952381e-01 3.18790726352324e-02 7.62191837778890e-05
8.02976190476191e-01 3.16182773276866e-02 7.99395930558729e-05
8.87500000000000e-01 3.13596155263035e-02 8.33699167663168e-05
9.72023809523810e-01 3.11030697770525e-02 8.65481392731196e-05
1.05654761904762e+00 3.08486227702147e-02 8.95042636453252e-05
1.14107142857143e+00 3.05962573352055e-02 9.22625303304333e-05
1.22559523809524e+00 3.03459564431944e-02 9.48428937270045e-05
1.31011904761905e+00 3.00977032046551e-02 9.72620412222995e-05
1.39464285714286e+00 2.98514808682265e-02 9.95341171122895e-05
1.47916666666667e+00 2.96072728195836e-02 1.01671250402614e-04
1.56369047619048e+00 2.93650625803170e-02 1.03683948049196e-04
1.64821428571429e+00 2.91248338068214e-02 1.05581393557331e-04
1.73273809523810e+00 2.88865702891932e-02 1.07371677527950e-04
1.81726190476190e+00 2.86502559501372e-02 1.09061978308982e-04
1.90178571428571e+00 2.84158748438776e-02 1.10658705425487e-04
1.98630952380952e+00 2.81834111550913e-02 1.12167614814765e-04
2.07083333333333e+00 2.79528491978358e-02 1.13593902403771e-04
2.15535714285714e+00 2.77241734144911e-02 1.14942280837741e-04
2.23988095238095e+00 2.74973683747098e-02 1.16217042954463e-04
2.32440476190476e+00 2.72724187743760e-02 1.17422114720680e-04
2.40892857142857e+00 2.70493094345728e-02 1.18561099710257e-04
2.49345238095238e+00 2.68280253005583e-02 1.19637316733471e-04
2.57797619047619e+00 2.66085514407496e-02 1.20653831875242e-04
2.66250000000000e+00 2.63908730457151e-02 1.21613485823636e-04
2.74702380952381e+00 2.61749754279701e-02 1.22518917837152e-04
2.83154761904762e+00 2.59608440185670e-02 1.23372585972926e-04
2.91607142857143e+00 2.57484643685680e-02 1.24176784650918e-04
3.00059523809524e+00 2.55378221472385e-02 1.24933660544556e-04
3.08511904761905e+00 2.53289031410798e-02 1.25645226104005e-04
3.16964285714286e+00 2.51216932528705e-02 1.26313371571727e-04
3.25416666666667e+00 2.49161785007152e-02 1.26939875607219e-04
3.33869047619048e+00 2.47123450171006e-02 1.27526414715336e-04
3.42321428571429e+00 2.45101790479605e-02 1.28074571641104e-04
3.50773809523810e+00 2.43096669517472e-02 1.28585842868128e-04
3.59226190476191e+00 2.41107951985112e-02 1.29061645336795e-04
3.67678571428571e+00 2.39135503689874e-02 1.29503322480150e-04
3.76130952380952e+00 2.37179191536916e-02 1.29912149662323e-04
3.84583333333333e+00 2.35238883520209e-02 1.30289339091416e-04
3.93035714285714e+00 2.33314448713638e-02 1.30636044268017e-04
4.01488095238095e+00 2.31405757262161e-02 1.30953364023360e-04
4.09940476190476e+00 2.29512680373049e-02 1.31242346193110e-04
4.18392857142857e+00 2.27635090307198e-02 1.31503990966998e-04
4.26845238095238e+00 2.25772860370504e-02 1.31739253949230e-04
4.35297619047619e+00 2.23925864905320e-02 1.31949048960218e-04
4.43750000000000e+00 2.22093979281973e-02 1.32134250533846e-04
4.52202380952381e+00 2.20277079894390e-02 1.32295696498467e-04
4.60654761904762e+00 2.18475044139520e-02 1.32434190003247e-04
4.69107142857143e+00 2.16687750421441e-02 1.32550501373918e-04
4.77559523809524e+00 2.14915078138974e-02 1.32645370189201e-04
4.86011904761905e+00 2.13156907677554e-02 1.32719506917934e-04
4.94464285714286e+00 2.11413120401152e-02 1.32773594505862e-04
5.02916666666667e+00 2.09683598644273e-02 1.32808289847952e-04
5.11369047619048e+00 2.07968225704015e-02 1.32824225156410e-04
5.19821428571429e+00 2.06266885832195e-02 1.32822009233493e-04
5.28273809523810e+00 2.04579464227540e-02 1.32802228657344e-04
5.36726190476191e+00 2.02905847027938e-02 1.32765448888259e-04
5.45178571428571e+00 2.01245921302753e-02 1.32712215301730e-04
5.53630952380952e+00 1.99599575045212e-02 1.32643054154578e-04
5.62083333333333e+00 1.97966697164844e-02 1.32558473489589e-04
5.70535714285714e+00 1.96347177479980e-02 1.32458963983154e-04
5.78988095238095e+00 1.94740906710324e-02 1.32344999740665e-04
5.87440476190476e+00 1.93147776469576e-02 1.32217039043581e-04
5.95892857142857e+00 1.91567679258120e-02 1.32075525051801e-04
6.04345238095238e+00 1.90000508455766e-02 1.31920886464717e-04
6.12797619047619e+00 1.88446158314562e-02 1.31753538143970e-04
6.21250000000000e+00 1.86904523951654e-02 1.31573881648937e-04
6.29702380952381e+00 1.85375501344640e-02 1.31382305947100e-04
6.38154761904762e+00 1.83858987317191e-02 1.31179187832733e-04
6.46607142857143e+00 1.82354879539522e-02 1.30964892315870e-04
6.55059523809524e+00 1.80863076518983e-02 1.30739773250535e-04
6.63511904761905e+00 1.79383477593210e-02 1.30504173724519e-04
6.71964285714286e+00 1.77915982923339e-02 1.30258426479637e-04
6.80416666666667e+00 1.76460493487258e-02 1.30002854310340e-04
6.88869047619048e+00 1.75016911072938e-02 1.29737770442070e-04
6.97321428571429e+00 1.73585138271795e-02 1.29463478890617e-04
7.05773809523810e+00 1.72165078472125e-02 1.29180274803733e-04
7.14226190476190e+00 1.70756635852579e-02 1.28888444786073e-04
7.22678571428571e+00 1.69359715375701e-02 1.28588267208391e-04
7.31130952380952e+00 1.67974222781516e-02 1.28280012502100e-04
7.39583333333333e+00 1.66600064581164e-02 1.27963943440082e-04
7.48035714285714e+00 1.65237148050601e-02 1.27640315404356e-04
7.56488095238095e+00 1.63885381224333e-02 1.27309376641543e-04
7.64940476190476e+00 1.62544672889216e-02 1.26971368506801e-04
7.73392857142857e+00 1.61214932578299e-02 1.26626525696859e-04
7.81845238095238e+00 1.59896070564719e-02 1.26275076472753e-04
7.90297619047619e+00 1.58587997855650e-02 1.25917242872874e-04
7.98750000000000e+00 1.57290626186293e-02 1.25553240878472e-04
8.07202380952381e+00 1.56003868015517e-02 1.25183280724773e-04
8.15654761904762e+00 1.54727636515130e-02 1.24807567010231e-04
8.24107142857143e+00 1.53461845568884e-02 1.24426298797087e-04
8.32559523809524e+00 1.52206409765028e-02 1.24039669901882e-04
8.41011904761905e+00 1.50961244390544e-02 1.23647869020472e-04
8.49464285714286e+00 1.49726265425430e-02 1.23251079886257e-04
8.57916666666667e+00 1.48501389537034e-02 1.22849481422123e-04
8.66369047619048e+00 1.47286534074430e-02 1.22443247886404e-04
8.74821428571429e+00 1.46081617062837e-02 1.22032549013160e-04
8.83273809523810e+00 1.44886557198093e-02 1.21617550147073e-04
8.91726190476191e+00 1.43701273841166e-02 1.21198412373201e-04
9.00178571428571e+00 1.42525687012711e-02 1.20775292641782e-04
9.08630952380952e+00 1.41359717387678e-02 1.20348343888451e-04
9.17083333333333e+00 1.40203286289956e-02 1.19917715150016e-04
9.25535714285714e+00 1.39056315687064e-02 1.19483551675982e-04
9.33988095238095e+00 1.37918728184889e-02 1.19045995036025e-04
9.42440476190476e+00 1.36790447022459e-02 1.18605183223627e-04
9.50892857142857e+00 1.35671396066767e-02 1.18161250756040e-04
9.59345238095238e+00 1.34561499807632e-02 1.17714328770710e-04
9.67797619047619e+00 1.33460683352603e-02 1.17264545118365e-04
9.76250000000000e+00 1.32368872421909e-02 1.16812024423674e-04
9.84702380952381e+00 1.31285993344541e-02 1.16356888260295e-04
9.93154761904762e+00 1.30211973049962e-02 1.15899255175587e-04
1.00160714285714e+01 1.29146739066525e-02 1.15439240627877e-04
1.01005952380952e+01 1.28090219518566e-02 1.14976957380909e-04
1.01851190476190e+01 1.27042343113168e-02 1.14512515710027e-04
1.02696428571429e+01 1.26003039132661e-02 1.14046022473735e-04
1.03541666666667e+01 1.24972237458262e-02 1.13577581943266e-04
1.04386904761905e+01 1.23949868534542e-02 1.13107296375754e-04
1.05232142857143e+01 1.22935863375090e-02 1.12635265231481e-04
1.06077380952381e+01 1.21930153557856e-02 1.12161585523377e-04
1.06922619047619e+01 1.20932671220540e-02 1.11686351879656e-04
1.07767857142857e+01 1.19943349055993e-02 1.11209656603652e-04
1.08613095238095e+01 1.18962120307707e-02 1.10731589732349e-04
1.09458333333333e+01 1.17988918765291e-02 1.10252239093754e-04
1.10303571428571e+01 1.17023678760007e-02 1.09771690361617e-04
1.11148809523810e+01 1.16066335160339e-02 1.09290027348765e-04
1.11994047619048e+01 1.15116823359152e-02 1.08807331333970e-04
1.12839285714286e+01 1.14175079294880e-02 1.08323681598364e-04
1.13684523809524e+01 1.13241039421441e-02 1.07839155966071e-04
1.14529761904762e+01 1.12314640712610e-02 1.07353830109329e-04
1.15375000000000e+01 1.11395820657766e-02 1.06867777843783e-04
1.16220238095238e+01 1.10484517257667e-02 1.06381071173037e-04
1.17065476190476e+01 1.09580669020275e-02 1.05893780331800e-04
1.17910714285714e+01 1.08684214956611e-02 1.05405973828285e-04
1.18755952380952e+01 1.07795094576629e-02 1.04917718485301e-04
1.19601190476190e+01 1.06913247885143e-02 1.04429079693176e-04
1.20446428571429e+01 1.06038615370532e-02 1.03940120804379e-04
1.21291666666667e+01 1.05171138022623e-02 1.03450903603040e-04
1.22136904761905e+01 1.04310757306633e-02 1.02961488778634e-04
1.22982142857143e+01 1.03457415166638e-02 1.02471935302208e-04
1.23827380952381e+01 1.02611054021659e-02 1.01982300682413e-04
1.24672619047619e+01 1.01771616761773e-02 1.01492640999423e-04
1.25517857142857e+01 1.00939046744255e-02 1.01003010937391e-04
1.26363095238095e+01 1.00113287789768e-02 1.00513463816406e-04
1.27208333333333e+01 9.92942841785639e-03 1.00024051624019e-04
1.28053571428571e+01 9.84819806467276e-03 9.95348250453567e-05
1.28898809523810e+01 9.76763223824450e-03 9.90458336802093e-05
1.29744047619048e+01 9.68772550161709e-03 9.85571255052193e-05
1.30589285714286e+01 9.60847246355089e-03 9.80687472816852e-05
1.31434523809524e+01 9.52986777628766e-03 9.75807449673761e-05
1.32279761904762e+01 9.45190613581798e-03 9.70931631631804e-05
1.33125000000000e+01 9.37458228152335e-03 9.66060453337839e-05
1.33970238095238e+01 9.29789099582093e-03 9.61194338328681e-05
1.34815476190476e+01 9.22182710381181e-03 9.56333699276044e-05
1.35660714285714e+01 9.14638547293202e-03 9.51478938228745e-05
1.36505952380952e+01 9.07156101260594e-03 9.46630446847898e-05
1.37351190476190e+01 8.99734867390281e-03 9.41788608309553e-05
1.38196428571429e+01 8.92374344866542e-03 9.36953792469542e-05
1.39041666666667e+01 8.85074037077641e-03 9.32126359471344e-05
1.39886904761905e+01 8.77833451420635e-03 9.27306663391715e-05
1.40732142857143e+01 8.70652099322455e-03 9.22495047270448e-05
1.41577380952381e+01 8.63529496206938e-03 9.17691845050427e-05
1.42422619047619e+01 8.56465161462130e-03 9.12897381776643e-05
1.43267857142857e+01 8.49458618407816e-03 9.08111973786171e-05
1.44113095238095e+01 8.42509394263434e-03 9.03335928896459e-05
1.44958333333333e+01 8.35617020116137e-03 8.98569546592179e-05
1.45803571428571e+01 8.28781030889147e-03 8.93813118203257e-05
1.46648809523810e+01 8.22000965310373e-03 8.89066928560571e-05
1.47494047619048e+01 8.15276365835894e-03 8.84331251696702e-05
1.48339285714286e+01 8.08606778756308e-03 8.79606354009156e-05
1.49184523809524e+01 8.01991754027833e-03 8.74892497458438e-05
1.50029761904762e+01 7.95430845288397e-03 8.70189935152272e-05
1.50875000000000e+01 7.88923609827514e-03 8.65498913037877e-05
1.51720238095238e+01 7.82469608556396e-03 8.60819670054041e-05
1.52565476190476e+01 7.76068405978342e-03 8.56152438279145e-05
1.53410714285714e+01 7.69719570159369e-03 8.51497443078221e-05
1.54255952380952e+01 7.63422672699048e-03 8.46854903246101e-05
1.55101190476190e+01 7.57177288701597e-03 8.42225032472713e-05
1.55946428571429e+01 7.50982996707653e-03 8.37608035473367e-05
1.56791666666667e+01 7.44839378785398e-03 8.33004110806291e-05
1.57636904761905e+01 7.38746020381887e-03 8.28413453722169e-05
1.58482142857143e+01 7.32702510335539e-03 8.23836252191935e-05
1.59327380952381e+01 7.26708440848393e-03 8.19272688407272e-05
1.60172619047619e+01 7.20763407458591e-03 8.14722938903436e-05
1.61017857142857e+01 7.14867009013058e-03 8.10187174676849e-05
1.61863095238095e+01 7.09018847640490e-03 8.05665561301738e-05
1.62708333333333e+01 7.03218528724478e-03 8.01158259046324e-05
1.63553571428571e+01 6.97465660876882e-03 7.96665422983673e-05
1.64398809523810e+01 6.91759855911418e-03 7.92187204277903e-05
1.65244047619048e+01 6.86100728783376e-03 7.87723746737603e-05
1.66089285714286e+01 6.80487897666667e-03 7.83275189301335e-05
1.66934523809524e+01 6.74920983824260e-03 7.78841668552603e-05
1.67779761904762e+01 6.69399611617485e-03 7.74423315183684e-05
1.68625000000000e+01 6.63923408480689e-03 7.70020255314540e-05
1.69470238095238e+01 6.58492004896081e-03 7.65632610588626e-05
1.70315476190476e+01 6.53105034368813e-03 7.61260498266385e-05
1.71160714285714e+01 6.47762133402259e-03 7.56904031318219e-05
1.72005952380952e+01 6.42462941473477e-03 7.52563318515142e-05
1.72851190476190e+01 6.37207101008881e-03 7.48238465574640e-05
1.73696428571429e+01 6.31994257330232e-03 7.43929572053530e-05
1.74541666666667e+01 6.26824058721005e-03 7.39636733572100e-05
1.75386904761905e+01 6.21696156311691e-03 7.35360044065425e-05
1.76232142857143e+01 6.16610204086803e-03 7.31099592596656e-05
1.77077380952381e+01 6.11565858861530e-03 7.26855464533239e-05
1.77922619047619e+01 6.06562780258575e-03 7.22627741625672e-05
1.78767857142857e+01 6.01600630685175e-03 7.18416502082722e-05
1.79613095238095e+01 5.96679075310353e-03 7.14221820646321e-05
1.80458333333333e+01 5.91797782042309e-03 7.10043768666242e-05
1.81303571428571e+01 5.86956421506013e-03 7.05882414171539e-05
1.82148809523810e+01 5.82154667020973e-03 7.01737822882005e-05
1.82994047619048e+01 5.77392194553297e-03 6.97610055435762e-05
1.83839285714286e+01 5.72668682772092e-03 6.93499169360203e-05
1.84684523809524e+01 5.67983812948941e-03 6.89405221067361e-05
1.85529761904762e+01 5.63337268962877e-03 6.85328263011503e-05
1.86375000000000e+01 5.58728737279044e-03 6.81268344728659e-05
1.87220238095238e+01 5.54157906927535e-03 6.77225512898675e-05
1.88065476190476e+01 5.49624469482420e-03 6.73199811405827e-05
1.88910714285714e+01 5.45128119040936e-03 6.69191281399471e-05
1.89755952380952e+01 5.40668552202844e-03 6.65199961353009e-05
1.90601190476191e+01 5.36245468049952e-03 6.61225887969095e-05
1.91446428571429e+01 5.31858568103000e-03 6.57269093676554e-05
1.92291666666667e+01 5.27507556370440e-03 6.53329608399855e-05
1.93136904761905e+01 5.23192139259050e-03 6.49407461351331e-05
1.93982142857143e+01 5.18912025577426e-03 6.45502678465586e-05
1.94827380952381e+01 5.14666926516333e-03 6.41615283330163e-05
1.95672619047619e+01 5.10456555629222e-03 6.37745297237273e-05
1.96517857142857e+01 5.06280628812882e-03 6.33892739232980e-05
1.97363095238095e+01 5.02138864288300e-03 6.30057626166375e-05
1.98208333333333e+01 4.98030982581635e-03 6.26239972738876e-05
1.99053571428571e+01 4.93956706505353e-03 6.22439791550891e-05
1.99898809523810e+01 4.89915761139533e-03 6.18657093904345e-05
2.00744047619048e+01 4.85907873793441e-03 6.14891887565546e-05
2.01589285714286e+01 4.81932774047155e-03 6.11144178338283e-05
2.02434523809524e+01 4.77990193672871e-03 6.07413971657540e-05
2.03279761904762e+01 4.74079866637093e-03 6.03701270296967e-05
2.04125000000000e+01 4.70201529082686e-03 6.00006075194585e-05
2.04970238095238e+01 4.66354919311064e-03 5.96328385493877e-05
2.05815476190476e+01 4.62539777764536e-03 5.92668198583795e-05
2.06660714285714e+01 4.58755847008802e-03 5.89025510138848e-05
2.07505952380952e+01 4.55002871715571e-03 5.85400314158312e-05
2.08351190476190e+01 4.51280598645335e-03 5.81792603686541e-05
2.09196428571429e+01 4.47588776612716e-03 5.78202368790205e-05
2.10041666666667e+01 4.43927156522580e-03 5.74629597974635e-05
2.10886904761905e+01 4.40295491299790e-03 5.71074279618724e-05
2.11732142857143e+01 4.36693535890477e-03 5.67536399902455e-05
2.12577380952381e+01 4.33121047245498e-03 5.64015943548692e-05
2.13422619047619e+01 4.29577784304043e-03 5.60512893857523e-05
2.14267857142857e+01 4.26063507977354e-03 5.57027232738873e-05
2.15113095238095e+01 4.22577981132614e-03 5.53558940745243e-05
2.15958333333333e+01 4.19120968576936e-03 5.50107997104516e-05
2.16803571428571e+01 4.15692237041490e-03 5.46674379751106e-05
2.17648809523810e+01 4.12291555165768e-03 5.43258065966696e-05
2.18494047619048e+01 4.08918693466608e-03 5.39859030569393e-05
2.19339285714286e+01 4.05573424369109e-03 5.36477247176243e-05
2.20184523809524e+01 4.02255522144554e-03 5.33112689482562e-05
2.21029761904762e+01 3.98964762910860e-03 5.29765329406983e-05
2.21875000000000e+01 3.95700924617474e-03 5.26435137751496e-05
2.22720238095238e+01 3.92463787030381e-03 5.23122084228860e-05
2.23565476190476e+01 3.89253131717254e-03 5.19826137489289e-05
2.24410714285714e+01 3.86068742032711e-03 5.16547265147243e-05
2.25255952380952e+01 3.82910403103699e-03 5.13285433807552e-05
2.26101190476190e+01 3.79777901814992e-03 5.10040609642150e-05
2.26946428571429e+01 3.76671026781187e-03 5.06812756750728e-05
2.27791666666667e+01 3.73589568373591e-03 5.03601838299579e-05
2.28636904761905e+01 3.70533318664644e-03 5.00407817675908e-05
2.29482142857143e+01 3.67502071427789e-03 4.97230656808714e-05
2.30327380952381e+01 3.64495622123567e-03 4.94070316763171e-05
2.31172619047619e+01 3.61513767885805e-03 4.90926757763644e-05
2.32017857142857e+01 3.58556307507927e-03 4.87799939215392e-05
2.32863095238095e+01 3.55623041429388e-03 4.84689819726481e-05
2.33708333333333e+01 3.52713771722204e-03 4.81596357129820e-05
2.34553571428571e+01 3.49828302077592e-03 4.78519508503910e-05
2.35398809523810e+01 3.46966437792728e-03 4.75459230687053e-05
2.36244047619048e+01 3.44127985745653e-03 4.72415478807741e-05
2.37089285714286e+01 3.41312754418348e-03 4.69388207302026e-05
2.37934523809524e+01 3.38520553847457e-03 4.66377370944753e-05
2.38779761904762e+01 3.35751195623670e-03 4.63382923344513e-05
2.39625000000000e+01 3.33004492879012e-03 4.60404817473840e-05
2.40470238095238e+01 3.30280260274228e-03 4.57443005687505e-05
2.41315476190476e+01 3.27578313986282e-03 4.54497439740297e-05
2.42160714285714e+01 3.24898471695955e-03 4.51568070804987e-05
2.43005952380952e+01 3.22240552575540e-03 4.48654849489858e-05
2.43851190476190e+01 3.19604377276638e-03 4.45757726302446e-05
2.44696428571429e+01 3.16989767907429e-03 4.42876650317483e-05
2.45541666666667e+01 3.14396548052776e-03 4.40011570096215e-05
2.46386904761905e+01 3.11824542729991e-03 4.37162434618468e-05
2.47232142857143e+01 3.09273578387881e-03 4.34329191918685e-05
2.48077380952381e+01 3.06743482895035e-03 4.31511789564226e-05
2.48922619047619e+01 3.04234085528209e-03 4.28710174670731e-05
2.49767857142857e+01 3.01745216960803e-03 4.25924293916568e-05
2.50613095238095e+01 2.99276709251442e-03 4.23154093557470e-05
2.51458333333333e+01 2.96828395832643e-03 4.20399519441312e-05
2.52303571428571e+01 2.94400111499573e-03 4.17660517021908e-05
2.53148809523810e+01 2.91991692398901e-03 4.14937031773351e-05
2.53994047619048e+01 2.89602976008389e-03 4.12229007994436e-05
2.54839285714286e+01 2.87233801154176e-03 4.09536389631308e-05
2.55684523809524e+01 2.84884007971460e-03 4.06859121111547e-05
2.56529761904762e+01 2.82553437903257e-03 4.04197146120098e-05
2.57375000000000e+01 2.80241933689700e-03 4.01550408026742e-05
2.58220238095238e+01 2.77949339357428e-03 3.98918849898186e-05
2.59065476190476e+01 2.75675500209062e-03 3.96302414509961e-05
2.59910714285714e+01 2.73420262812769e-03 3.93701044358345e-05
2.60755952380952e+01 2.71183474991905e-03 3.91114681671993e-05
2.61601190476190e+01 2.68964985814752e-03 3.88543268786291e-05
2.62446428571429e+01 2.66764645575985e-03 3.85986747058516e-05
2.63291666666667e+01 2.64582305811766e-03 3.83445057612323e-05
2.64136904761905e+01 2.62417819264365e-03 3.80918142092648e-05
2.64982142857143e+01 2.60271039880733e-03 3.78405941555162e-05
2.65827380952381e+01 2.58141822802648e-03 3.75908396852535e-05
2.66672619047619e+01 2.56030024356941e-03 3.73425448644639e-05
