Energy (eV)          EEDF (eV^-(3/2))     First Anisotropy
1.66393442622951e-02 7.89510369814124e-02 3.79129694165234e-05
4.99180327868852e-02 7.85053207218789e-02 6.26389506032914e-05
8.31967213114754e-02 7.80621207433412e-02 8.27802678928186e-05
1.16475409836066e-01 7.76214228396934e-02 9.81365403329741e-05
1.49754098360656e-01 7.71832128863380e-02 1.10989271005484e-04
1.83032786885246e-01 7.67474768357502e-02 1.22199522946867e-04
2.16311475409836e-01 7.63142007244355e-02 1.32212141231208e-04
2.49590163934426e-01 7.58833706624646e-02 1.41295309909684e-04
2.82868852459016e-01 7.54549728426427e-02 1.49626602040981e-04
3.16147540983607e-01 7.50289935321225e-02 1.57331318141518e-04
3.49426229508197e-01 7.46054190787013e-02 1.64502061380668e-04
3.82704918032787e-01 7.41842359045242e-02 1.71209729321721e-04
4.15983606557377e-01 7.37654305108205e-02 1.77510136565731e-04
4.49262295081967e-01 7.33489894728424e-02 1.83448229032199e-04
4.82540983606557e-01 7.29348994436177e-02 1.89060885152079e-04
5.15819672131148e-01 7.25231471497076e-02 1.94378845710004e-04
5.49098360655738e-01 7.21137193942830e-02 1.99428083561408e-04
5.82377049180328e-01 7.17066030534669e-02 2.04230800879256e-04
6.15655737704918e-01 7.13017850789162e-02 2.08806171116268e-04
6.48934426229508e-01 7.08992524946040e-02 2.13170901705843e-04
6.82213114754098e-01 7.04989923990236e-02 2.17339667888190e-04
7.15491803278689e-01 7.01009919623135e-02 2.21325452311184e-04
7.48770491803279e-01 6.97052384276318e-02 2.25139813895100e-04
7.82049180327869e-01 6.93117191106964e-02 2.28793104273098e-04
8.15327868852459e-01 6.89204213977566e-02 2.32294642631099e-04
8.48606557377049e-01 6.85313327472942e-02 2.35652859174668e-04
8.81885245901639e-01 6.81444406876236e-02 2.38875413618149e-04
9.15163934426229e-01 6.77597328183915e-02 2.41969293825008e-04
9.48442622950820e-01 6.73771968083702e-02 2.44940898604062e-04
9.81721311475410e-01 6.69968203967884e-02 2.47796107621830e-04
1.01500000000000e+00 6.66185913912888e-02 2.50540340637749e-04
1.04827868852459e+00 6.62424976705298e-02 2.53178609098370e-04
1.08155737704918e+00 6.58685271776463e-02 2.55715559336369e-04
1.11483606557377e+00 6.54966679260427e-02 2.58155509698031e-04
1.14811475409836e+00 6.51269079967879e-02 2.60502484390972e-04
1.18139344262295e+00 6.47592355382208e-02 2.62760241742288e-04
1.21467213114754e+00 6.43936387656057e-02 2.64932299282033e-04
1.24795081967213e+00 6.40301059607345e-02 2.67021955287436e-04
1.28122950819672e+00 6.36686254744028e-02 2.69032309835940e-04
1.31450819672131e+00 6.33091857173936e-02 2.70966281000810e-04
1.34778688524590e+00 6.29517751688423e-02 2.72826619127759e-04
1.38106557377049e+00 6.25963823729183e-02 2.74615922122037e-04
1.41434426229508e+00 6.22429959384592e-02 2.76336647141685e-04
1.44762295081967e+00 6.18916045386196e-02 2.77991121575576e-04
1.48090163934426e+00 6.15421969104978e-02 2.79581552456215e-04
1.51418032786885e+00 6.11947618570898e-02 2.81110036755984e-04
1.54745901639344e+00 6.08492882399208e-02 2.82578568499996e-04
1.58073770491803e+00 6.05057649857659e-02 2.83989045120408e-04
1.61401639344262e+00 6.01641810839073e-02 2.85343275498237e-04
1.64729508196721e+00 5.98245255857885e-02 2.86642985514857e-04
1.68057377049180e+00 5.94867876046666e-02 2.87889823135267e-04
1.71385245901639e+00 5.91509563172247e-02 2.89085364695332e-04
1.74713114754098e+00 5.88170209572746e-02 2.90231118656480e-04
1.78040983606557e+00 5.84849708214156e-02 2.91328528976052e-04
1.81368852459016e+00 5.81547952666722e-02 2.92378980269763e-04
1.84696721311475e+00 5.78264837101469e-02 2.93383800949378e-04
1.88024590163934e+00 5.75000256286919e-02 2.94344266513385e-04
1.91352459016393e+00 5.71754105585682e-02 2.95261602211728e-04
1.94680327868852e+00 5.68526280967722e-02 2.96136986993147e-04
1.98008196721311e+00 5.65316678956721e-02 2.96971555345706e-04
2.01336065573771e+00 5.62125196677482e-02 2.97766398943964e-04
2.04663934426229e+00 5.58951731835580e-02 2.98522570048816e-04
2.07991803278689e+00 5.55796182714033e-02 2.99241083202281e-04
2.11319672131148e+00 5.52658448170152e-02 2.99922917168887e-04
2.14647540983607e+00 5.49538427632244e-02 3.00569016405579e-04
2.17975409836066e+00 5.46436021110654e-02 3.01180293782583e-04
2.21303278688525e+00 5.43351129151425e-02 3.01757631469897e-04
2.24631147540984e+00 5.40283652876585e-02 3.02301881717408e-04
2.27959016393443e+00 5.37233493966360e-02 3.02813869288243e-04
2.31286885245902e+00 5.34200554656017e-02 3.03294392401630e-04
2.34614754098361e+00 5.31184737732777e-02 3.03744223950043e-04
2.37942622950820e+00 5.28185946532674e-02 3.04164112330474e-04
2.41270491803279e+00 5.25204084949839e-02 3.04554783461787e-04
2.44598360655738e+00 5.22239057395986e-02 3.04916941164061e-04
2.47926229508197e+00 5.19290768835062e-02 3.05251267475092e-04
2.51254098360656e+00 5.16359124767519e-02 3.05558424507469e-04
2.54581967213115e+00 5.13444031227299e-02 3.05839054973832e-04
2.57909836065574e+00 5.10545394778847e-02 3.06093782698289e-04
2.61237704918033e+00 5.07663122525116e-02 3.06323214247662e-04
2.64565573770492e+00 5.04797122071283e-02 3.06527939061502e-04
2.67893442622951e+00 5.01947301555337e-02 3.06708529539898e-04
2.71221311475410e+00 4.99113569633868e-02 3.06865542574324e-04
2.74549180327869e+00 4.96295835479123e-02 3.06999519857830e-04
2.77877049180328e+00 4.93494008776124e-02 3.07110988462021e-04
2.81204918032787e+00 4.90707999719771e-02 3.07200461119225e-04
2.84532786885246e+00 4.87937719021685e-02 3.07268437548501e-04
2.87860655737705e+00 4.85183077877957e-02 3.07315404411551e-04
2.91188524590164e+00 4.82443987995893e-02 3.07341835240484e-04
2.94516393442623e+00 4.79720361581250e-02 3.07348191705162e-04
2.97844262295082e+00 4.77012111335406e-02 3.07334923765157e-04
3.01172131147541e+00 4.74319150452597e-02 3.07302470076737e-04
3.04500000000000e+00 4.71641392617119e-02 3.07251258135406e-04
3.07827868852459e+00 4.68978752009208e-02 3.07181705390077e-04
3.11155737704918e+00 4.66331143276177e-02 3.07094219098639e-04
3.14483606557377e+00 4.63698481555965e-02 3.06989196163742e-04
3.17811475409836e+00 4.61080682465594e-02 3.06867024212369e-04
3.21139344262295e+00 4.58477662098452e-02 3.06728081650370e-04
3.24467213114754e+00 4.55889337021635e-02 3.06572737958106e-04
3.27795081967213e+00 4.53315624273258e-02 3.06401353745456e-04
3.31122950819672e+00 4.50756441367518e-02 3.06214281711914e-04
3.34450819672131e+00 4.48211706268729e-02 3.06011866444676e-04
3.37778688524590e+00 4.45681337412166e-02 3.05794444202193e-04
3.41106557377049e+00 4.43165253693568e-02 3.05562343853732e-04
3.44434426229508e+00 4.40663374466541e-02 3.05315886873093e-04
3.47762295081967e+00 4.38175619539989e-02 3.05055387558835e-04
3.51090163934426e+00 4.35701909175529e-02 3.04781153033309e-04
3.54418032786885e+00 4.33242164091878e-02 3.04493484086085e-04
3.57745901639344e+00 4.30796305441369e-02 3.04192674940217e-04
3.61073770491803e+00 4.28364254828493e-02 3.03879013007524e-04
3.64401639344262e+00 4.25945934300313e-02 3.03552779719916e-04
3.67729508196721e+00 4.23541266343977e-02 3.03214250484607e-04
3.71057377049180e+00 4.21150173884233e-02 3.02863694652228e-04
3.74385245901639e+00 4.18772580287291e-02 3.02501376279517e-04
3.77713114754098e+00 4.16408409339243e-02 3.02127553881846e-04
3.81040983606557e+00 4.14057585262862e-02 3.01742480176756e-04
3.84368852459016e+00 4.11720032708718e-02 3.01346402839631e-04
3.87696721311475e+00 4.09395676752753e-02 3.00939564437642e-04
3.91024590163934e+00 4.07084442893901e-02 3.00522202563780e-04
3.94352459016393e+00 4.04786257051688e-02 3.00094549780795e-04
3.97680327868852e+00 4.02501045569595e-02 2.99656834307315e-04
4.01008196721311e+00 4.00228735195390e-02 2.99209279763145e-04
4.04336065573770e+00 3.97969253096191e-02 2.98752104907254e-04
4.07663934426230e+00 3.95722526850289e-02 2.98285524321032e-04
4.10991803278689e+00 3.93488484444821e-02 2.97809748325823e-04
4.14319672131148e+00 3.91267054273480e-02 2.97324983088361e-04
4.17647540983607e+00 3.89058165134211e-02 2.96831430549521e-04
4.20975409836066e+00 3.86861746232133e-02 2.96329289047056e-04
4.24303278688525e+00 3.84677727161562e-02 2.95818753060424e-04
4.27631147540984e+00 3.82506037919557e-02 2.95300012949522e-04
4.30959016393443e+00 3.80346608898371e-02 2.94773255577020e-04
4.34286885245902e+00 3.78199370883225e-02 2.94238664216440e-04
4.37614754098361e+00 3.76064255050094e-02 2.93696418636444e-04
4.40942622950820e+00 3.73941192963498e-02 2.93146695019916e-04
4.44270491803279e+00 3.71830116579049e-02 2.92589666533489e-04
4.47598360655738e+00 3.69730958226962e-02 2.92025503076063e-04
4.50926229508197e+00 3.67643650624281e-02 2.91454371022113e-04
4.54254098360656e+00 3.65568126867885e-02 2.90876433792240e-04
4.57581967213115e+00 3.63504320432356e-02 2.90291851756046e-04
4.60909836065574e+00 3.61452165167846e-02 2.89700782146656e-04
4.64237704918033e+00 3.59411595302335e-02 2.89103379590206e-04
4.67565573770492e+00 3.57382545426307e-02 2.88499795860012e-04
4.70893442622951e+00 3.55364950503942e-02 2.87890179626128e-04
4.74221311475410e+00 3.53358745866581e-02 2.87274676986670e-04
4.77549180327869e+00 3.51363867210643e-02 2.86653431368916e-04
4.80877049180328e+00 3.49380250595575e-02 2.86026583586301e-04
4.84204918032787e+00 3.47407832441799e-02 2.85394271750172e-04
4.87532786885246e+00 3.45446549532684e-02 2.84756631758485e-04
4.90860655737705e+00 3.43496339000426e-02 2.84113797057704e-04
4.94188524590164e+00 3.41557138336189e-02 2.83465898400634e-04
4.97516393442623e+00 3.39628885384033e-02 2.82813064337880e-04
5.00844262295082e+00 3.37711518338911e-02 2.82155421118217e-04
5.04172131147541e+00 3.35804975744697e-02 2.81493092735805e-04
5.07500000000000e+00 3.33909196492218e-02 2.80826200841057e-04
5.10827868852459e+00 3.32024119820967e-02 2.80154865193383e-04
5.14155737704918e+00 3.30149685306064e-02 2.79479203431943e-04
5.17483606557377e+00 3.28285832867474e-02 2.78799330842573e-04
5.20811475409836e+00 3.26432502764342e-02 2.78115360813910e-04
5.24139344262295e+00 3.24589635593072e-02 2.77427404738712e-04
5.27467213114754e+00 3.22757172285437e-02 2.76735572053148e-04
5.30795081967213e+00 3.20935054106676e-02 2.76039970148176e-04
5.34122950819672e+00 3.19123222656997e-02 2.75340704790569e-04
5.37450819672131e+00 3.17321619859502e-02 2.74637879902721e-04
5.40778688524590e+00 3.15530187968582e-02 2.73931597339268e-04
5.44106557377049e+00 3.13748869564629e-02 2.73221957311653e-04
5.47434426229508e+00 3.11977607552194e-02 2.72509058291260e-04
5.50762295081967e+00 3.10216345158162e-02 2.71792997042619e-04
5.54090163934426e+00 3.08465025929927e-02 2.71073868536048e-04
5.57418032786885e+00 3.06723593736702e-02 2.70351766340064e-04
5.60745901639344e+00 3.04991992758323e-02 2.69626782410837e-04
5.64073770491803e+00 3.03270167492904e-02 2.68899006878536e-04
5.67401639344262e+00 3.01558062751889e-02 2.68168528443268e-04
5.70729508196721e+00 2.99855623658292e-02 2.67435434280909e-04
5.74057377049180e+00 2.98162795644932e-02 2.66699809957657e-04
5.77385245901639e+00 2.96479524455591e-02 2.65961739799943e-04
5.80713114754098e+00 2.94805756134516e-02 2.65221306692112e-04
5.84040983606557e+00 2.93141437033493e-02 2.64478591871309e-04
5.87368852459016e+00 2.91486513807177e-02 2.63733675301122e-04
5.90696721311475e+00 2.89840933411382e-02 2.62986635579898e-04
5.94024590163934e+00 2.88204643101380e-02 2.62237549965115e-04
5.97352459016393e+00 2.86577590430217e-02 2.61486494290429e-04
6.00680327868852e+00 2.84959723249706e-02 2.60733543311794e-04
6.04008196721311e+00 2.83350989700672e-02 2.59978770514493e-04
6.07336065573771e+00 2.81751338219416e-02 2.59222247917532e-04
6.10663934426229e+00 2.80160717533344e-02 2.58464046423561e-04
6.13991803278688e+00 2.78579076659314e-02 2.57704235730314e-04
6.17319672131148e+00 2.77006364902013e-02 2.56942884351590e-04
6.20647540983607e+00 2.75442531852326e-02 2.56180059536985e-04
6.23975409836066e+00 2.73887527388205e-02 2.55415827596347e-04
6.27303278688525e+00 2.72341301665576e-02 2.54650253715894e-04
6.30631147540984e+00 2.70803805124261e-02 2.53883401771856e-04
6.33959016393443e+00 2.69274988483878e-02 2.53115334658695e-04
6.37286885245902e+00 2.67754802742251e-02 2.52346114203956e-04
6.40614754098361e+00 2.66243199173848e-02 2.51575801186348e-04
6.43942622950820e+00 2.64740129328214e-02 2.50804455258233e-04
6.47270491803279e+00 2.63245545030724e-02 2.50032135250355e-04
6.50598360655738e+00 2.61759398374094e-02 2.49258898996697e-04
6.53926229508197e+00 2.60281641723824e-02 2.48484803157155e-04
6.57254098360656e+00 2.58812227714335e-02 2.47709903525792e-04
6.60581967213115e+00 2.57351109247444e-02 2.46934254949011e-04
6.63909836065574e+00 2.55898239490865e-02 2.46157911250640e-04
6.67237704918033e+00 2.54453571878854e-02 2.45380925520724e-04
6.70565573770492e+00 2.53017060104226e-02 2.44603349947840e-04
6.73893442622951e+00 2.51588658123395e-02 2.43825235649366e-04
6.77221311475410e+00 2.50168320152713e-02 2.43046632963652e-04
6.80549180327869e+00 2.48756000667003e-02 2.42267591371221e-04
6.83877049180328e+00 2.47351654398097e-02 2.41488159508730e-04
6.87204918032787e+00 2.45955236333391e-02 2.40708385097001e-04
6.90532786885246e+00 2.44566701716397e-02 2.39928315212778e-04
6.93860655737705e+00 2.43186006039281e-02 2.39147996129236e-04
6.97188524590164e+00 2.41813105047492e-02 2.38367473154432e-04
7.00516393442623e+00 2.40447954736322e-02 2.37586790906475e-04
7.03844262295082e+00 2.39090511349485e-02 2.36805993238022e-04
7.07172131147541e+00 2.37740731377722e-02 2.36025123248424e-04
7.10500000000000e+00 2.36398571557408e-02 2.35244223214901e-04
7.13827868852459e+00 2.35063988871019e-02 2.34463334848425e-04
7.17155737704918e+00 2.33736940540148e-02 2.33682499142034e-04
7.20483606557377e+00 2.32417384029770e-02 2.32901756217259e-04
7.23811475409836e+00 2.31105277044989e-02 2.32121145583370e-04
7.27139344262295e+00 2.29800577529686e-02 2.31340706065180e-04
7.30467213114754e+00 2.28503243665166e-02 2.30560475813759e-04
7.33795081967213e+00 2.27213233868825e-02 2.29780492240474e-04
7.37122950819672e+00 2.25930506794541e-02 2.29000792258294e-04
7.40450819672131e+00 2.24655021326131e-02 2.28221412137505e-04
7.43778688524590e+00 2.23386736581282e-02 2.27442387359768e-04
7.47106557377049e+00 2.22125611908479e-02 2.26663752862570e-04
7.50434426229508e+00 2.20871606885705e-02 2.25885542970205e-04
7.53762295081967e+00 2.19624681319144e-02 2.25107791403369e-04
7.57090163934426e+00 2.18384795241894e-02 2.24330531215911e-04
7.60418032786885e+00 2.17151908914300e-02 2.23553795022578e-04
7.63745901639344e+00 2.15925982817812e-02 2.22777614861906e-04
7.67073770491803e+00 2.14706977658611e-02 2.22002022057401e-04
7.70401639344262e+00 2.13494854364708e-02 2.21227047448267e-04
7.73729508196721e+00 2.12289574084695e-02 2.20452721323555e-04
7.77057377049180e+00 2.11091098186500e-02 2.19679073361408e-04
7.80385245901639e+00 2.09899388257667e-02 2.18906132845831e-04
7.83713114754098e+00 2.08714406099541e-02 2.18133928535416e-04
7.87040983606557e+00 2.07536113730653e-02 2.17362488530511e-04
7.90368852459016e+00 2.06364473383957e-02 2.16591840492868e-04
7.93696721311475e+00 2.05199447505618e-02 2.15822011582392e-04
7.97024590163934e+00 2.04040998753811e-02 2.15053028464701e-04
8.00352459016393e+00 2.02889089997525e-02 2.14284917253090e-04
8.03680327868852e+00 2.01743684316786e-02 2.13517703713318e-04
8.07008196721311e+00 2.00604744997206e-02 2.12751413138840e-04
8.10336065573770e+00 1.99472235533096e-02 2.11986070224527e-04
8.13663934426230e+00 1.98346119624859e-02 2.11221699274266e-04
8.16991803278689e+00 1.97226361177825e-02 2.10458324140555e-04
8.20319672131147e+00 1.96112924301098e-02 2.09695968231229e-04
8.23647540983607e+00 1.95005773306401e-02 2.08934654454160e-04
8.26975409836066e+00 1.93904872708262e-02 2.08174405410829e-04
8.30303278688525e+00 1.92810187218878e-02 2.07415243277630e-04
8.33631147540984e+00 1.91721681751000e-02 2.06657189685894e-04
8.36959016393443e+00 1.90639321415461e-02 2.05900265918155e-04
8.40286885245902e+00 1.89563071520062e-02 2.05144492850558e-04
8.43614754098361e+00 1.88492897568458e-02 2.04389890958952e-04
8.46942622950820e+00 1.87428765259050e-02 2.03636480265959e-04
8.50270491803279e+00 1.86370640485131e-02 2.02884280524179e-04
8.53598360655738e+00 1.85318489330050e-02 2.02133311103347e-04
8.56926229508197e+00 1.84272278069884e-02 2.01383590876241e-04
8.60254098360656e+00 1.83231973171095e-02 2.00635138404370e-04
8.63581967213115e+00 1.82197541289460e-02 1.99887971883057e-04
8.66909836065574e+00 1.81168949268999e-02 1.99142109090712e-04
8.70237704918033e+00 1.80146164142082e-02 1.98397567563510e-04
8.73565573770492e+00 1.79129153124850e-02 1.97654364487402e-04
8.76893442622951e+00 1.78117883619703e-02 1.96912516588850e-04
8.80221311475410e+00 1.77112323213070e-02 1.96172040311950e-04
8.83549180327869e+00 1.76112439674370e-02 1.95432951765794e-04
8.86877049180328e+00 1.75118200954978e-02 1.94695266729355e-04
8.90204918032787e+00 1.74129575187200e-02 1.93959000603027e-04
8.93532786885246e+00 1.73146530684344e-02 1.93224168574072e-04
8.96860655737705e+00 1.72169035936408e-02 1.92490785513937e-04
9.00188524590164e+00 1.71197059612381e-02 1.91758865874294e-04
9.03516393442623e+00 1.70230570558131e-02 1.91028423854848e-04
9.06844262295082e+00 1.69269537795405e-02 1.90299473353118e-04
9.10172131147541e+00 1.68313930520838e-02 1.89572027968822e-04
9.13500000000000e+00 1.67363718104963e-02 1.88846100957736e-04
9.16827868852459e+00 1.66418870092260e-02 1.88121705388371e-04
9.20155737704918e+00 1.65479356197083e-02 1.87398854044240e-04
9.23483606557377e+00 1.64545146305795e-02 1.86677559325113e-04
9.26811475409836e+00 1.63616210474770e-02 1.85957833405981e-04
9.30139344262295e+00 1.62692518929422e-02 1.85239688189137e-04
9.33467213114754e+00 1.61774042063261e-02 1.84523135308209e-04
9.36795081967213e+00 1.60860750436937e-02 1.83808186084034e-04
9.40122950819672e+00 1.59952614778264e-02 1.83094851673242e-04
9.43450819672131e+00 1.59049605978378e-02 1.82383142975350e-04
9.46778688524590e+00 1.58151695093718e-02 1.81673070538708e-04
9.50106557377049e+00 1.57258853344123e-02 1.80964644711210e-04
9.53434426229508e+00 1.56371052111911e-02 1.80257875594681e-04
9.56762295081967e+00 1.55488262940958e-02 1.79552773048471e-04
9.60090163934426e+00 1.54610457535793e-02 1.78849346647392e-04
9.63418032786885e+00 1.53737607761582e-02 1.78147605822628e-04
9.66745901639344e+00 1.52869685640521e-02 1.77447559773297e-04
9.70073770491803e+00 1.52006663353657e-02 1.76749217376991e-04
9.73401639344262e+00 1.51148513239094e-02 1.76052587332707e-04
9.76729508196721e+00 1.50295207791095e-02 1.75357678117390e-04
9.80057377049180e+00 1.49446719659211e-02 1.74664497945516e-04
9.83385245901639e+00 1.48603021648249e-02 1.73973054903742e-04
9.86713114754098e+00 1.47764086714834e-02 1.73283356866215e-04
9.90040983606557e+00 1.46929887969124e-02 1.72595411408889e-04
9.93368852459016e+00 1.46100398673083e-02 1.71909225946068e-04
9.96696721311475e+00 1.45275592239622e-02 1.71224807688732e-04
1.00002459016393e+01 1.44455442231752e-02 1.70542163439156e-04
1.00335245901639e+01 1.43639922365763e-02 1.69861300262779e-04
1.00668032786885e+01 1.42829006497432e-02 1.69182224988027e-04
1.01000819672131e+01 1.42022668635012e-02 1.68504943785739e-04
1.01333606557377e+01 1.41220882933492e-02 1.67829462893916e-04
1.01666393442623e+01 1.40423623693771e-02 1.67155788364607e-04
1.01999180327869e+01 1.39630865361823e-02 1.66483926066226e-04
1.02331967213115e+01 1.38842582527892e-02 1.65813881686195e-04
1.02664754098361e+01 1.38058749925675e-02 1.65145660734066e-04
1.02997540983607e+01 1.37279342431505e-02 1.64479268152852e-04
1.03330327868852e+01 1.36504335071014e-02 1.63814709499608e-04
1.03663114754098e+01 1.35733702995839e-02 1.63151990160629e-04
1.03995901639344e+01 1.34967421505424e-02 1.62491114558321e-04
1.04328688524590e+01 1.34205466038658e-02 1.61832087350230e-04
1.04661475409836e+01 1.33447812173087e-02 1.61174913031026e-04
1.04994262295082e+01 1.32694435624134e-02 1.60519595934579e-04
