Energy (eV)          EEDF (eV^-(3/2))     First Anisotropy
2.26530612244898e-03 2.18868332225122e+00 1.15179006811792e-03
6.79591836734694e-03 2.17327838868488e+00 1.90163236444872e-03
1.13265306122449e-02 2.15798188193485e+00 2.50957450260193e-03
1.58571428571429e-02 2.14279303888213e+00 2.97094894468398e-03
2.03877551020408e-02 2.12771110166062e+00 3.35534068566671e-03
2.49183673469388e-02 2.11273531790253e+00 3.68906505422859e-03
2.94489795918367e-02 2.09786494038672e+00 3.98574327038906e-03
3.39795918367347e-02 2.08309922727273e+00 4.25360255478906e-03
3.85102040816327e-02 2.06843744183830e+00 4.49810049929792e-03
4.30408163265306e-02 2.05387885263580e+00 4.72309522038309e-03
4.75714285714286e-02 2.03942273331779e+00 4.93144329589066e-03
5.21020408163265e-02 2.02506836262699e+00 5.12533573558078e-03
5.66326530612245e-02 2.01081502443765e+00 5.30650057755634e-03
6.11632653061225e-02 1.99666200761368e+00 5.47633189027223e-03
6.56938775510204e-02 1.98260860607123e+00 5.63597558376739e-03
7.02244897959184e-02 1.96865411865237e+00 5.78638856883487e-03
7.47551020408163e-02 1.95479784917512e+00 5.92838077674960e-03
7.92857142857143e-02 1.94103910631913e+00 6.06264577327591e-03
8.38163265306122e-02 1.92737720366597e+00 6.18978355303937e-03
8.83469387755102e-02 1.91381145959446e+00 6.31031783832258e-03
9.28775510204082e-02 1.90034119731312e+00 6.42470942471054e-03
9.74081632653061e-02 1.88696574477715e+00 6.53336664030939e-03
1.01938775510204e-01 1.87368443466003e+00 6.63665363572409e-03
1.06469387755102e-01 1.86049660430810e+00 6.73489702696532e-03
1.11000000000000e-01 1.84740159584465e+00 6.82839132111830e-03
1.15530612244898e-01 1.83439875594385e+00 6.91740335198642e-03
1.20061224489796e-01 1.82148743587884e+00 7.00217593054684e-03
1.24591836734694e-01 1.80866699139024e+00 7.08293086618851e-03
1.29122448979592e-01 1.79593678295833e+00 7.15987155595821e-03
1.33653061224490e-01 1.78329617545869e+00 7.23318517688844e-03
1.38183673469388e-01 1.77074453823731e+00 7.30304449975170e-03
1.42714285714286e-01 1.75828124499540e+00 7.36960944434927e-03
1.47244897959184e-01 1.74590567401569e+00 7.43302846164699e-03
1.51775510204082e-01 1.73361720786769e+00 7.49343973195918e-03
1.56306122448980e-01 1.72141523346657e+00 7.55097215920309e-03
1.60836734693878e-01 1.70929914197056e+00 7.60574624163430e-03
1.65367346938776e-01 1.69726832897227e+00 7.65787487569429e-03
1.69897959183673e-01 1.68532219424200e+00 7.70746406577931e-03
1.74428571428571e-01 1.67346014177451e+00 7.75461350794285e-03
1.78959183673469e-01 1.66168157969655e+00 7.79941710990404e-03
1.83489795918367e-01 1.64998592043065e+00 7.84196349123624e-03
1.88020408163265e-01 1.63837258046858e+00 7.88233643161118e-03
1.92551020408163e-01 1.62684098040885e+00 7.92061523186343e-03
1.97081632653061e-01 1.61539054487242e+00 7.95687504038008e-03
2.01612244897959e-01 1.60402070264453e+00 7.99118718193114e-03
2.06142857142857e-01 1.59273088647250e+00 8.02361945601228e-03
2.10673469387755e-01 1.58152053309596e+00 8.05423636939653e-03
2.15204081632653e-01 1.57038908316947e+00 8.08309934911165e-03
2.19734693877551e-01 1.55933598138633e+00 8.11026696877439e-03
2.24265306122449e-01 1.54836067629649e+00 8.13579515611376e-03
2.28795918367347e-01 1.53746262033101e+00 8.15973733946876e-03
2.33326530612245e-01 1.52664126977535e+00 8.18214462330860e-03
2.37857142857143e-01 1.51589608469861e+00 8.20306590992627e-03
2.42387755102041e-01 1.50522652905824e+00 8.22254804900115e-03
2.46918367346939e-01 1.49463207053960e+00 8.24063597630863e-03
2.51448979591837e-01 1.48411218057498e+00 8.25737280979989e-03
2.55979591836735e-01 1.47366633427786e+00 8.27279993999230e-03
2.60510204081633e-01 1.46329401053567e+00 8.28695714153065e-03
2.65040816326531e-01 1.45299469186305e+00 8.29988267746278e-03
2.69571428571429e-01 1.44276786441716e+00 8.31161336609367e-03
2.74102040816327e-01 1.43261301793631e+00 8.32218464466384e-03
2.78632653061224e-01 1.42252964582242e+00 8.33163065497273e-03
2.83163265306122e-01 1.41251724500634e+00 8.33998432397522e-03
2.87693877551020e-01 1.40257531595984e+00 8.34727741081047e-03
2.92224489795918e-01 1.39270336263827e+00 8.35354055220485e-03
2.96755102040816e-01 1.38290089255412e+00 8.35880332986431e-03
3.01285714285714e-01 1.37316741665276e+00 8.36309433430852e-03
3.05816326530612e-01 1.36350244932185e+00 8.36644119813731e-03
3.10346938775510e-01 1.35390550833738e+00 8.36887062864112e-03
3.14877551020408e-01 1.34437611492963e+00 8.37040846203711e-03
3.19408163265306e-01 1.33491379366810e+00 8.37107971513474e-03
3.23938775510204e-01 1.32551807246863e+00 8.37090860885442e-03
3.28469387755102e-01 1.31618848254259e+00 8.36991859171014e-03
3.33000000000000e-01 1.30692455845616e+00 8.36813238432685e-03
3.37530612244898e-01 1.29772583802343e+00 8.36557202206542e-03
3.42061224489796e-01 1.28859186231152e+00 8.36225887152517e-03
3.46591836734694e-01 1.27952217559273e+00 8.35821364739993e-03
3.51122448979592e-01 1.27051632539783e+00 8.35345644966444e-03
3.55653061224490e-01 1.26157386241648e+00 8.34800679934463e-03
3.60183673469388e-01 1.25269434050078e+00 8.34188364989396e-03
3.64714285714286e-01 1.24387731661987e+00 8.33510539917516e-03
3.69244897959184e-01 1.23512235090816e+00 8.32768992100818e-03
3.73775510204082e-01 1.22642900657219e+00 8.31965459564372e-03
3.78306122448980e-01 1.21779684989285e+00 8.31101631735126e-03
3.82836734693878e-01 1.20922545018228e+00 8.30179150277149e-03
3.87367346938776e-01 1.20071437982755e+00 8.29199611805170e-03
3.91897959183673e-01 1.19226321420341e+00 8.28164570515246e-03
3.96428571428571e-01 1.18387153167327e+00 8.27075538661527e-03
4.00959183673469e-01 1.17553891354831e+00 8.25933987118286e-03
4.05489795918367e-01 1.16726494412706e+00 8.24741347742173e-03
4.10020408163265e-01 1.15904921061346e+00 8.23499015670743e-03
4.14551020408163e-01 1.15089130311687e+00 8.22208349586736e-03
4.19081632653061e-01 1.14279081461316e+00 8.20870672073257e-03
4.23612244897959e-01 1.13474734098054e+00 8.19487271692591e-03
4.28142857142857e-01 1.12676048092265e+00 8.18059405015123e-03
4.32673469387755e-01 1.11882983596757e+00 8.16588296723581e-03
4.37204081632653e-01 1.11095501043077e+00 8.15075139810048e-03
4.41734693877551e-01 1.10313561144771e+00 8.13521097423032e-03
4.46265306122449e-01 1.09537124890133e+00 8.11927304675106e-03
4.50795918367347e-01 1.08766153542034e+00 8.10294868219356e-03
4.55326530612245e-01 1.08000608636000e+00 8.08624867953313e-03
4.59857142857143e-01 1.07240451976705e+00 8.06918356639576e-03
4.64387755102041e-01 1.06485645640858e+00 8.05176361511455e-03
4.68918367346939e-01 1.05736151970467e+00 8.03399885849570e-03
4.73448979591837e-01 1.04991933572601e+00 8.01589908859330e-03
4.77979591836735e-01 1.04252953316036e+00 7.99747385639657e-03
4.82510204081633e-01 1.03519174333885e+00 7.97873248634635e-03
4.87040816326531e-01 1.02790560017234e+00 7.95968409062505e-03
4.91571428571429e-01 1.02067074014842e+00 7.94033756727216e-03
4.96102040816327e-01 1.01348680229936e+00 7.92070159919864e-03
5.00632653061225e-01 1.00635342822614e+00 7.90078466739721e-03
5.05163265306122e-01 9.99270262038108e-01 7.88059506396960e-03
5.09693877551020e-01 9.92236950349561e-01 7.86014088975011e-03
5.14224489795918e-01 9.85253142249084e-01 7.83943005280108e-03
5.18755102040816e-01 9.78318489321418e-01 7.81847028050172e-03
5.23285714285714e-01 9.71432645590309e-01 7.79726913149178e-03
5.27816326530612e-01 9.64595267514661e-01 7.77583399292627e-03
5.32346938775510e-01 9.57806013959163e-01 7.75417207857597e-03
5.36877551020408e-01 9.51064546214249e-01 7.73229043994463e-03
5.41408163265306e-01 9.44370527941864e-01 7.71019597727194e-03
5.45938775510204e-01 9.37723625171263e-01 7.68789543651658e-03
5.50469387755102e-01 9.31123506270861e-01 7.66539540715827e-03
5.55000000000000e-01 9.24569841966442e-01 7.64270233246810e-03
5.59530612244898e-01 9.18062305289651e-01 7.61982251968661e-03
5.64061224489796e-01 9.11600571573483e-01 7.59676213681415e-03
5.68591836734694e-01 9.05184318425286e-01 7.57352721018839e-03
5.73122448979592e-01 8.98813225743387e-01 7.55012363400835e-03
5.77653061224490e-01 8.92486975668103e-01 7.52655717978878e-03
5.82183673469388e-01 8.86205252576988e-01 7.50283349301469e-03
5.86714285714286e-01 8.79967743058916e-01 7.47895809055568e-03
5.91244897959184e-01 8.73774135929255e-01 7.45493636953065e-03
5.95775510204082e-01 8.67624122183251e-01 7.43077361611690e-03
6.00306122448980e-01 8.61517394991051e-01 7.40647500211819e-03
6.04836734693878e-01 8.55453649672817e-01 7.38204558226294e-03
6.09367346938776e-01 8.49432583712583e-01 7.35749030248143e-03
6.13897959183674e-01 8.43453896713835e-01 7.33281400813770e-03
6.18428571428571e-01 8.37517290394375e-01 7.30802144055012e-03
6.22959183673469e-01 8.31622468562391e-01 7.28311723421154e-03
6.27489795918367e-01 8.25769137129114e-01 7.25810592453696e-03
6.32020408163265e-01 8.19957004066466e-01 7.23299195558026e-03
6.36551020408163e-01 8.14185779401779e-01 7.20777967653401e-03
6.41081632653061e-01 8.08455175194789e-01 7.18247333890291e-03
6.45612244897959e-01 8.02764905549182e-01 7.15707710377585e-03
6.50142857142857e-01 7.97114686572187e-01 7.13159504907439e-03
6.54673469387755e-01 7.91504236369180e-01 7.10603116605723e-03
6.59204081632653e-01 7.85933275021554e-01 7.08038935647019e-03
6.63734693877551e-01 7.80401524597243e-01 7.05467343938692e-03
6.68265306122449e-01 7.74908709112152e-01 7.02888715803392e-03
6.72795918367347e-01 7.69454554524665e-01 7.00303417396333e-03
6.77326530612245e-01 7.64038788722016e-01 6.97711807363214e-03
6.81857142857143e-01 7.58661141499142e-01 6.95114236306373e-03
6.86387755102041e-01 7.53321344568025e-01 6.92511047417742e-03
6.90918367346939e-01 7.48019131521292e-01 6.89902577111385e-03
6.95448979591837e-01 7.42754237826681e-01 6.87289154683458e-03
6.99979591836735e-01 7.37526400806677e-01 6.84671102030514e-03
7.04510204081633e-01 7.32335359647023e-01 6.82048734247590e-03
7.09040816326531e-01 7.27180855361913e-01 6.79422360226206e-03
7.13571428571429e-01 7.22062630788408e-01 6.76792282319227e-03
7.18102040816327e-01 7.16980430566827e-01 6.74158796061651e-03
7.22632653061224e-01 7.11934001148485e-01 6.71522190736716e-03
7.27163265306123e-01 7.06923090762391e-01 6.68882749942029e-03
7.31693877551020e-01 7.01947449409640e-01 6.66240751260192e-03
7.36224489795918e-01 6.97006828844508e-01 6.63596465983191e-03
7.40755102040816e-01 6.92100982581491e-01 6.60950159648775e-03
7.45285714285714e-01 6.87229665863424e-01 6.58302092577200e-03
7.49816326530612e-01 6.82392635655859e-01 6.55652519548323e-03
7.54346938775510e-01 6.77589650628839e-01 6.53001689530310e-03
7.58877551020408e-01 6.72820471163287e-01 6.50349846188443e-03
7.63408163265306e-01 6.68084859320474e-01 6.47697228394820e-03
7.67938775510204e-01 6.63382578836392e-01 6.45044069912415e-03
7.72469387755102e-01 6.58713395104180e-01 6.42390599128352e-03
7.77000000000000e-01 6.54077075179918e-01 6.39737039537441e-03
7.81530612244898e-01 6.49473387753360e-01 6.37083610226607e-03
7.86061224489796e-01 6.44902103142331e-01 6.34430525566145e-03
7.90591836734694e-01 6.40362993275765e-01 6.31777994948429e-03
7.95122448979592e-01 6.35855831698948e-01 6.29126223247545e-03
7.99653061224490e-01 6.31380393545467e-01 6.26475411280370e-03
8.04183673469388e-01 6.26936455531621e-01 6.23825755505371e-03
8.08714285714286e-01 6.22523795940054e-01 6.21177447766605e-03
8.13244897959184e-01 6.18142194624496e-01 6.18530675731648e-03
8.17775510204082e-01 6.13791432982851e-01 6.15885623330602e-03
8.22306122448980e-01 6.09471293951643e-01 6.13242470462377e-03
8.26836734693878e-01 6.05181561990221e-01 6.10601392744801e-03
8.31367346938776e-01 6.00922023085021e-01 6.07962561931704e-03
8.35897959183673e-01 5.96692464723757e-01 6.05326146331417e-03
8.40428571428571e-01 5.92492675889895e-01 6.02692310521010e-03
8.44959183673469e-01 5.88322447047407e-01 6.00061215102177e-03
8.49489795918367e-01 5.84181570144605e-01 5.97433017099002e-03
8.54020408163265e-01 5.80069838589358e-01 5.94807870357387e-03
8.58551020408163e-01 5.75987047243621e-01 5.92185925266912e-03
8.63081632653061e-01 5.71932992408705e-01 5.89567328522798e-03
8.67612244897959e-01 5.67907471828717e-01 5.86952223505681e-03
8.72142857142857e-01 5.63910284666762e-01 5.84340750662923e-03
8.76673469387755e-01 5.59941231499517e-01 5.81733047238178e-03
8.81204081632653e-01 5.56000114303014e-01 5.79129247039550e-03
8.85734693877551e-01 5.52086736455700e-01 5.76529480802321e-03
8.90265306122449e-01 5.48200902715584e-01 5.73933876553245e-03
8.94795918367347e-01 5.44342419214871e-01 5.71342559203416e-03
8.99326530612245e-01 5.40511093450299e-01 5.68755650901387e-03
9.03857142857143e-01 5.36706734269507e-01 5.66173270656652e-03
9.08387755102041e-01 5.32929151873658e-01 5.63595534681272e-03
9.12918367346939e-01 5.29178157795717e-01 5.61022556733333e-03
9.17448979591837e-01 5.25453564895168e-01 5.58454447864839e-03
9.21979591836735e-01 5.21755187344839e-01 5.55891316204662e-03
9.26510204081633e-01 5.18082840633222e-01 5.53333267285436e-03
9.31040816326531e-01 5.14436341543586e-01 5.50780404372052e-03
9.35571428571429e-01 5.10815508148767e-01 5.48232828217082e-03
9.40102040816327e-01 5.07220159798427e-01 5.45690636849788e-03
9.44632653061225e-01 5.03650117121098e-01 5.43153925888813e-03
9.49163265306122e-01 5.00105202004091e-01 5.40622788856889e-03
9.53693877551020e-01 4.96585237588362e-01 5.38097316943437e-03
9.58224489795918e-01 4.93090048256184e-01 5.35577598799433e-03
9.62755102040816e-01 4.89619459632944e-01 5.33063720837052e-03
9.67285714285714e-01 4.86173298567807e-01 5.30555767530989e-03
9.71816326530612e-01 4.82751393128658e-01 5.28053821188192e-03
9.76346938775510e-01 4.79353572590184e-01 5.25557961748753e-03
9.80877551020408e-01 4.75979667435425e-01 5.23068267072782e-03
9.85408163265306e-01 4.72629509337175e-01 5.20584813229291e-03
9.89938775510204e-01 4.69302931152994e-01 5.18107674272969e-03
9.94469387755102e-01 4.65999766913685e-01 5.15636922050679e-03
9.99000000000000e-01 4.62719851824622e-01 5.13172626943032e-03
1.00353061224490e+00 4.59463022235369e-01 5.10714856503171e-03
1.00806122448980e+00 4.56229115678619e-01 5.08263676536476e-03
1.01259183673469e+00 4.53017970811630e-01 5.05819152208534e-03
1.01712244897959e+00 4.49829427427241e-01 5.03381347283988e-03
1.02165306122449e+00 4.46663326416241e-01 5.00950321503221e-03
1.02618367346939e+00 4.43519509849087e-01 4.98526132879323e-03
1.03071428571429e+00 4.40397820877728e-01 4.96108840019505e-03
1.03524489795918e+00 4.37298103758049e-01 4.93698498702781e-03
1.03977551020408e+00 4.34220203842162e-01 4.91295164134987e-03
1.04430612244898e+00 4.31163967542647e-01 4.88898887757837e-03
1.04883673469388e+00 4.28129242409510e-01 4.86509719436360e-03
1.05336734693878e+00 4.25115877037369e-01 4.84127709671737e-03
1.05789795918367e+00 4.22123721086496e-01 4.81752907365911e-03
1.06242857142857e+00 4.19152625248550e-01 4.79385357845413e-03
1.06695918367347e+00 4.16202441320025e-01 4.77025104971574e-03
1.07148979591837e+00 4.13273022113400e-01 4.74672193274476e-03
1.07602040816327e+00 4.10364221477094e-01 4.72326664801965e-03
1.08055102040816e+00 4.07475894288241e-01 4.69988561192879e-03
1.08508163265306e+00 4.04607896420114e-01 4.67657920737984e-03
1.08961224489796e+00 4.01760084811346e-01 4.65334780390923e-03
1.09414285714286e+00 3.98932317381860e-01 4.63019177802834e-03
1.09867346938776e+00 3.96124453051600e-01 4.60711149263581e-03
1.10320408163265e+00 3.93336351709306e-01 4.58410727880231e-03
1.10773469387755e+00 3.90567874278611e-01 4.56117945517414e-03
1.11226530612245e+00 3.87818882637514e-01 4.53832834760574e-03
1.11679591836735e+00 3.85089239636149e-01 4.51555426012911e-03
1.12132653061224e+00 3.82378809090006e-01 4.49285749402990e-03
1.12585714285714e+00 3.79687455750225e-01 4.47023832076000e-03
1.13038775510204e+00 3.77015045365934e-01 4.44769700043941e-03
1.13491836734694e+00 3.74361444608001e-01 4.42523380058045e-03
1.13944897959184e+00 3.71726521085723e-01 4.40284897711354e-03
1.14397959183673e+00 3.69110143318337e-01 4.38054275758741e-03
1.14851020408163e+00 3.66512180794581e-01 4.35831535902745e-03
1.15304081632653e+00 3.63932503899610e-01 4.33616700600727e-03
1.15757142857143e+00 3.61370983930849e-01 4.31409790389065e-03
1.16210204081633e+00 3.58827493091613e-01 4.29210825639744e-03
1.16663265306122e+00 3.56301904463993e-01 4.27019824061834e-03
1.17116326530612e+00 3.53794092065075e-01 4.24836802405538e-03
1.17569387755102e+00 3.51303930777684e-01 4.22661778186379e-03
1.18022448979592e+00 3.48831296365280e-01 4.20494767935652e-03
1.18475510204082e+00 3.46376065445924e-01 4.18335785650065e-03
1.18928571428571e+00 3.43938115546029e-01 4.16184844436556e-03
1.19381632653061e+00 3.41517325033936e-01 4.14041958177016e-03
1.19834693877551e+00 3.39113573134074e-01 4.11907139060313e-03
1.20287755102041e+00 3.36726739920964e-01 4.09780399201133e-03
1.20740816326531e+00 3.34356706294438e-01 4.07661748334005e-03
1.21193877551020e+00 3.32003354030399e-01 4.05551195383886e-03
1.21646938775510e+00 3.29666565717839e-01 4.03448750055007e-03
1.22100000000000e+00 3.27346224772154e-01 4.01354421216628e-03
1.22553061224490e+00 3.25042215411320e-01 3.99268215471624e-03
1.23006122448980e+00 3.22754422704459e-01 3.97190138672339e-03
1.23459183673469e+00 3.20482732511404e-01 3.95120197455307e-03
1.23912244897959e+00 3.18227031495348e-01 3.93058397681476e-03
1.24365306122449e+00 3.15987207099966e-01 3.91004743052673e-03
1.24818367346939e+00 3.13763147595867e-01 3.88959236575869e-03
1.25271428571429e+00 3.11554742022601e-01 3.86921882044646e-03
1.25724489795918e+00 3.09361880200694e-01 3.84892681839818e-03
1.26177551020408e+00 3.07184452726179e-01 3.82871638369562e-03
1.26630612244898e+00 3.05022350948780e-01 3.80858752013133e-03
1.27083673469388e+00 3.02875467015839e-01 3.78854022518993e-03
1.27536734693878e+00 3.00743693817266e-01 3.76857450420330e-03
1.27989795918367e+00 2.98626924996855e-01 3.74869035594899e-03
1.28442857142857e+00 2.96525054931323e-01 3.72888775986767e-03
1.28895918367347e+00 2.94437978772345e-01 3.70916668956938e-03
1.29348979591837e+00 2.92365592393705e-01 3.68952712650549e-03
1.29802040816327e+00 2.90307792402060e-01 3.66996903965267e-03
1.30255102040816e+00 2.88264476131812e-01 3.65049239880394e-03
1.30708163265306e+00 2.86235541625113e-01 3.63109715557267e-03
1.31161224489796e+00 2.84220887671633e-01 3.61178325629310e-03
1.31614285714286e+00 2.82220413758362e-01 3.59255065508522e-03
1.32067346938776e+00 2.80234020079750e-01 3.57339930055086e-03
1.32520408163265e+00 2.78261607518477e-01 3.55432912395847e-03
1.32973469387755e+00 2.76303077683529e-01 3.53534005170803e-03
1.33426530612245e+00 2.74358332861994e-01 3.51643201795413e-03
1.33879591836735e+00 2.72427276028690e-01 3.49760494583324e-03
1.34332653061225e+00 2.70509810841362e-01 3.47885875973611e-03
1.34785714285714e+00 2.68605841622334e-01 3.46019336774946e-03
1.35238775510204e+00 2.66715273394549e-01 3.44160867356762e-03
1.35691836734694e+00 2.64838011835757e-01 3.42310458855698e-03
1.36144897959184e+00 2.62973963287593e-01 3.40468101945991e-03
1.36597959183673e+00 2.61123034737934e-01 3.38633785746845e-03
1.37051020408163e+00 2.59285133855418e-01 3.36807498973634e-03
1.37504081632653e+00 2.57460168945427e-01 3.34989231103794e-03
1.37957142857143e+00 2.55648048958720e-01 3.33178970641413e-03
1.38410204081633e+00 2.53848683486915e-01 3.31376706251127e-03
1.38863265306122e+00 2.52061982745654e-01 3.29582425134208e-03
1.39316326530612e+00 2.50287857607288e-01 3.27796114129128e-03
1.39769387755102e+00 2.48526219559024e-01 3.26017760826173e-03
1.40222448979592e+00 2.46776980711070e-01 3.24247352430501e-03
1.40675510204082e+00 2.45040053780423e-01 3.22484874751320e-03
1.41128571428571e+00 2.43315352122197e-01 3.20730313265530e-03
1.41581632653061e+00 2.41602789689391e-01 3.18983654195099e-03
1.42034693877551e+00 2.39902281040636e-01 3.17244882902193e-03
1.42487755102041e+00 2.38213741335949e-01 3.15513984937219e-03
1.42940816326531e+00 2.36537086321264e-01 3.13790944536374e-03
