Energy (eV)          EEDF (eV^-(3/2))     First Anisotropy
2.02916666666667e-02 6.63535423353802e-01 7.05054954099170e-04
6.08750000000000e-02 6.44720016212676e-01 1.15161076323182e-03
1.01458333333333e-01 6.26438144313016e-01 1.48714685350248e-03
1.42041666666667e-01 6.08674678604121e-01 1.72275516018797e-03
1.82625000000000e-01 5.91414919023290e-01 1.90388013274759e-03
2.23208333333333e-01 5.74644582240840e-01 2.04830158421466e-03
2.63791666666667e-01 5.58349790130726e-01 2.16551659508195e-03
3.04375000000000e-01 5.42517057992046e-01 2.26143292520651e-03
3.44958333333333e-01 5.27133283465886e-01 2.34007924843140e-03
3.85541666666667e-01 5.12185735827134e-01 2.40437785953257e-03
4.26125000000000e-01 4.97662045290722e-01 2.45654469749748e-03
4.66708333333333e-01 4.83550192806578e-01 2.49831706265129e-03
5.07291666666667e-01 4.69838500205458e-01 2.53109274238764e-03
5.47875000000000e-01 4.56515620431858e-01 2.55601978495392e-03
5.88458333333333e-01 4.43570528170813e-01 2.57405701194411e-03
6.29041666666667e-01 4.30992510790873e-01 2.58601631626183e-03
6.69625000000000e-01 4.18771159405935e-01 2.59259312446804e-03
7.10208333333333e-01 4.06896360271909e-01 2.59438889498930e-03
7.50791666666667e-01 3.95358286467864e-01 2.59192811846770e-03
7.91375000000000e-01 3.84147389709234e-01 2.58567140633800e-03
8.31958333333333e-01 3.73254392453213e-01 2.57602573171941e-03
8.72541666666667e-01 3.62670280260784e-01 2.56335257503889e-03
9.13125000000000e-01 3.52386294294618e-01 2.54797448435321e-03
9.53708333333333e-01 3.42393924075723e-01 2.53018041615388e-03
9.94291666666667e-01 3.32684900472263e-01 2.51023013960050e-03
1.03487500000000e+00 3.23251188849174e-01 2.48835791013732e-03
1.07545833333333e+00 3.14084982291227e-01 2.46477552540301e-03
1.11604166666667e+00 3.05178695432341e-01 2.43967493534753e-03
1.15662500000000e+00 2.96524957907555e-01 2.41323047782865e-03
1.19720833333333e+00 2.88116608281573e-01 2.38560074902003e-03
1.23779166666667e+00 2.79946688333647e-01 2.35693026312633e-03
1.27837500000000e+00 2.72008437077367e-01 2.32735089351316e-03
1.31895833333333e+00 2.64295285187271e-01 2.29698309047130e-03
1.35954166666667e+00 2.56800849738122e-01 2.26593698880880e-03
1.40012500000000e+00 2.49518928738726e-01 2.23431338373990e-03
1.44070833333333e+00 2.42443496016616e-01 2.20220455907474e-03
1.48129166666667e+00 2.35568696378495e-01 2.16969505759441e-03
1.52187500000000e+00 2.28888840610805e-01 2.13686236776213e-03
1.56245833333333e+00 2.22398400785390e-01 2.10377750686042e-03
1.60304166666667e+00 2.16092005809410e-01 2.07050557489504e-03
1.64362500000000e+00 2.09964436850663e-01 2.03710625297959e-03
1.68420833333333e+00 2.04010623029933e-01 2.00363422555147e-03
1.72479166666667e+00 1.98225637330490e-01 1.97013958947375e-03
1.76537500000000e+00 1.92604692410538e-01 1.93666822492577e-03
1.80595833333333e+00 1.87143136650645e-01 1.90326210809639e-03
1.84654166666667e+00 1.81836450394832e-01 1.86995962002948e-03
1.88712500000000e+00 1.76680242116263e-01 1.83679582835000e-03
1.92770833333333e+00 1.71670244790666e-01 1.80380272314408e-03
1.96829166666667e+00 1.66802312442907e-01 1.77100945434330e-03
2.00887500000000e+00 1.62072416635311e-01 1.73844254935409e-03
2.04945833333333e+00 1.57476643140295e-01 1.70612609368083e-03
2.09004166666667e+00 1.53011188768200e-01 1.67408191610190e-03
2.13062500000000e+00 1.48672358150468e-01 1.64232975913267e-03
2.17120833333333e+00 1.44456560686896e-01 1.61088741903256e-03
2.21179166666667e+00 1.40360307632261e-01 1.57977089202804e-03
2.25237500000000e+00 1.36380209149129e-01 1.54899450936816e-03
2.29295833333333e+00 1.32512971507126e-01 1.51857104692369e-03
2.33354166666667e+00 1.28755394407590e-01 1.48851184181937e-03
2.37412500000000e+00 1.25104368283049e-01 1.45882690045121e-03
2.41470833333333e+00 1.21556871727751e-01 1.42952498496018e-03
2.45529166666667e+00 1.18109969041164e-01 1.40061370703625e-03
2.49587500000000e+00 1.14760807753201e-01 1.37209961498333e-03
2.53645833333333e+00 1.11506616266942e-01 1.34398826236836e-03
2.57704166666667e+00 1.08344701603298e-01 1.31628428397935e-03
2.61762500000000e+00 1.05272447132883e-01 1.28899146644791e-03
2.65820833333333e+00 1.02287310413443e-01 1.26211280300108e-03
2.69879166666667e+00 9.93868211193662e-02 1.23565055530811e-03
2.73937500000000e+00 9.65685789627818e-02 1.20960631105924e-03
2.77995833333333e+00 9.38302517096294e-02 1.18398102777566e-03
2.82054166666667e+00 9.11695732789987e-02 1.15877508338820e-03
2.86112500000000e+00 8.85843418375295e-02 1.13398832337143e-03
2.90170833333333e+00 8.60724179793818e-02 1.10962009586664e-03
2.94229166666667e+00 8.36317229815821e-02 1.08566929318660e-03
2.98287500000000e+00 8.12602370571666e-02 1.06213439051897e-03
3.02345833333333e+00 7.89559976855230e-02 1.03901347410347e-03
3.06404166666667e+00 7.67170980110245e-02 1.01630427537662e-03
3.10462500000000e+00 7.45416852416035e-02 9.94004202822978e-04
3.14520833333333e+00 7.24279591170513e-02 9.72110364566123e-04
3.18579166666667e+00 7.03741704392409e-02 9.50619596506116e-04
3.22637500000000e+00 6.83786196039512e-02 9.29528488568835e-04
3.26695833333333e+00 6.64396551957342e-02 9.08833402781984e-04
3.30754166666667e+00 6.45556726389689e-02 8.88530496483726e-04
3.34812500000000e+00 6.27251128517916e-02 8.68615743969088e-04
3.38870833333333e+00 6.09464609570765e-02 8.49084950902472e-04
3.42929166666667e+00 5.92182450444347e-02 8.29933773463890e-04
3.46987500000000e+00 5.75390349360459e-02 8.11157736197435e-04
3.51045833333333e+00 5.59074410041639e-02 7.92752243441900e-04
3.55104166666667e+00 5.43221130349726e-02 7.74712595116218e-04
3.59162500000000e+00 5.27817390969780e-02 7.57034001423076e-04
3.63220833333333e+00 5.12850444562390e-02 7.39711591846830e-04
3.67279166666667e+00 4.98307905337309e-02 7.22740428150009e-04
3.71337500000000e+00 4.84177738677433e-02 7.06115516465261e-04
3.75395833333333e+00 4.70448251187626e-02 6.89831814305645e-04
3.79454166666667e+00 4.57108081126733e-02 6.73884241240824e-04
3.83512500000000e+00 4.44146188893253e-02 6.58267688815233e-04
3.87570833333333e+00 4.31551847896611e-02 6.42977025933081e-04
3.91629166666667e+00 4.19314635777105e-02 6.28007107600404e-04
3.95687500000000e+00 4.07424425681482e-02 6.13352783030682e-04
3.99745833333333e+00 3.95871377888713e-02 5.99008899700867e-04
4.03804166666667e+00 3.84645931753152e-02 5.84970310478900e-04
4.07862500000000e+00 3.73738797704262e-02 5.71231880216006e-04
4.11920833333333e+00 3.63140949564546e-02 5.57788488716976e-04
4.15979166666667e+00 3.52843617156495e-02 5.44635036518626e-04
4.20037500000000e+00 3.42838278966206e-02 5.31766450217701e-04
4.24095833333333e+00 3.33116655096272e-02 5.19177684555568e-04
4.28154166666667e+00 3.23670700481962e-02 5.06863727068961e-04
4.32212500000000e+00 3.14492598163497e-02 4.94819602361146e-04
4.36270833333333e+00 3.05574752821442e-02 4.83040373466212e-04
4.40329166666667e+00 2.96909784552004e-02 4.71521145557103e-04
4.44387500000000e+00 2.88490522697380e-02 4.60257069333827e-04
4.48445833333333e+00 2.80309999915494e-02 4.49243341803883e-04
4.52504166666667e+00 2.72361446468432e-02 4.38475209202658e-04
4.56562500000000e+00 2.64638284564469e-02 4.27947969644431e-04
4.60620833333333e+00 2.57134122917994e-02 4.17656973431901e-04
4.64679166666667e+00 2.49842751508864e-02 4.07597625319258e-04
4.68737500000000e+00 2.42758136393584e-02 3.97765386548389e-04
4.72795833333333e+00 2.35874414714920e-02 3.88155774781196e-04
4.76854166666667e+00 2.29185889893397e-02 3.78764365814874e-04
4.80912500000000e+00 2.22687026868674e-02 3.69586795106382e-04
4.84970833333333e+00 2.16372447521678e-02 3.60618757405188e-04
4.89029166666667e+00 2.10236926262657e-02 3.51856008013099e-04
4.93087500000000e+00 2.04275385667040e-02 3.43294363883758e-04
4.97145833333333e+00 1.98482892275981e-02 3.34929703020191e-04
5.01204166666667e+00 1.92854652548327e-02 3.26757965357012e-04
5.05262500000000e+00 1.87386008858197e-02 3.18775153508187e-04
5.09320833333333e+00 1.82072435642675e-02 3.10977331982673e-04
5.13379166666667e+00 1.76909535687700e-02 3.03360627754668e-04
5.17437500000000e+00 1.71893036457357e-02 2.95921230721436e-04
5.21495833333333e+00 1.67018786560013e-02 2.88655392781128e-04
5.25554166666667e+00 1.62282752340627e-02 2.81559428146514e-04
5.29612500000000e+00 1.57681014514219e-02 2.74629713564981e-04
5.33670833333333e+00 1.53209764924137e-02 2.67862687294953e-04
5.37729166666667e+00 1.48865303415527e-02 2.61254849209935e-04
5.41787500000000e+00 1.44644034747749e-02 2.54802760824647e-04
5.45845833333333e+00 1.40542465620627e-02 2.48503044200036e-04
5.49904166666667e+00 1.36557201805907e-02 2.42352381877103e-04
5.53962500000000e+00 1.32684945315479e-02 2.36347516746293e-04
5.58020833333333e+00 1.28922491673462e-02 2.30485250905706e-04
5.62079166666667e+00 1.25266727284379e-02 2.24762445457992e-04
5.66137500000000e+00 1.21714626835975e-02 2.19176020254265e-04
5.70195833333333e+00 1.18263250796808e-02 2.13722952725630e-04
5.74254166666667e+00 1.14909743001635e-02 2.08400277571196e-04
5.78312500000000e+00 1.11651328269362e-02 2.03205086402817e-04
5.82370833333333e+00 1.08485310107513e-02 1.98134526566277e-04
5.86429166666667e+00 1.05409068496902e-02 1.93185800744012e-04
5.90487500000000e+00 1.02420057706890e-02 1.88356166522783e-04
5.94545833333333e+00 9.95158041896220e-03 1.83642935217721e-04
5.98604166666667e+00 9.66939045475579e-03 1.79043471409546e-04
6.02662500000000e+00 9.39520235296765e-03 1.74555192453699e-04
6.06720833333333e+00 9.12878920997926e-03 1.70175567317820e-04
6.10779166666667e+00 8.86993055718645e-03 1.65902116070031e-04
6.14837500000000e+00 8.61841217721482e-03 1.61732409345020e-04
6.18895833333333e+00 8.37402592672054e-03 1.57664067203299e-04
6.22954166666667e+00 8.13656956531465e-03 1.53694758584386e-04
6.27012500000000e+00 7.90584658699808e-03 1.49822200742780e-04
6.31070833333333e+00 7.68166605761149e-03 1.46044158135477e-04
6.35129166666667e+00 7.46384245788329e-03 1.42358441851569e-04
6.39187500000000e+00 7.25219552882286e-03 1.38762909028824e-04
6.43245833333333e+00 7.04655012260864e-03 1.35255461774434e-04
6.47304166666667e+00 6.84673605859437e-03 1.31834046580558e-04
6.51362500000000e+00 6.65258798150414e-03 1.28496653730358e-04
6.55420833333333e+00 6.46394522464767e-03 1.25241316255670e-04
6.59479166666667e+00 6.28065167781565e-03 1.22066109346338e-04
6.63537500000000e+00 6.10255565721591e-03 1.18969149752969e-04
6.67595833333333e+00 5.92950977999679e-03 1.15948594784166e-04
6.71654166666667e+00 5.76137084305059e-03 1.13002641716055e-04
6.75712500000000e+00 5.59799970371804e-03 1.10129527197703e-04
6.79770833333333e+00 5.43926116468509e-03 1.07327526289639e-04
6.83829166666667e+00 5.28502386279411e-03 1.04594951878803e-04
6.87887500000000e+00 5.13516015962473e-03 1.01930154091390e-04
6.91945833333333e+00 4.98954603590644e-03 9.93315193737086e-05
6.96004166666667e+00 4.84806098951161e-03 9.67974699167132e-05
7.00062500000000e+00 4.71058793509460e-03 9.43264630801071e-05
7.04120833333333e+00 4.57701310723348e-03 9.19169905159640e-05
7.08179166666667e+00 4.44722596684708e-03 8.95675776061646e-05
7.12237500000000e+00 4.32111910914199e-03 8.72767829007540e-05
7.16295833333333e+00 4.19858817476196e-03 8.50431972842909e-05
7.20354166666667e+00 4.07953176393339e-03 8.28654434287600e-05
7.24412500000000e+00 3.96385135203241e-03 8.07421752485028e-05
7.28470833333333e+00 3.85145120807970e-03 7.86720771088670e-05
7.32529166666667e+00 3.74223831597667e-03 7.66538632965545e-05
7.36587500000000e+00 3.63612229706140e-03 7.46862774928645e-05
7.40645833333333e+00 3.53301533534176e-03 7.27680920239047e-05
7.44704166666667e+00 3.43283210523682e-03 7.08981073498135e-05
7.48762500000000e+00 3.33548970054291e-03 6.90751515575734e-05
7.52820833333333e+00 3.24090756584804e-03 6.72980796518066e-05
7.56879166666667e+00 3.14900743024140e-03 6.55657730638793e-05
7.60937500000000e+00 3.05971324215886e-03 6.38771391651299e-05
7.64995833333333e+00 2.97295110646753e-03 6.22311105970875e-05
7.69054166666667e+00 2.88864922365071e-03 6.06266448011063e-05
7.73112500000000e+00 2.80673783004594e-03 5.90627235525164e-05
7.77170833333333e+00 2.72714914013100e-03 5.75383523289649e-05
7.81229166666667e+00 2.64981729073221e-03 5.60525598609249e-05
7.85287500000000e+00 2.57467828620849e-03 5.46043976870071e-05
7.89345833333333e+00 2.50166994550890e-03 5.31929395590167e-05
7.93404166666667e+00 2.43073185098933e-03 5.18172810134346e-05
7.97462500000000e+00 2.36180529813327e-03 5.04765389478952e-05
8.01520833333333e+00 2.29483324698622e-03 4.91698510614864e-05
8.05579166666667e+00 2.22976027520047e-03 4.78963754471024e-05
8.09637500000000e+00 2.16653253191677e-03 4.66552901889066e-05
8.13695833333333e+00 2.10509769321390e-03 4.54457928363584e-05
8.17754166666667e+00 2.04540491903232e-03 4.42671000171732e-05
8.21812500000000e+00 1.98740481087228e-03 4.31184470554387e-05
8.25870833333333e+00 1.93104937092674e-03 4.19990874778309e-05
8.29929166666667e+00 1.87629196256331e-03 4.09082926467831e-05
8.33987500000000e+00 1.82308727152317e-03 3.98453513988110e-05
8.38045833333333e+00 1.77139126843252e-03 3.88095695813762e-05
8.42104166666667e+00 1.72116117254925e-03 3.78002697057649e-05
8.46162500000000e+00 1.67235541617264e-03 3.68167906050774e-05
8.50220833333333e+00 1.62493361025414e-03 3.58584870002115e-05
8.54279166666667e+00 1.57885651113915e-03 3.49247291718723e-05
8.58337500000000e+00 1.53408598792163e-03 3.40149026376114e-05
8.62395833333333e+00 1.49058499089816e-03 3.31284077454244e-05
8.66454166666667e+00 1.44831752105722e-03 3.22646593642527e-05
8.70512500000000e+00 1.40724860013521e-03 3.14230865794062e-05
8.74570833333333e+00 1.36734424167851e-03 3.06031323123017e-05
8.78629166666667e+00 1.32857142305345e-03 2.98042530287749e-05
8.82687500000000e+00 1.29089805798011e-03 2.90259184521796e-05
8.86745833333333e+00 1.25429296998678e-03 2.82676112078340e-05
8.90804166666667e+00 1.21872586673246e-03 2.75288265484316e-05
8.94862500000000e+00 1.18416731481326e-03 2.68090720840882e-05
8.98920833333333e+00 1.15058871541156e-03 2.61078674501080e-05
9.02979166666667e+00 1.11796228073997e-03 2.54247440487622e-05
9.07037500000000e+00 1.08626101093232e-03 2.47592447955414e-05
9.11095833333333e+00 1.05545867170600e-03 2.41109238089018e-05
9.15154166666667e+00 1.02552977275216e-03 2.34793461676728e-05
9.19212500000000e+00 9.96449546538781e-04 2.28640876727673e-05
9.23270833333333e+00 9.68193927819741e-04 2.22647345576205e-05
9.27329166666667e+00 9.40739533810553e-04 2.16808832604885e-05
9.31387500000000e+00 9.14063644745146e-04 2.11121402008713e-05
9.35445833333333e+00 8.88144185079127e-04 2.05581215094096e-05
9.39504166666667e+00 8.62959705303427e-04 2.00184528143408e-05
9.43562500000000e+00 8.38489364109785e-04 1.94927690318989e-05
9.47620833333333e+00 8.14712911148030e-04 1.89807141144907e-05
9.51679166666667e+00 7.91610670342411e-04 1.84819408505867e-05
9.55737500000000e+00 7.69163523532607e-04 1.79961106683754e-05
9.59795833333333e+00 7.47352894656585e-04 1.75228934010941e-05
9.63854166666667e+00 7.26160734445444e-04 1.70619670996475e-05
9.67912500000000e+00 7.05569505417884e-04 1.66130178488123e-05
9.71970833333333e+00 6.85562167370749e-04 1.61757395486520e-05
9.76029166666667e+00 6.66122163338526e-04 1.57498337391769e-05
9.80087500000000e+00 6.47233405829255e-04 1.53350094284098e-05
9.84145833333333e+00 6.28880263514663e-04 1.49309828888724e-05
9.88204166666667e+00 6.11047548349826e-04 1.45374774936188e-05
9.92262500000000e+00 5.93720502947802e-04 1.41542235555001e-05
9.96320833333333e+00 5.76884788370173e-04 1.37809581377591e-05
1.00037916666667e+01 5.60526472311027e-04 1.34174248916992e-05
1.00443750000000e+01 5.44632017561979e-04 1.30633739520190e-05
1.00849583333333e+01 5.29188270582583e-04 1.27185616791618e-05
1.01255416666667e+01 5.14182451120018e-04 1.23827505507630e-05
1.01661250000000e+01 4.99602141168376e-04 1.20557091139843e-05
1.02067083333333e+01 4.85435274716398e-04 1.17372116597454e-05
1.02472916666667e+01 4.71670128173872e-04 1.14270381690623e-05
1.02878750000000e+01 4.58295310248866e-04 1.11249742568851e-05
1.03284583333333e+01 4.45299752542818e-04 1.08308108721311e-05
1.03690416666667e+01 4.32672700764013e-04 1.05443442459202e-05
1.04096250000000e+01 4.20403705446340e-04 1.02653758376255e-05
1.04502083333333e+01 4.08482613321707e-04 9.99371205867644e-06
1.04907916666667e+01 3.96899559255988e-04 9.72916422277576e-06
1.05313750000000e+01 3.85644957739245e-04 9.47154849420979e-06
1.05719583333333e+01 3.74709494971228e-04 9.22068563354888e-06
1.06125416666667e+01 3.64084121460479e-04 8.97640094989861e-06
1.06531250000000e+01 3.53760044221805e-04 8.73852425149167e-06
1.06937083333333e+01 3.43728719515936e-04 8.50688961155838e-06
1.07342916666667e+01 3.33981846057315e-04 8.28133532264081e-06
1.07748750000000e+01 3.24511357859980e-04 8.06170384946562e-06
1.08154583333333e+01 3.15309417577308e-04 7.84784161339252e-06
1.08560416666667e+01 3.06368410268505e-04 7.63959894879895e-06
1.08966250000000e+01 2.97680936838937e-04 7.43683005821449e-06
1.09372083333333e+01 2.89239807930370e-04 7.23939281388078e-06
1.09777916666667e+01 2.81038038200266e-04 7.04714871619600e-06
1.10183750000000e+01 2.73068840307106e-04 6.85996285107700e-06
1.10589583333333e+01 2.65325619305633e-04 6.67770370727936e-06
1.10995416666667e+01 2.57801967396813e-04 6.50024313687617e-06
1.11401250000000e+01 2.50491658412829e-04 6.32745631480273e-06
1.11807083333333e+01 2.43388642675579e-04 6.15922157069076e-06
1.12212916666667e+01 2.36487042178637e-04 5.99542035134425e-06
1.12618750000000e+01 2.29781145530348e-04 5.83593718241206e-06
1.13024583333333e+01 2.23265403237308e-04 5.68065951358858e-06
1.13430416666667e+01 2.16934423282806e-04 5.52947768304031e-06
1.13836250000000e+01 2.10782966489938e-04 5.38228488114345e-06
1.14242083333333e+01 2.04805942194934e-04 5.23897700799345e-06
1.14647916666667e+01 1.98998404189501e-04 5.09945263972863e-06
1.15053750000000e+01 1.93355546469027e-04 4.96361299426504e-06
1.15459583333333e+01 1.87872699263536e-04 4.83136180013988e-06
1.15865416666667e+01 1.82545325314015e-04 4.70260526467246e-06
1.16271250000000e+01 1.77369015973695e-04 4.57725204162473e-06
1.16677083333333e+01 1.72339487567076e-04 4.45521311048072e-06
1.17082916666667e+01 1.67452577972773e-04 4.33640174638103e-06
1.17488750000000e+01 1.62704243048529e-04 4.22073348963341e-06
1.17894583333333e+01 1.58090553291193e-04 4.10812603460159e-06
1.18300416666667e+01 1.53607690700885e-04 3.99849920134631e-06
1.18706250000000e+01 1.49251945502823e-04 3.89177490690956e-06
1.19112083333333e+01 1.45019713083390e-04 3.78787706305075e-06
1.19517916666667e+01 1.40907491112471e-04 3.68673154952520e-06
1.19923750000000e+01 1.36911876537442e-04 3.58826618706451e-06
1.20329583333333e+01 1.33029562772492e-04 3.49241064325824e-06
1.20735416666667e+01 1.29257337057907e-04 3.39909640740015e-06
1.21141250000000e+01 1.25592077703600e-04 3.30825676508697e-06
1.21547083333333e+01 1.22030751510756e-04 3.21982671159910e-06
1.21952916666667e+01 1.18570411348576e-04 3.13374292824426e-06
1.22358750000000e+01 1.15208193626605e-04 3.04994375849757e-06
1.22764583333333e+01 1.11941315929510e-04 2.96836912828605e-06
1.23170416666667e+01 1.08767074793381e-04 2.88896052375945e-06
1.23576250000000e+01 1.05682843387860e-04 2.81166096889561e-06
1.23982083333333e+01 1.02686069346429e-04 2.73641495214056e-06
1.24387916666667e+01 9.97742727258487e-05 2.66316840553704e-06
1.24793750000000e+01 9.69450438806636e-05 2.59186868372086e-06
1.25199583333333e+01 9.41960414728331e-05 2.52246449641144e-06
1.25605416666667e+01 9.15249905992497e-05 2.45490588882999e-06
1.26011250000000e+01 8.89296808426289e-05 2.38914422201405e-06
1.26417083333333e+01 8.64079644456689e-05 2.32513211069356e-06
1.26822916666667e+01 8.39577545928087e-05 2.26282340493204e-06
1.27228750000000e+01 8.15770236228586e-05 2.20217317168862e-06
1.27634583333333e+01 7.92638013540872e-05 2.14313763765143e-06
1.28040416666667e+01 7.70161735075239e-05 2.08567417203702e-06
