Energy (eV)          EEDF (eV^-(3/2))     First Anisotropy
1.01477272727273e-04 2.70390822820345e+02 0.00000000000000e+00
3.04431818181818e-04 2.68276383010118e+02 0.00000000000000e+00
5.07386363636364e-04 2.66178477991100e+02 0.00000000000000e+00
7.10340909090909e-04 2.64096978461977e+02 0.00000000000000e+00
9.13295454545455e-04 2.62031756132768e+02 0.00000000000000e+00
1.11625000000000e-03 2.59982683716740e+02 0.00000000000000e+00
1.31920454545455e-03 2.57949634922546e+02 0.00000000000000e+00
1.52215909090909e-03 2.55932484446434e+02 0.00000000000000e+00
1.72511363636364e-03 2.53931107964520e+02 0.00000000000000e+00
1.92806818181818e-03 2.51945382125125e+02 0.00000000000000e+00
2.13102272727273e-03 2.49975184541176e+02 0.00000000000000e+00
2.33397727272727e-03 2.48020393782656e+02 0.00000000000000e+00
2.53693181818182e-03 2.46080889369127e+02 0.00000000000000e+00
2.73988636363636e-03 2.44156551762299e+02 0.00000000000000e+00
2.94284090909091e-03 2.42247262358665e+02 0.00000000000000e+00
3.14579545454545e-03 2.40352903482190e+02 0.00000000000000e+00
3.34875000000000e-03 2.38473358377057e+02 0.00000000000000e+00
3.55170454545455e-03 2.36608511200476e+02 0.00000000000000e+00
3.75465909090909e-03 2.34758247015537e+02 0.00000000000000e+00
3.95761363636364e-03 2.32922451784131e+02 0.00000000000000e+00
4.16056818181818e-03 2.31101012359921e+02 0.00000000000000e+00
4.36352272727273e-03 2.29293816481366e+02 0.00000000000000e+00
4.56647727272727e-03 2.27500752764805e+02 0.00000000000000e+00
4.76943181818182e-03 2.25721710697589e+02 0.00000000000000e+00
4.97238636363636e-03 2.23956580631272e+02 0.00000000000000e+00
5.17534090909091e-03 2.22205253774852e+02 0.00000000000000e+00
5.37829545454545e-03 2.20467622188066e+02 0.00000000000000e+00
5.58125000000000e-03 2.18743578774738e+02 0.00000000000000e+00
5.78420454545455e-03 2.17033017276175e+02 0.00000000000000e+00
5.98715909090909e-03 2.15335832264625e+02 0.00000000000000e+00
6.19011363636364e-03 2.13651919136770e+02 0.00000000000000e+00
6.39306818181818e-03 2.11981174107287e+02 0.00000000000000e+00
6.59602272727273e-03 2.10323494202447e+02 0.00000000000000e+00
6.79897727272727e-03 2.08678777253767e+02 0.00000000000000e+00
7.00193181818182e-03 2.07046921891719e+02 0.00000000000000e+00
7.20488636363636e-03 2.05427827539476e+02 0.00000000000000e+00
7.40784090909091e-03 2.03821394406717e+02 0.00000000000000e+00
7.61079545454545e-03 2.02227523483474e+02 0.00000000000000e+00
7.81375000000000e-03 2.00646116534032e+02 0.00000000000000e+00
8.01670454545455e-03 1.99077076090872e+02 0.00000000000000e+00
8.21965909090909e-03 1.97520305448668e+02 0.00000000000000e+00
8.42261363636364e-03 1.95975708658321e+02 0.00000000000000e+00
8.62556818181818e-03 1.94443190521049e+02 0.00000000000000e+00
8.82852272727273e-03 1.92922656582518e+02 0.00000000000000e+00
9.03147727272727e-03 1.91414013127023e+02 0.00000000000000e+00
9.23443181818182e-03 1.89917167171708e+02 0.00000000000000e+00
9.43738636363636e-03 1.88432026460838e+02 0.00000000000000e+00
9.64034090909091e-03 1.86958499460114e+02 0.00000000000000e+00
9.84329545454545e-03 1.85496495351026e+02 0.00000000000000e+00
1.00462500000000e-02 1.84045924025263e+02 0.00000000000000e+00
1.02492045454545e-02 1.82606696079154e+02 0.00000000000000e+00
1.04521590909091e-02 1.81178722808158e+02 0.00000000000000e+00
1.06551136363636e-02 1.79761916201399e+02 0.00000000000000e+00
1.08580681818182e-02 1.78356188936243e+02 0.00000000000000e+00
1.10610227272727e-02 1.76961454372910e+02 0.00000000000000e+00
1.12639772727273e-02 1.75577626549140e+02 0.00000000000000e+00
1.14669318181818e-02 1.74204620174891e+02 0.00000000000000e+00
1.16698863636364e-02 1.72842350627088e+02 0.00000000000000e+00
1.18728409090909e-02 1.71490733944397e+02 0.00000000000000e+00
1.20757954545455e-02 1.70149686822062e+02 0.00000000000000e+00
1.22787500000000e-02 1.68819126606763e+02 0.00000000000000e+00
1.24817045454545e-02 1.67498971291523e+02 0.00000000000000e+00
1.26846590909091e-02 1.66189139510656e+02 0.00000000000000e+00
1.28876136363636e-02 1.64889550534751e+02 0.00000000000000e+00
1.30905681818182e-02 1.63600124265694e+02 0.00000000000000e+00
1.32935227272727e-02 1.62320781231736e+02 0.00000000000000e+00
1.34964772727273e-02 1.61051442582591e+02 0.00000000000000e+00
1.36994318181818e-02 1.59792030084576e+02 0.00000000000000e+00
1.39023863636364e-02 1.58542466115794e+02 0.00000000000000e+00
1.41053409090909e-02 1.57302673661343e+02 0.00000000000000e+00
1.43082954545455e-02 1.56072576308576e+02 0.00000000000000e+00
1.45112500000000e-02 1.54852098242386e+02 0.00000000000000e+00
1.47142045454545e-02 1.53641164240536e+02 0.00000000000000e+00
1.49171590909091e-02 1.52439699669024e+02 0.00000000000000e+00
1.51201136363636e-02 1.51247630477478e+02 0.00000000000000e+00
1.53230681818182e-02 1.50064883194598e+02 0.00000000000000e+00
1.55260227272727e-02 1.48891384923625e+02 0.00000000000000e+00
1.57289772727273e-02 1.47727063337848e+02 0.00000000000000e+00
1.59319318181818e-02 1.46571846676146e+02 0.00000000000000e+00
1.61348863636364e-02 1.45425663738565e+02 0.00000000000000e+00
1.63378409090909e-02 1.44288443881931e+02 0.00000000000000e+00
1.65407954545455e-02 1.43160117015497e+02 0.00000000000000e+00
1.67437500000000e-02 1.42040613596619e+02 0.00000000000000e+00
1.69467045454545e-02 1.40929864626473e+02 0.00000000000000e+00
1.71496590909091e-02 1.39827801645801e+02 0.00000000000000e+00
1.73526136363636e-02 1.38734356730694e+02 0.00000000000000e+00
1.75555681818182e-02 1.37649462488402e+02 0.00000000000000e+00
1.77585227272727e-02 1.36573052053184e+02 0.00000000000000e+00
1.79614772727273e-02 1.35505059082184e+02 0.00000000000000e+00
1.81644318181818e-02 1.34445417751342e+02 0.00000000000000e+00
1.83673863636364e-02 1.33394062751339e+02 0.00000000000000e+00
1.85703409090909e-02 1.32350929283573e+02 0.00000000000000e+00
1.87732954545455e-02 1.31315953056161e+02 0.00000000000000e+00
1.89762500000000e-02 1.30289070279977e+02 0.00000000000000e+00
1.91792045454545e-02 1.29270217664726e+02 0.00000000000000e+00
1.93821590909091e-02 1.28259332415036e+02 0.00000000000000e+00
1.95851136363636e-02 1.27256352226594e+02 0.00000000000000e+00
1.97880681818182e-02 1.26261215282299e+02 0.00000000000000e+00
1.99910227272727e-02 1.25273860248460e+02 0.00000000000000e+00
2.01939772727273e-02 1.24294226271009e+02 0.00000000000000e+00
2.03969318181818e-02 1.23322252971755e+02 0.00000000000000e+00
2.05998863636364e-02 1.22357880444659e+02 0.00000000000000e+00
2.08028409090909e-02 1.21401049252144e+02 0.00000000000000e+00
2.10057954545455e-02 1.20451700421433e+02 0.00000000000000e+00
2.12087500000000e-02 1.19509775440910e+02 0.00000000000000e+00
2.14117045454545e-02 1.18575216256518e+02 0.00000000000000e+00
2.16146590909091e-02 1.17647965268179e+02 0.00000000000000e+00
2.18176136363636e-02 1.16727965326243e+02 0.00000000000000e+00
2.20205681818182e-02 1.15815159727968e+02 0.00000000000000e+00
2.22235227272727e-02 1.14909492214024e+02 0.00000000000000e+00
2.24264772727273e-02 1.14010906965025e+02 0.00000000000000e+00
2.26294318181818e-02 1.13119348598089e+02 0.00000000000000e+00
2.28323863636364e-02 1.12234762163425e+02 0.00000000000000e+00
2.30353409090909e-02 1.11357093140946e+02 0.00000000000000e+00
2.32382954545455e-02 1.10486287436910e+02 0.00000000000000e+00
2.34412500000000e-02 1.09622291380582e+02 0.00000000000000e+00
2.36442045454545e-02 1.08765051720932e+02 0.00000000000000e+00
2.38471590909091e-02 1.07914515623348e+02 0.00000000000000e+00
2.40501136363636e-02 1.07070630666382e+02 0.00000000000000e+00
2.42530681818182e-02 1.06233344838518e+02 0.00000000000000e+00
2.44560227272727e-02 1.05402606534967e+02 0.00000000000000e+00
2.46589772727273e-02 1.04578364554488e+02 0.00000000000000e+00
2.48619318181818e-02 1.03760568096227e+02 0.00000000000000e+00
2.50648863636364e-02 1.02949166756594e+02 0.00000000000000e+00
2.52678409090909e-02 1.02144110526148e+02 0.00000000000000e+00
2.54707954545455e-02 1.01345349786521e+02 0.00000000000000e+00
2.56737500000000e-02 1.00552835307359e+02 0.00000000000000e+00
2.58767045454545e-02 9.97665182432821e+01 0.00000000000000e+00
2.60796590909091e-02 9.89863501308822e+01 0.00000000000000e+00
2.62826136363636e-02 9.82122828857304e+01 0.00000000000000e+00
2.64855681818182e-02 9.74442687994155e+01 0.00000000000000e+00
2.66885227272727e-02 9.66822605366029e+01 0.00000000000000e+00
2.68914772727273e-02 9.59262111321177e+01 0.00000000000000e+00
2.70944318181818e-02 9.51760739880497e+01 0.00000000000000e+00
2.72973863636364e-02 9.44318028708817e+01 0.00000000000000e+00
2.75003409090909e-02 9.36933519086396e+01 0.00000000000000e+00
2.77032954545455e-02 9.29606755880654e+01 0.00000000000000e+00
2.79062500000000e-02 9.22337287518121e+01 0.00000000000000e+00
2.81092045454545e-02 9.15124665956602e+01 0.00000000000000e+00
2.83121590909091e-02 9.07968446657568e+01 0.00000000000000e+00
2.85151136363636e-02 9.00868188558752e+01 0.00000000000000e+00
2.87180681818182e-02 8.93823454046967e+01 0.00000000000000e+00
2.89210227272727e-02 8.86833808931135e+01 0.00000000000000e+00
2.91239772727273e-02 8.79898822415527e+01 0.00000000000000e+00
2.93269318181818e-02 8.73018067073209e+01 0.00000000000000e+00
2.95298863636364e-02 8.66191118819701e+01 0.00000000000000e+00
2.97328409090909e-02 8.59417556886835e+01 0.00000000000000e+00
2.99357954545455e-02 8.52696963796828e+01 0.00000000000000e+00
3.01387500000000e-02 8.46028925336547e+01 0.00000000000000e+00
3.03417045454545e-02 8.39413030531979e+01 0.00000000000000e+00
3.05446590909091e-02 8.32848871622903e+01 0.00000000000000e+00
3.07476136363636e-02 8.26336044037761e+01 0.00000000000000e+00
3.09505681818182e-02 8.19874146368716e+01 0.00000000000000e+00
3.11535227272727e-02 8.13462780346918e+01 0.00000000000000e+00
3.13564772727273e-02 8.07101550817957e+01 0.00000000000000e+00
3.15594318181818e-02 8.00790065717502e+01 0.00000000000000e+00
3.17623863636364e-02 7.94527936047146e+01 0.00000000000000e+00
3.19653409090909e-02 7.88314775850422e+01 0.00000000000000e+00
3.21682954545455e-02 7.82150202189022e+01 0.00000000000000e+00
3.23712500000000e-02 7.76033835119190e+01 0.00000000000000e+00
3.25742045454545e-02 7.69965297668309e+01 0.00000000000000e+00
3.27771590909091e-02 7.63944215811664e+01 0.00000000000000e+00
3.29801136363636e-02 7.57970218449390e+01 0.00000000000000e+00
3.31830681818182e-02 7.52042937383602e+01 0.00000000000000e+00
3.33860227272727e-02 7.46162007295700e+01 0.00000000000000e+00
3.35889772727273e-02 7.40327065723850e+01 0.00000000000000e+00
3.37919318181818e-02 7.34537753040652e+01 0.00000000000000e+00
3.39948863636364e-02 7.28793712430968e+01 0.00000000000000e+00
3.41978409090909e-02 7.23094589869933e+01 0.00000000000000e+00
3.44007954545455e-02 7.17440034101135e+01 0.00000000000000e+00
3.46037500000000e-02 7.11829696614967e+01 0.00000000000000e+00
3.48067045454545e-02 7.06263231627143e+01 0.00000000000000e+00
3.50096590909091e-02 7.00740296057392e+01 0.00000000000000e+00
3.52126136363636e-02 6.95260549508309e+01 0.00000000000000e+00
3.54155681818182e-02 6.89823654244375e+01 0.00000000000000e+00
3.56185227272727e-02 6.84429275171143e+01 0.00000000000000e+00
3.58214772727273e-02 6.79077079814586e+01 0.00000000000000e+00
3.60244318181818e-02 6.73766738300601e+01 0.00000000000000e+00
3.62273863636364e-02 6.68497923334682e+01 0.00000000000000e+00
3.64303409090909e-02 6.63270310181744e+01 0.00000000000000e+00
3.66332954545455e-02 6.58083576646114e+01 0.00000000000000e+00
3.68362500000000e-02 6.52937403051668e+01 0.00000000000000e+00
3.70392045454545e-02 6.47831472222129e+01 0.00000000000000e+00
3.72421590909091e-02 6.42765469461520e+01 0.00000000000000e+00
3.74451136363636e-02 6.37739082534767e+01 0.00000000000000e+00
3.76480681818182e-02 6.32752001648456e+01 0.00000000000000e+00
3.78510227272727e-02 6.27803919431739e+01 0.00000000000000e+00
3.80539772727273e-02 6.22894530917388e+01 0.00000000000000e+00
3.82569318181818e-02 6.18023533523001e+01 0.00000000000000e+00
3.84598863636364e-02 6.13190627032352e+01 0.00000000000000e+00
3.86628409090909e-02 6.08395513576888e+01 0.00000000000000e+00
3.88657954545455e-02 6.03637897617369e+01 0.00000000000000e+00
3.90687500000000e-02 5.98917485925655e+01 0.00000000000000e+00
3.92717045454545e-02 5.94233987566631e+01 0.00000000000000e+00
3.94746590909091e-02 5.89587113880278e+01 0.00000000000000e+00
3.96776136363636e-02 5.84976578463880e+01 0.00000000000000e+00
3.98805681818182e-02 5.80402097154375e+01 0.00000000000000e+00
4.00835227272727e-02 5.75863388010835e+01 0.00000000000000e+00
4.02864772727273e-02 5.71360171297096e+01 0.00000000000000e+00
4.04894318181818e-02 5.66892169464514e+01 0.00000000000000e+00
4.06923863636364e-02 5.62459107134855e+01 0.00000000000000e+00
4.08953409090909e-02 5.58060711083331e+01 0.00000000000000e+00
4.10982954545454e-02 5.53696710221751e+01 0.00000000000000e+00
4.13012500000000e-02 5.49366835581820e+01 0.00000000000000e+00
4.15042045454545e-02 5.45070820298558e+01 0.00000000000000e+00
4.17071590909091e-02 5.40808399593851e+01 0.00000000000000e+00
4.19101136363636e-02 5.36579310760136e+01 0.00000000000000e+00
4.21130681818182e-02 5.32383293144208e+01 0.00000000000000e+00
4.23160227272727e-02 5.28220088131151e+01 0.00000000000000e+00
4.25189772727273e-02 5.24089439128405e+01 0.00000000000000e+00
4.27219318181818e-02 5.19991091549947e+01 0.00000000000000e+00
4.29248863636364e-02 5.15924792800600e+01 0.00000000000000e+00
4.31278409090909e-02 5.11890292260468e+01 0.00000000000000e+00
4.33307954545455e-02 5.07887341269487e+01 0.00000000000000e+00
4.35337500000000e-02 5.03915693112097e+01 0.00000000000000e+00
4.37367045454545e-02 4.99975103002043e+01 0.00000000000000e+00
4.39396590909091e-02 4.96065328067281e+01 0.00000000000000e+00
4.41426136363636e-02 4.92186127335012e+01 0.00000000000000e+00
4.43455681818182e-02 4.88337261716828e+01 0.00000000000000e+00
4.45485227272727e-02 4.84518493993982e+01 0.00000000000000e+00
4.47514772727273e-02 4.80729588802760e+01 0.00000000000000e+00
4.49544318181818e-02 4.76970312619978e+01 0.00000000000000e+00
4.51573863636364e-02 4.73240433748591e+01 0.00000000000000e+00
4.53603409090909e-02 4.69539722303408e+01 0.00000000000000e+00
4.55632954545455e-02 4.65867950196929e+01 0.00000000000000e+00
4.57662500000000e-02 4.62224891125283e+01 0.00000000000000e+00
4.59692045454545e-02 4.58610320554282e+01 0.00000000000000e+00
4.61721590909091e-02 4.55024015705581e+01 0.00000000000000e+00
4.63751136363636e-02 4.51465755542948e+01 0.00000000000000e+00
4.65780681818182e-02 4.47935320758643e+01 0.00000000000000e+00
4.67810227272727e-02 4.44432493759897e+01 0.00000000000000e+00
4.69839772727273e-02 4.40957058655503e+01 0.00000000000000e+00
4.71869318181818e-02 4.37508801242513e+01 0.00000000000000e+00
4.73898863636364e-02 4.34087508993029e+01 0.00000000000000e+00
4.75928409090909e-02 4.30692971041112e+01 0.00000000000000e+00
4.77957954545455e-02 4.27324978169780e+01 0.00000000000000e+00
4.79987500000000e-02 4.23983322798114e+01 0.00000000000000e+00
4.82017045454545e-02 4.20667798968468e+01 0.00000000000000e+00
4.84046590909091e-02 4.17378202333770e+01 0.00000000000000e+00
4.86076136363636e-02 4.14114330144930e+01 0.00000000000000e+00
4.88105681818182e-02 4.10875981238345e+01 0.00000000000000e+00
4.90135227272727e-02 4.07662956023498e+01 0.00000000000000e+00
4.92164772727273e-02 4.04475056470658e+01 0.00000000000000e+00
4.94194318181818e-02 4.01312086098673e+01 0.00000000000000e+00
4.96223863636364e-02 3.98173849962865e+01 0.00000000000000e+00
4.98253409090909e-02 3.95060154643008e+01 0.00000000000000e+00
5.00282954545455e-02 3.91970808231413e+01 0.00000000000000e+00
5.02312500000000e-02 3.88905620321096e+01 0.00000000000000e+00
5.04342045454545e-02 3.85864401994044e+01 0.00000000000000e+00
5.06371590909091e-02 3.82846965809573e+01 0.00000000000000e+00
5.08401136363636e-02 3.79853125792772e+01 0.00000000000000e+00
5.10430681818182e-02 3.76882697423043e+01 0.00000000000000e+00
5.12460227272727e-02 3.73935497622728e+01 0.00000000000000e+00
5.14489772727273e-02 3.71011344745825e+01 0.00000000000000e+00
5.16519318181818e-02 3.68110058566794e+01 0.00000000000000e+00
5.18548863636364e-02 3.65231460269446e+01 0.00000000000000e+00
5.20578409090909e-02 3.62375372435924e+01 0.00000000000000e+00
5.22607954545454e-02 3.59541619035769e+01 0.00000000000000e+00
5.24637500000000e-02 3.56730025415068e+01 0.00000000000000e+00
5.26667045454545e-02 3.53940418285693e+01 0.00000000000000e+00
5.28696590909091e-02 3.51172625714616e+01 0.00000000000000e+00
5.30726136363636e-02 3.48426477113317e+01 0.00000000000000e+00
5.32755681818182e-02 3.45701803227266e+01 0.00000000000000e+00
5.34785227272727e-02 3.42998436125496e+01 0.00000000000000e+00
5.36814772727273e-02 3.40316209190247e+01 0.00000000000000e+00
5.38844318181818e-02 3.37654957106701e+01 0.00000000000000e+00
5.40873863636364e-02 3.35014515852793e+01 0.00000000000000e+00
5.42903409090909e-02 3.32394722689097e+01 0.00000000000000e+00
5.44932954545455e-02 3.29795416148804e+01 0.00000000000000e+00
5.46962500000000e-02 3.27216436027762e+01 0.00000000000000e+00
5.48992045454545e-02 3.24657623374608e+01 0.00000000000000e+00
5.51021590909091e-02 3.22118820480969e+01 0.00000000000000e+00
5.53051136363636e-02 3.19599870871739e+01 0.00000000000000e+00
5.55080681818182e-02 3.17100619295441e+01 0.00000000000000e+00
5.57110227272727e-02 3.14620911714654e+01 0.00000000000000e+00
5.59139772727273e-02 3.12160595296521e+01 0.00000000000000e+00
5.61169318181818e-02 3.09719518403326e+01 0.00000000000000e+00
5.63198863636364e-02 3.07297530583155e+01 0.00000000000000e+00
5.65228409090909e-02 3.04894482560615e+01 0.00000000000000e+00
5.67257954545455e-02 3.02510226227640e+01 0.00000000000000e+00
5.69287500000000e-02 3.00144614634358e+01 0.00000000000000e+00
5.71317045454545e-02 2.97797501980038e+01 0.00000000000000e+00
5.73346590909091e-02 2.95468743604100e+01 0.00000000000000e+00
5.75376136363636e-02 2.93158195977203e+01 0.00000000000000e+00
5.77405681818182e-02 2.90865716692395e+01 0.00000000000000e+00
5.79435227272727e-02 2.88591164456340e+01 0.00000000000000e+00
5.81464772727273e-02 2.86334399080603e+01 0.00000000000000e+00
5.83494318181818e-02 2.84095281473019e+01 0.00000000000000e+00
5.85523863636364e-02 2.81873673629113e+01 0.00000000000000e+00
5.87553409090909e-02 2.79669438623595e+01 0.00000000000000e+00
5.89582954545455e-02 2.77482440601926e+01 0.00000000000000e+00
5.91612500000000e-02 2.75312544771938e+01 0.00000000000000e+00
5.93642045454545e-02 2.73159617395531e+01 0.00000000000000e+00
5.95671590909091e-02 2.71023525780430e+01 0.00000000000000e+00
5.97701136363636e-02 2.68904138272003e+01 0.00000000000000e+00
5.99730681818182e-02 2.66801324245151e+01 0.00000000000000e+00
6.01760227272727e-02 2.64714954096254e+01 0.00000000000000e+00
6.03789772727273e-02 2.62644899235187e+01 0.00000000000000e+00
6.05819318181818e-02 2.60591032077388e+01 0.00000000000000e+00
6.07848863636364e-02 2.58553226036003e+01 0.00000000000000e+00
6.09878409090909e-02 2.56531355514076e+01 0.00000000000000e+00
6.11907954545454e-02 2.54525295896813e+01 0.00000000000000e+00
6.13937500000000e-02 2.52534923543900e+01 0.00000000000000e+00
6.15967045454545e-02 2.50560115781882e+01 0.00000000000000e+00
6.17996590909091e-02 2.48600750896605e+01 0.00000000000000e+00
6.20026136363636e-02 2.46656708125711e+01 0.00000000000000e+00
6.22055681818182e-02 2.44727867651195e+01 0.00000000000000e+00
6.24085227272727e-02 2.42814110592023e+01 0.00000000000000e+00
6.26114772727273e-02 2.40915318996804e+01 0.00000000000000e+00
6.28144318181818e-02 2.39031375836519e+01 0.00000000000000e+00
6.30173863636364e-02 2.37162164997308e+01 0.00000000000000e+00
6.32203409090909e-02 2.35307571273315e+01 0.00000000000000e+00
6.34232954545454e-02 2.33467480359588e+01 0.00000000000000e+00
6.36262500000000e-02 2.31641778845031e+01 0.00000000000000e+00
6.38292045454545e-02 2.29830354205416e+01 0.00000000000000e+00
6.40321590909091e-02 2.28033094796450e+01 0.00000000000000e+00
