Energy (eV)          EEDF (eV^-(3/2))     First Anisotropy
3.14423076923077e-02 3.85961790536479e-02 2.00808497771541e-05
9.43269230769231e-02 3.83407056269911e-02 3.31609284983411e-05
1.57211538461538e-01 3.80869232135722e-02 4.37807877315680e-05
2.20096153846154e-01 3.78348206218652e-02 5.18515833577177e-05
2.82980769230769e-01 3.75843867312243e-02 5.85850511277204e-05
3.45865384615385e-01 3.73356104975060e-02 6.44391584301432e-05
4.08750000000000e-01 3.70884809482045e-02 6.96508184141247e-05
4.71634615384615e-01 3.68429871830684e-02 7.43630453248359e-05
5.34519230769231e-01 3.65991183752112e-02 7.86706555473883e-05
5.97403846153846e-01 3.63568637687386e-02 8.26406400934156e-05
6.60288461538462e-01 3.61162126786368e-02 8.63225718520938e-05
7.23173076923077e-01 3.58771544913922e-02 8.97544526101845e-05
7.86057692307692e-01 3.56396786630209e-02 9.29662376710327e-05
8.48942307692308e-01 3.54037747200026e-02 9.59820797785383e-05
9.11826923076923e-01 3.51694322577797e-02 9.88218215661233e-05
9.74711538461538e-01 3.49366409404428e-02 1.01502024074325e-04
1.03759615384615e+00 3.47053905000438e-02 1.04036696843221e-04
1.10048076923077e+00 3.44756707394055e-02 1.06437830721482e-04
1.16336538461538e+00 3.42474715245523e-02 1.08715793342612e-04
1.22625000000000e+00 3.40207827928028e-02 1.10879629775408e-04
1.28913461538462e+00 3.37955945441534e-02 1.12937294413268e-04
1.35201923076923e+00 3.35718968484723e-02 1.14895832387396e-04
1.41490384615385e+00 3.33496798379024e-02 1.16761523626890e-04
1.47778846153846e+00 3.31289337131590e-02 1.18539998364595e-04
1.54067307692308e+00 3.29096487367469e-02 1.20236330978785e-04
1.60355769230769e+00 3.26918152385357e-02 1.21855116754424e-04
1.66644230769231e+00 3.24754236096422e-02 1.23400535619009e-04
1.72932692307692e+00 3.22604643061544e-02 1.24876404275533e-04
1.79221153846154e+00 3.20469278485983e-02 1.26286221737259e-04
1.85509615384615e+00 3.18348048177260e-02 1.27633206148298e-04
1.91798076923077e+00 3.16240858590418e-02 1.28920326859559e-04
1.98086538461538e+00 3.14147616776719e-02 1.30150331802924e-04
2.04375000000000e+00 3.12068230424644e-02 1.31325770954404e-04
2.10663461538462e+00 3.10002607812652e-02 1.32449016709969e-04
2.16951923076923e+00 3.07950657846510e-02 1.33522281510397e-04
2.23240384615385e+00 3.05912290015564e-02 1.34547633302847e-04
2.29528846153846e+00 3.03887414426907e-02 1.35527009020073e-04
2.35817307692308e+00 3.01875941764707e-02 1.36462226513806e-04
2.42105769230769e+00 2.99877783321607e-02 1.37354995028252e-04
2.48394230769231e+00 2.97892850960760e-02 1.38206924685837e-04
2.54682692307692e+00 2.95921057137001e-02 1.39019534198421e-04
2.60971153846154e+00 2.93962314892443e-02 1.39794259100068e-04
2.67259615384615e+00 2.92016537829213e-02 1.40532457821009e-04
2.73548076923077e+00 2.90083640136369e-02 1.41235417740532e-04
2.79836538461538e+00 2.88163536556409e-02 1.41904360563023e-04
2.86125000000000e+00 2.86256142410250e-02 1.42540447113023e-04
2.92413461538462e+00 2.84361373565671e-02 1.43144781726993e-04
2.98701923076923e+00 2.82479146460554e-02 1.43718416183087e-04
3.04990384615385e+00 2.80609378073073e-02 1.44262353323252e-04
3.11278846153846e+00 2.78751985943373e-02 1.44777550302932e-04
3.17567307692308e+00 2.76906888145340e-02 1.45264921604596e-04
3.23855769230769e+00 2.75074003306864e-02 1.45725341747241e-04
3.30144230769231e+00 2.73253250583060e-02 1.46159647921788e-04
3.36432692307692e+00 2.71444549669847e-02 1.46568641834758e-04
3.42721153846154e+00 2.69647820800082e-02 1.46953092488046e-04
3.49009615384615e+00 2.67862984723835e-02 1.47313737692094e-04
3.55298076923077e+00 2.66089962726227e-02 1.47651285954488e-04
3.61586538461538e+00 2.64328676603201e-02 1.47966418160514e-04
3.67875000000000e+00 2.62579048678278e-02 1.48259789088617e-04
3.74163461538462e+00 2.60841001779455e-02 1.48532028853672e-04
3.80451923076923e+00 2.59114459254971e-02 1.48783744208626e-04
3.86740384615385e+00 2.57399344951241e-02 1.49015519791055e-04
3.93028846153846e+00 2.55695583227716e-02 1.49227919247230e-04
3.99317307692308e+00 2.54003098935778e-02 1.49421486314523e-04
4.05605769230769e+00 2.52321817432760e-02 1.49596745796990e-04
4.11894230769231e+00 2.50651664561741e-02 1.49754204598783e-04
4.18182692307692e+00 2.48992566660811e-02 1.49894352219185e-04
4.24471153846154e+00 2.47344450559606e-02 1.50017662111019e-04
4.30759615384615e+00 2.45707243564153e-02 1.50124592084960e-04
4.37048076923077e+00 2.44080873469402e-02 1.50215585100688e-04
4.43336538461539e+00 2.42465268540666e-02 1.50291069953065e-04
4.49625000000000e+00 2.40860357525479e-02 1.50351461886916e-04
4.55913461538462e+00 2.39266069635773e-02 1.50397163205075e-04
4.62201923076923e+00 2.37682334559108e-02 1.50428563812153e-04
4.68490384615385e+00 2.36109082441535e-02 1.50446041755416e-04
4.74778846153846e+00 2.34546243898245e-02 1.50449963707429e-04
4.81067307692308e+00 2.32993749997075e-02 1.50440685448962e-04
4.87355769230769e+00 2.31451532268616e-02 1.50418552298785e-04
4.93644230769231e+00 2.29919522690320e-02 1.50383899620770e-04
4.99932692307692e+00 2.28397653693063e-02 1.50337052909617e-04
5.06221153846154e+00 2.26885858158008e-02 1.50278328624511e-04
5.12509615384615e+00 2.25384069404509e-02 1.50208034246608e-04
5.18798076923077e+00 2.23892221199241e-02 1.50126468682814e-04
5.25086538461538e+00 2.22410247741455e-02 1.50033922599331e-04
5.31375000000000e+00 2.20938083671662e-02 1.49930678714735e-04
5.37663461538462e+00 2.19475664057395e-02 1.49817012102005e-04
5.43951923076923e+00 2.18022924401474e-02 1.49693190452935e-04
5.50240384615385e+00 2.16579800628254e-02 1.49559474352396e-04
5.56528846153846e+00 2.15146229091491e-02 1.49416117517438e-04
5.62817307692308e+00 2.13722146561049e-02 1.49263367046964e-04
5.69105769230769e+00 2.12307490230400e-02 1.49101463638551e-04
5.75394230769231e+00 2.10902197703759e-02 1.48930641879589e-04
5.81682692307692e+00 2.09506207000837e-02 1.48751130190722e-04
5.87971153846154e+00 2.08119456553994e-02 1.48563151412617e-04
5.94259615384615e+00 2.06741885198328e-02 1.48366922741155e-04
6.00548076923077e+00 2.05373432178494e-02 1.48162655964718e-04
6.06836538461538e+00 2.04014037136683e-02 1.47950557647565e-04
6.13125000000000e+00 2.02663640119131e-02 1.47730829286113e-04
6.19413461538462e+00 2.01322181564470e-02 1.47503667477622e-04
6.25701923076923e+00 1.99989602309943e-02 1.47269264063147e-04
6.31990384615385e+00 1.98665843580112e-02 1.47027806283060e-04
6.38278846153846e+00 1.97350846992793e-02 1.46779476908119e-04
6.44567307692308e+00 1.96044554548105e-02 1.46524454383085e-04
6.50855769230769e+00 1.94746908634141e-02 1.46262912947117e-04
6.57144230769231e+00 1.93457852016340e-02 1.45995022820990e-04
6.63432692307692e+00 1.92177327840986e-02 1.45720950100121e-04
6.69721153846154e+00 1.90905279632602e-02 1.45440857202741e-04
6.76009615384615e+00 1.89641651285687e-02 1.45154902761851e-04
6.82298076923077e+00 1.88386387069889e-02 1.44863241779861e-04
6.88586538461538e+00 1.87139431620027e-02 1.44566025739042e-04
6.94875000000000e+00 1.85900729941045e-02 1.44263402691881e-04
7.01163461538462e+00 1.84670227398312e-02 1.43955517363907e-04
7.07451923076923e+00 1.83447869722366e-02 1.43642511237240e-04
7.13740384615385e+00 1.82233602999486e-02 1.43324522646450e-04
7.20028846153846e+00 1.81027373676232e-02 1.43001686855940e-04
7.26317307692308e+00 1.79829128550279e-02 1.42674136149485e-04
7.32605769230769e+00 1.78638814774764e-02 1.42341999901968e-04
7.38894230769231e+00 1.77456379849371e-02 1.42005404710135e-04
7.45182692307692e+00 1.76281771622918e-02 1.41664474270809e-04
7.51471153846154e+00 1.75114938290986e-02 1.41319329740542e-04
7.57759615384615e+00 1.73955828388919e-02 1.40970089615571e-04
7.64048076923077e+00 1.72804390795802e-02 1.40616869840526e-04
7.70336538461538e+00 1.71660574726053e-02 1.40259783879744e-04
7.76625000000000e+00 1.70524329733243e-02 1.39898942772803e-04
7.82913461538462e+00 1.69395605701908e-02 1.39534455201541e-04
7.89201923076923e+00 1.68274352851204e-02 1.39166427541822e-04
7.95490384615385e+00 1.67160521726940e-02 1.38794963926560e-04
8.01778846153846e+00 1.66054063205078e-02 1.38420166294040e-04
8.08067307692308e+00 1.64954928483974e-02 1.38042134447273e-04
8.14355769230769e+00 1.63863069087731e-02 1.37660966099158e-04
8.20644230769231e+00 1.62778436858639e-02 1.37276756969361e-04
8.26932692307692e+00 1.61700983959094e-02 1.36889600662519e-04
8.33221153846154e+00 1.60630662869429e-02 1.36499588965998e-04
8.39509615384615e+00 1.59567426381924e-02 1.36106811730773e-04
8.45798076923077e+00 1.58511227603887e-02 1.35711356952286e-04
8.52086538461539e+00 1.57462019950500e-02 1.35313310819061e-04
8.58375000000000e+00 1.56419757147774e-02 1.34912757748456e-04
8.64663461538461e+00 1.55384393225573e-02 1.34509780432689e-04
8.70951923076923e+00 1.54355882520448e-02 1.34104459872391e-04
8.77240384615385e+00 1.53334179668835e-02 1.33696875420169e-04
8.83528846153846e+00 1.52319239609771e-02 1.33287104812142e-04
8.89817307692308e+00 1.51311017578256e-02 1.32875224209220e-04
8.96105769230769e+00 1.50309469107866e-02 1.32461308226725e-04
9.02394230769231e+00 1.49314550024270e-02 1.32045430009442e-04
9.08682692307692e+00 1.48326216446651e-02 1.31627661115919e-04
9.14971153846154e+00 1.47344424785726e-02 1.31208071770050e-04
9.21259615384615e+00 1.46369131738573e-02 1.30786730748363e-04
9.27548076923077e+00 1.45400294291028e-02 1.30363705442682e-04
9.33836538461538e+00 1.44437869711545e-02 1.29939061894747e-04
9.40125000000000e+00 1.43481815553494e-02 1.29512864820086e-04
9.46413461538462e+00 1.42532089649162e-02 1.29085177640936e-04
9.52701923076923e+00 1.41588650111965e-02 1.28656062508766e-04
9.58990384615385e+00 1.40651455330586e-02 1.28225580335632e-04
9.65278846153846e+00 1.39720463971098e-02 1.27793790815443e-04
9.71567307692308e+00 1.38795634971236e-02 1.27360752453813e-04
9.77855769230769e+00 1.37876927542438e-02 1.26926522588142e-04
9.84144230769231e+00 1.36964301164248e-02 1.26491157447593e-04
9.90432692307692e+00 1.36057715585360e-02 1.26054712045948e-04
9.96721153846154e+00 1.35157130821809e-02 1.25617240397167e-04
1.00300961538462e+01 1.34262507152465e-02 1.25178795533943e-04
1.00929807692308e+01 1.33373805117388e-02 1.24739429126572e-04
1.01558653846154e+01 1.32490985524898e-02 1.24299191909665e-04
1.02187500000000e+01 1.31614009438262e-02 1.23858133858025e-04
1.02816346153846e+01 1.30742838178469e-02 1.23416303798422e-04
1.03445192307692e+01 1.29877433322531e-02 1.22973749587057e-04
1.04074038461538e+01 1.29017756701796e-02 1.22530518417553e-04
1.04702884615385e+01 1.28163770392124e-02 1.22086655969843e-04
1.05331730769231e+01 1.27315436736775e-02 1.21642207011290e-04
1.05960576923077e+01 1.26472718320019e-02 1.21197216002809e-04
1.06589423076923e+01 1.25635577973787e-02 1.20751726229745e-04
1.07218269230769e+01 1.24803978776021e-02 1.20305780115597e-04
1.07847115384615e+01 1.23977884049066e-02 1.19859419238682e-04
1.08475961538462e+01 1.23157257358042e-02 1.19412684618623e-04
1.09104807692308e+01 1.22342062501799e-02 1.18965615918907e-04
1.09733653846154e+01 1.21532263533788e-02 1.18518252007123e-04
1.10362500000000e+01 1.20727824737852e-02 1.18070631520031e-04
1.10991346153846e+01 1.19928710634243e-02 1.17622792049551e-04
1.11620192307692e+01 1.19134885978055e-02 1.17174770434797e-04
1.12249038461538e+01 1.18346315757682e-02 1.16726603031361e-04
1.12877884615385e+01 1.17562965186348e-02 1.16278324956897e-04
1.13506730769231e+01 1.16784799721460e-02 1.15829970619365e-04
1.14135576923077e+01 1.16011785042057e-02 1.15381574249976e-04
1.14764423076923e+01 1.15243887054355e-02 1.14933169133190e-04
1.15393269230769e+01 1.14481071890234e-02 1.14484787881455e-04
1.16022115384615e+01 1.13723305905760e-02 1.14036462447665e-04
1.16650961538462e+01 1.12970555679693e-02 1.13588224376343e-04
1.17279807692308e+01 1.12222788005666e-02 1.13140104096094e-04
1.17908653846154e+01 1.11479969909890e-02 1.12692131413037e-04
1.18537500000000e+01 1.10742068630400e-02 1.12244336008677e-04
1.19166346153846e+01 1.10009051622086e-02 1.11796746717971e-04
1.19795192307692e+01 1.09280886555258e-02 1.11349391785733e-04
1.20424038461538e+01 1.08557541314224e-02 1.10902299103262e-04
1.21052884615385e+01 1.07838983989960e-02 1.10455495538402e-04
1.21681730769231e+01 1.07125182896553e-02 1.10009007401579e-04
1.22310576923077e+01 1.06416106551834e-02 1.09562860916123e-04
1.22939423076923e+01 1.05711723682020e-02 1.09117081534726e-04
1.23568269230769e+01 1.05012003220326e-02 1.08671694181190e-04
1.24197115384615e+01 1.04316914305611e-02 1.08226723259903e-04
1.24825961538462e+01 1.03626426281007e-02 1.07782192877053e-04
1.25454807692308e+01 1.02940508687126e-02 1.07338126211728e-04
1.26083653846154e+01 1.02259131277151e-02 1.06894545951969e-04
1.26712500000000e+01 1.01582263998960e-02 1.06451474734964e-04
1.27341346153846e+01 1.00909876999347e-02 1.06008934505520e-04
1.27970192307692e+01 1.00241940622709e-02 1.05566946742123e-04
1.28599038461538e+01 9.95784254097415e-03 1.05125532665709e-04
1.29227884615385e+01 9.89193020910544e-03 1.04684712643716e-04
1.29856730769231e+01 9.82645416012214e-03 1.04244506602486e-04
1.30485576923077e+01 9.76141150620591e-03 1.03804934443647e-04
1.31114423076923e+01 9.69679937865332e-03 1.03366015436231e-04
1.31743269230769e+01 9.63261492774879e-03 1.02927768430131e-04
1.32372115384615e+01 9.56885532263997e-03 1.02490211863434e-04
1.33000961538462e+01 9.50551775121236e-03 1.02053363957947e-04
1.33629807692308e+01 9.44259941949652e-03 1.01617242159260e-04
1.34258653846154e+01 9.38009755295999e-03 1.01181863523216e-04
1.34887500000000e+01 9.31800939496072e-03 1.00747245106137e-04
1.35516346153846e+01 9.25633220710307e-03 1.00313403393796e-04
1.36145192307692e+01 9.19506326911722e-03 9.98803545013950e-05
1.36774038461538e+01 9.13419987873952e-03 9.94481143583171e-05
1.37402884615385e+01 9.07373935115469e-03 9.90166981771582e-05
1.38031730769231e+01 9.01367902020056e-03 9.85861208196570e-05
1.38660576923077e+01 8.95401623691897e-03 9.81563971662257e-05
1.39289423076923e+01 8.89474836988561e-03 9.77275415744664e-05
1.39918269230769e+01 8.83587280509354e-03 9.72995680682281e-05
1.40547115384615e+01 8.77738694583873e-03 9.68724903433502e-05
1.41175961538462e+01 8.71928821260517e-03 9.64463219409818e-05
1.41804807692308e+01 8.66157404254589e-03 9.60210757482927e-05
1.42433653846154e+01 8.60424189059291e-03 9.55967643417980e-05
1.43062500000000e+01 8.54728922811438e-03 9.51734003341217e-05
1.43691346153846e+01 8.49071354321562e-03 9.47509958649048e-05
1.44320192307692e+01 8.43451234062859e-03 9.43295627781726e-05
1.44949038461538e+01 8.37868314160196e-03 9.39091127863114e-05
1.45577884615385e+01 8.32322348341226e-03 9.34896569962822e-05
1.46206730769231e+01 8.26813092040045e-03 9.30712062350213e-05
1.46835576923077e+01 8.21340302271167e-03 9.26537713781171e-05
1.47464423076923e+01 8.15903737657465e-03 9.22373628667359e-05
1.48093269230769e+01 8.10503158419487e-03 9.18219908755067e-05
1.48722115384615e+01 8.05138326364953e-03 9.14076653170639e-05
1.49350961538462e+01 7.99809004878213e-03 9.09943959960218e-05
1.49979807692308e+01 7.94514958874676e-03 9.05821921631797e-05
1.50608653846154e+01 7.89255954896491e-03 9.01710628211256e-05
1.51237500000000e+01 7.84031760995547e-03 8.97610170329793e-05
1.51866346153846e+01 7.78842146759016e-03 8.93520634679029e-05
1.52495192307692e+01 7.73686883299207e-03 8.89442105587630e-05
1.53124038461538e+01 7.68565743243486e-03 8.85374666479775e-05
1.53752884615385e+01 7.63478500691285e-03 8.81318395641875e-05
1.54381730769231e+01 7.58424931303581e-03 8.77273369121812e-05
1.55010576923077e+01 7.53404812192950e-03 8.73239663657811e-05
1.55639423076923e+01 7.48417921947294e-03 8.69217352362880e-05
1.56268269230769e+01 7.43464040620042e-03 8.65206506218695e-05
1.56897115384615e+01 7.38542949720513e-03 8.61207194111790e-05
1.57525961538462e+01 7.33654432204247e-03 8.57219484204709e-05
1.58154807692308e+01 7.28798272432874e-03 8.53243439949897e-05
1.58783653846154e+01 7.23974256256837e-03 8.49279122815240e-05
1.59412500000000e+01 7.19182170913149e-03 8.45326595037926e-05
1.60041346153846e+01 7.14421805047120e-03 8.41385915561124e-05
1.60670192307692e+01 7.09692948703049e-03 8.37457141438474e-05
1.61299038461538e+01 7.04995393314975e-03 8.33540329133947e-05
1.61927884615385e+01 7.00328931668771e-03 8.29635530734734e-05
1.62556730769231e+01 6.95693357979606e-03 8.25742796538423e-05
1.63185576923077e+01 6.91088467795742e-03 8.21862177667433e-05
1.63814423076923e+01 6.86514058018740e-03 8.17993722208790e-05
1.64443269230769e+01 6.81969926894474e-03 8.14137476545780e-05
1.65072115384615e+01 6.77455874004280e-03 8.10293485387204e-05
1.65700961538462e+01 6.72971700256098e-03 8.06461792990420e-05
1.66329807692308e+01 6.68517207849034e-03 8.02642439592977e-05
1.66958653846154e+01 6.64092200345071e-03 7.98835463847143e-05
1.67587500000000e+01 6.59696482579485e-03 7.95040905279862e-05
1.68216346153846e+01 6.55329860679370e-03 7.91258800655864e-05
1.68845192307692e+01 6.50992142055089e-03 7.87489185230977e-05
1.69474038461538e+01 6.46683135391797e-03 7.83732093912325e-05
1.70102884615385e+01 6.42402650615937e-03 7.79987557866422e-05
1.70731730769231e+01 6.38150498962459e-03 7.76255606831667e-05
1.71360576923077e+01 6.33926492890445e-03 7.72536271455408e-05
1.71989423076923e+01 6.29730446100333e-03 7.68829579836819e-05
1.72618269230769e+01 6.25562173525688e-03 7.65135558716023e-05
1.73247115384615e+01 6.21421491325075e-03 7.61454233497694e-05
1.73875961538462e+01 6.17308216873934e-03 7.57785629343872e-05
1.74504807692308e+01 6.13222168733221e-03 7.54129767976010e-05
1.75133653846154e+01 6.09163166711722e-03 7.50486669852445e-05
1.75762500000000e+01 6.05131031787375e-03 7.46856356369225e-05
1.76391346153846e+01 6.01125586123081e-03 7.43238846601026e-05
1.77020192307692e+01 5.97146653058871e-03 7.39634158421049e-05
1.77649038461538e+01 5.93194057104122e-03 7.36042309538351e-05
1.78277884615385e+01 5.89267623907885e-03 7.32463314456807e-05
1.78906730769231e+01 5.85367180317355e-03 7.28897186544568e-05
1.79535576923077e+01 5.81492554303682e-03 7.25343940125865e-05
1.80164423076923e+01 5.77643574976702e-03 7.21803587381809e-05
1.80793269230769e+01 5.73820072577378e-03 7.18276139413601e-05
1.81422115384615e+01 5.70021878470350e-03 7.14761606261782e-05
1.82050961538462e+01 5.66248825136482e-03 7.11259997883877e-05
1.82679807692308e+01 5.62500746145054e-03 7.07771321285625e-05
1.83308653846154e+01 5.58777476208026e-03 7.04295582470995e-05
1.83937500000000e+01 5.55078851110788e-03 7.00832788413372e-05
1.84566346153846e+01 5.51404707725680e-03 6.97382944132233e-05
1.85195192307692e+01 5.47754884004806e-03 6.93946053695182e-05
1.85824038461538e+01 5.44129218972898e-03 6.90522121146653e-05
1.86452884615385e+01 5.40527552700980e-03 6.87111147778691e-05
1.87081730769231e+01 5.36949726357329e-03 6.83713133985115e-05
1.87710576923077e+01 5.33395582142116e-03 6.80328081136135e-05
1.88339423076923e+01 5.29864963300012e-03 6.76955988797023e-05
1.88968269230769e+01 5.26357714113261e-03 6.73596855680218e-05
1.89597115384615e+01 5.22873679894836e-03 6.70250679661025e-05
1.90225961538462e+01 5.19412706981610e-03 6.66917458653232e-05
1.90854807692308e+01 5.15974642709646e-03 6.63597188033249e-05
1.91483653846154e+01 5.12559335461556e-03 6.60289862388406e-05
1.92112500000000e+01 5.09166634605406e-03 6.56995477284487e-05
1.92741346153846e+01 5.05796390506315e-03 6.53714026640954e-05
1.93370192307692e+01 5.02448454519854e-03 6.50445503628786e-05
1.93999038461538e+01 4.99122678985500e-03 6.47189901502751e-05
1.94627884615385e+01 4.95818917203221e-03 6.43947211149806e-05
1.95256730769231e+01 4.92537023477983e-03 6.40717422752316e-05
1.95885576923077e+01 4.89276853062052e-03 6.37500527469658e-05
1.96514423076923e+01 4.86038262165801e-03 6.34296514940043e-05
1.97143269230769e+01 4.82821107951355e-03 6.31105374133997e-05
1.97772115384615e+01 4.79625248526313e-03 6.27927093367054e-05
1.98400961538462e+01 4.76450542937485e-03 6.24761661085082e-05
