Energy (eV)          EEDF (eV^-(3/2))     First Anisotropy
1.19444444444444e-03 4.95488230130571e+00 2.44859145758823e-03
3.58333333333333e-03 4.92317486744266e+00 4.04397845308936e-03
5.97222222222222e-03 4.89167033674615e+00 5.34025324736587e-03
8.36111111111111e-03 4.86036741080438e+00 6.32610555898410e-03
1.07500000000000e-02 4.82926479950095e+00 7.14919848716101e-03
1.31388888888889e-02 4.79836122108478e+00 7.86532244969261e-03
1.55277777777778e-02 4.76765540175528e+00 8.50332985291585e-03
1.79166666666667e-02 4.73714607601561e+00 9.08063249083790e-03
2.03055555555556e-02 4.70683198646400e+00 9.60877075667181e-03
2.26944444444444e-02 4.67671188374320e+00 1.00958959453634e-02
2.50833333333333e-02 4.64678452648779e+00 1.05480382203605e-02
2.74722222222222e-02 4.61704868127802e+00 1.09698188684067e-02
2.98611111111111e-02 4.58750312258631e+00 1.13648796168100e-02
3.22500000000000e-02 4.55814663272698e+00 1.17361559179229e-02
3.46388888888889e-02 4.52897800188787e+00 1.20860587032187e-02
3.70277777777778e-02 4.49999602783000e+00 1.24165996108388e-02
3.94166666666667e-02 4.47119951609494e+00 1.27294799013392e-02
4.18055555555556e-02 4.44258727986765e+00 1.30261552499505e-02
4.41944444444444e-02 4.41415813992760e+00 1.33078839494566e-02
4.65833333333333e-02 4.38591092459974e+00 1.35757634835189e-02
4.89722222222222e-02 4.35784446970731e+00 1.38307587380013e-02
5.13611111111111e-02 4.32995761852330e+00 1.40737240857182e-02
5.37500000000000e-02 4.30224922172274e+00 1.43054208983378e-02
5.61388888888889e-02 4.27471813738210e+00 1.45265316236872e-02
5.85277777777778e-02 4.24736323078986e+00 1.47376711805812e-02
6.09166666666667e-02 4.22018337454451e+00 1.49393962909955e-02
6.33055555555555e-02 4.19317744845898e+00 1.51322132191600e-02
6.56944444444444e-02 4.16634433951449e+00 1.53165841990057e-02
6.80833333333333e-02 4.13968294181446e+00 1.54929328339401e-02
7.04722222222222e-02 4.11319215653941e+00 1.56616486604904e-02
7.28611111111111e-02 4.08687089190142e+00 1.58230910298775e-02
7.52500000000000e-02 4.06071806309915e+00 1.59775924243681e-02
7.76388888888889e-02 4.03473259230476e+00 1.61254613277277e-02
8.00277777777778e-02 4.00891340852336e+00 1.62669846863472e-02
8.24166666666667e-02 3.98325944764630e+00 1.64024300464464e-02
8.48055555555556e-02 3.95776965237437e+00 1.65320474411423e-02
8.71944444444444e-02 3.93244297217425e+00 1.66560710276018e-02
8.95833333333333e-02 3.90727836323507e+00 1.67747205316899e-02
9.19722222222222e-02 3.88227478842569e+00 1.68882025239865e-02
9.43611111111111e-02 3.85743121725177e+00 1.69967115508631e-02
9.67500000000000e-02 3.83274662581333e+00 1.71004311366128e-02
9.91388888888889e-02 3.80821999678586e+00 1.71995346814052e-02
1.01527777777778e-01 3.78385031937411e+00 1.72941862929973e-02
1.03916666666667e-01 3.75963658911887e+00 1.73845414705793e-02
1.06305555555556e-01 3.73557780807979e+00 1.74707477430438e-02
1.08694444444444e-01 3.71167298470251e+00 1.75529452910605e-02
1.11083333333333e-01 3.68792113377699e+00 1.76312674611370e-02
1.13472222222222e-01 3.66432127639854e+00 1.77058412454698e-02
1.15861111111111e-01 3.64087243992659e+00 1.77767877182146e-02
1.18250000000000e-01 3.61757365794466e+00 1.78442224004290e-02
1.20638888888889e-01 3.59442397040063e+00 1.79082557189510e-02
1.23027777777778e-01 3.57142242302158e+00 1.79689932727548e-02
1.25416666666667e-01 3.54856806782551e+00 1.80265360713667e-02
1.27805555555556e-01 3.52585996289670e+00 1.80809809117672e-02
1.30194444444444e-01 3.50329717234691e+00 1.81324206015013e-02
1.32583333333333e-01 3.48087876627634e+00 1.81809441943012e-02
1.34972222222222e-01 3.45860382073629e+00 1.82266372076037e-02
1.37361111111111e-01 3.43647141769058e+00 1.82695818236966e-02
1.39750000000000e-01 3.41448064497773e+00 1.83098570478035e-02
1.42138888888889e-01 3.39263059641733e+00 1.83475389642114e-02
1.44527777777778e-01 3.37092037133686e+00 1.83827008398627e-02
1.46916666666667e-01 3.34934907497438e+00 1.84154132163789e-02
1.49305555555556e-01 3.32791581829372e+00 1.84457441337064e-02
1.51694444444444e-01 3.30661971794780e+00 1.84737592302955e-02
1.54083333333333e-01 3.28545989624193e+00 1.84995218630739e-02
1.56472222222222e-01 3.26443548109830e+00 1.85230932196193e-02
1.58861111111111e-01 3.24354560601973e+00 1.85445324231737e-02
1.61250000000000e-01 3.22278941005390e+00 1.85638966063311e-02
1.63638888888889e-01 3.20216603787581e+00 1.85812410766748e-02
1.66027777777778e-01 3.18167463939586e+00 1.85966193536333e-02
1.68416666666667e-01 3.16131437008449e+00 1.86100831997632e-02
1.70805555555556e-01 3.14108439081645e+00 1.86216827719489e-02
1.73194444444444e-01 3.12098386783623e+00 1.86314666679060e-02
1.75583333333333e-01 3.10101197272345e+00 1.86394819935239e-02
1.77972222222222e-01 3.08116788235919e+00 1.86457744264424e-02
1.80361111111111e-01 3.06145077889190e+00 1.86503882761359e-02
1.82750000000000e-01 3.04185984970356e+00 1.86533665188496e-02
1.85138888888889e-01 3.02239428747460e+00 1.86547509164062e-02
1.87527777777778e-01 3.00305328985338e+00 1.86545820230278e-02
1.89916666666667e-01 2.98383605972269e+00 1.86528991891252e-02
1.92305555555556e-01 2.96474180506625e+00 1.86497406732107e-02
1.94694444444444e-01 2.94576973893603e+00 1.86451436626325e-02
1.97083333333333e-01 2.92691907941969e+00 1.86391443142847e-02
1.99472222222222e-01 2.90818904960870e+00 1.86317777933363e-02
2.01861111111111e-01 2.88957887756611e+00 1.86230783101133e-02
2.04250000000000e-01 2.87108779629480e+00 1.86130791357068e-02
2.06638888888889e-01 2.85271504378882e+00 1.86018126935421e-02
2.09027777777778e-01 2.83445986275109e+00 1.85893105519755e-02
2.11416666666667e-01 2.81632150081503e+00 1.85756034150565e-02
2.13805555555556e-01 2.79829921042858e+00 1.85607212106892e-02
2.16194444444444e-01 2.78039224882347e+00 1.85446930981570e-02
2.18583333333333e-01 2.76259987798440e+00 1.85275474942125e-02
2.20972222222222e-01 2.74492136461894e+00 1.85093120980541e-02
2.23361111111111e-01 2.72735598012715e+00 1.84900139152503e-02
2.25750000000000e-01 2.70990300057158e+00 1.84696792631631e-02
2.28138888888889e-01 2.69256170671833e+00 1.84483338450964e-02
2.30527777777778e-01 2.67533138379310e+00 1.84260027360964e-02
2.32916666666667e-01 2.65821132166761e+00 1.84027103675433e-02
2.35305555555556e-01 2.64120081475785e+00 1.83784805996211e-02
2.37694444444444e-01 2.62429916199498e+00 1.83533367217984e-02
2.40083333333333e-01 2.60750566679636e+00 1.83273014703535e-02
2.42472222222222e-01 2.59081963703707e+00 1.83003970452346e-02
2.44861111111111e-01 2.57424038502119e+00 1.82726451262985e-02
2.47250000000000e-01 2.55776722745358e+00 1.82440668731681e-02
2.49638888888889e-01 2.54139948547278e+00 1.82146829873608e-02
2.52027777777778e-01 2.52513648443832e+00 1.81845136950091e-02
2.54416666666667e-01 2.50897755408896e+00 1.81535787287226e-02
2.56805555555556e-01 2.49292202845262e+00 1.81218973889536e-02
2.59194444444444e-01 2.47696924581891e+00 1.80894885406455e-02
2.61583333333333e-01 2.46111854871178e+00 1.80563706254653e-02
2.63972222222222e-01 2.44536928386262e+00 1.80225616736232e-02
2.66361111111111e-01 2.42972080218322e+00 1.79880793153090e-02
2.68750000000000e-01 2.41417245873903e+00 1.79529407774727e-02
2.71138888888889e-01 2.39872361277571e+00 1.79171629371374e-02
2.73527777777778e-01 2.38337362753226e+00 1.78807623029895e-02
2.75916666666667e-01 2.36812187037634e+00 1.78437549963074e-02
2.78305555555556e-01 2.35296771272394e+00 1.78061568040107e-02
2.80694444444444e-01 2.33791053001353e+00 1.77679831732521e-02
2.83083333333333e-01 2.32294970168018e+00 1.77292492202285e-02
2.85472222222222e-01 2.30808461113020e+00 1.76899697387334e-02
2.87861111111111e-01 2.29331464571559e+00 1.76501592084623e-02
2.90250000000000e-01 2.27863919670886e+00 1.76098317901156e-02
2.92638888888889e-01 2.26405765932431e+00 1.75690013719306e-02
2.95027777777778e-01 2.24956943255292e+00 1.75276815511744e-02
2.97416666666667e-01 2.23517391927872e+00 1.74858856151118e-02
2.99805555555556e-01 2.22087052620682e+00 1.74436265875567e-02
3.02194444444444e-01 2.20665866383896e+00 1.74009172224025e-02
3.04583333333333e-01 2.19253774644914e+00 1.73577700101471e-02
3.06972222222222e-01 2.17850719205962e+00 1.73141971842497e-02
3.09361111111111e-01 2.16456642241688e+00 1.72702107273175e-02
3.11750000000000e-01 2.15071486296775e+00 1.72258223653374e-02
3.14138888888889e-01 2.13695194287660e+00 1.71810436088057e-02
3.16527777777778e-01 2.12327709487852e+00 1.71358857346789e-02
3.18916666666667e-01 2.10968975538002e+00 1.70903597678926e-02
3.21305555555556e-01 2.09618936439416e+00 1.70444765226636e-02
3.23694444444444e-01 2.08277536551750e+00 1.69982465955520e-02
3.26083333333333e-01 2.06944720590708e+00 1.69516803704080e-02
3.28472222222222e-01 2.05620433625777e+00 1.69047880231937e-02
3.30861111111111e-01 2.04304621077957e+00 1.68575795267022e-02
3.33250000000000e-01 2.02997228717511e+00 1.68100646443987e-02
3.35638888888889e-01 2.01698202665334e+00 1.67622529671085e-02
3.38027777777778e-01 2.00407489379853e+00 1.67141538957291e-02
3.40416666666667e-01 1.99125035665768e+00 1.66657766235656e-02
3.42805555555556e-01 1.97850788668190e+00 1.66171301732765e-02
3.45194444444444e-01 1.96584695870458e+00 1.65682233898191e-02
3.47583333333333e-01 1.95326705091973e+00 1.65190649442697e-02
3.49972222222222e-01 1.94076764486058e+00 1.64696633375598e-02
3.52361111111111e-01 1.92834822537813e+00 1.64200269041401e-02
3.54750000000000e-01 1.91600828061993e+00 1.63701638057212e-02
3.57138888888889e-01 1.90374730204096e+00 1.63200820642353e-02
3.59527777777778e-01 1.89156478428618e+00 1.62697895454480e-02
3.61916666666667e-01 1.87946022526679e+00 1.62192939422377e-02
3.64305555555556e-01 1.86743312610696e+00 1.61686028078614e-02
3.66694444444444e-01 1.85548299112329e+00 1.61177235489879e-02
3.69083333333333e-01 1.84360932780433e+00 1.60666634286981e-02
3.71472222222222e-01 1.83181164679035e+00 1.60154295694296e-02
3.73861111111111e-01 1.82008946185316e+00 1.59640289558647e-02
3.76250000000000e-01 1.80844228987605e+00 1.59124684287495e-02
3.78638888888889e-01 1.79686965086232e+00 1.58607547146723e-02
3.81027777777778e-01 1.78537106782967e+00 1.58088944106273e-02
3.83416666666667e-01 1.77394606687687e+00 1.57568939682906e-02
3.85805555555556e-01 1.76259417713532e+00 1.57047597241239e-02
3.88194444444444e-01 1.75131493074961e+00 1.56524978926157e-02
3.90583333333333e-01 1.74010786285820e+00 1.56001145686720e-02
3.92972222222222e-01 1.72897251157435e+00 1.55476157299677e-02
3.95361111111111e-01 1.71790841796703e+00 1.54950072392611e-02
3.97750000000000e-01 1.70691512604201e+00 1.54422948383903e-02
4.00138888888889e-01 1.69599218274850e+00 1.53894841752972e-02
4.02527777777778e-01 1.68513913788375e+00 1.53365807895531e-02
4.04916666666667e-01 1.67435554415168e+00 1.52835900976272e-02
4.07305555555556e-01 1.66364095711855e+00 1.52305174202405e-02
4.09694444444444e-01 1.65299493519465e+00 1.51773679758812e-02
4.12083333333333e-01 1.64241703961610e+00 1.51241468827360e-02
4.14472222222222e-01 1.63190683442677e+00 1.50708591605958e-02
4.16861111111111e-01 1.62146388646033e+00 1.50175097327305e-02
4.19250000000000e-01 1.61108776532236e+00 1.49641034201231e-02
4.21638888888889e-01 1.60077804339540e+00 1.49106449660814e-02
4.24027777777778e-01 1.59053429575265e+00 1.48571390227064e-02
4.26416666666667e-01 1.58035610020952e+00 1.48035901371251e-02
4.28805555555556e-01 1.57024303728307e+00 1.47500027764250e-02
4.31194444444444e-01 1.56019469017475e+00 1.46963813214879e-02
4.33583333333333e-01 1.55021064475314e+00 1.46427300685675e-02
4.35972222222222e-01 1.54029048953699e+00 1.45890532308449e-02
4.38361111111111e-01 1.53043381567822e+00 1.45353549399646e-02
4.40750000000000e-01 1.52064021694503e+00 1.44816392405468e-02
4.43138888888889e-01 1.51090928972564e+00 1.44279101126609e-02
4.45527777777778e-01 1.50124063294999e+00 1.43741714591998e-02
4.47916666666667e-01 1.49163384813522e+00 1.43204270930398e-02
4.50305555555556e-01 1.48208853934844e+00 1.42666807598307e-02
4.52694444444444e-01 1.47260431319042e+00 1.42129361321613e-02
4.55083333333333e-01 1.46318077877938e+00 1.41591968108588e-02
4.57472222222222e-01 1.45381754773490e+00 1.41054663262764e-02
4.59861111111111e-01 1.44451423416187e+00 1.40517481395613e-02
4.62250000000000e-01 1.43527045463465e+00 1.39980456374552e-02
4.64638888888889e-01 1.42608582819957e+00 1.39443621528720e-02
4.67027777777778e-01 1.41695997630385e+00 1.38907009531290e-02
4.69416666666667e-01 1.40789252283569e+00 1.38370652279836e-02
4.71805555555556e-01 1.39888309409015e+00 1.37834581105092e-02
4.74194444444444e-01 1.38993131875369e+00 1.37298826716007e-02
4.76583333333333e-01 1.38103682788890e+00 1.36763419210549e-02
4.78972222222222e-01 1.37219925491929e+00 1.36228388086391e-02
4.81361111111111e-01 1.36341823561416e+00 1.35693762251494e-02
4.83750000000000e-01 1.35469340807362e+00 1.35159569975037e-02
4.86138888888889e-01 1.34602441273026e+00 1.34625839076204e-02
4.88527777777778e-01 1.33741089228424e+00 1.34092596814599e-02
4.90916666666667e-01 1.32885249173897e+00 1.33559869778853e-02
4.93305555555556e-01 1.32034885836953e+00 1.33027684078219e-02
4.95694444444444e-01 1.31189964170818e+00 1.32496065290952e-02
4.98083333333333e-01 1.30350449352989e+00 1.31965038473362e-02
5.00472222222222e-01 1.29516306783802e+00 1.31434628168758e-02
5.02861111111111e-01 1.28687502085003e+00 1.30904858416330e-02
5.05250000000000e-01 1.27864001098332e+00 1.30375752704994e-02
5.07638888888889e-01 1.27045769885617e+00 1.29847334146900e-02
5.10027777777778e-01 1.26232774722849e+00 1.29319625375398e-02
5.12416666666667e-01 1.25424982103340e+00 1.28792648441349e-02
5.14805555555556e-01 1.24622358734821e+00 1.28266424989348e-02
5.17194444444444e-01 1.23824871538067e+00 1.27740976209264e-02
5.19583333333333e-01 1.23032487645533e+00 1.27216322843864e-02
5.21972222222222e-01 1.22245174400003e+00 1.26692485196372e-02
5.24361111111111e-01 1.21462899353241e+00 1.26169483137980e-02
5.26750000000000e-01 1.20685630264657e+00 1.25647336064479e-02
5.29138888888889e-01 1.19913335101329e+00 1.25126063055991e-02
5.31527777777778e-01 1.19145982032596e+00 1.24605682782013e-02
5.33916666666667e-01 1.18383539432860e+00 1.24086213404901e-02
5.36305555555555e-01 1.17625975878900e+00 1.23567672742174e-02
5.38694444444444e-01 1.16873260148581e+00 1.23050078221115e-02
5.41083333333333e-01 1.16125361219564e+00 1.22533446885215e-02
5.43472222222222e-01 1.15382248268032e+00 1.22017795400606e-02
5.45861111111111e-01 1.14643890667413e+00 1.21503140062420e-02
5.48250000000000e-01 1.13910257987125e+00 1.20989496754133e-02
5.50638888888889e-01 1.13181319992547e+00 1.20476881094805e-02
5.53027777777778e-01 1.12457046640062e+00 1.19965308350708e-02
5.55416666666667e-01 1.11737408079554e+00 1.19454793345516e-02
5.57805555555556e-01 1.11022374651924e+00 1.18945350609955e-02
5.60194444444444e-01 1.10311916887868e+00 1.18436994339311e-02
5.62583333333333e-01 1.09606005506661e+00 1.17929738398936e-02
5.64972222222222e-01 1.08904611414956e+00 1.17423596329719e-02
5.67361111111111e-01 1.08207705705577e+00 1.16918581353536e-02
5.69750000000000e-01 1.07515259656336e+00 1.16414706335136e-02
5.72138888888889e-01 1.06827244729958e+00 1.15911983918037e-02
5.74527777777778e-01 1.06143632569542e+00 1.15410426442275e-02
5.76916666666667e-01 1.05464395000775e+00 1.14910045860838e-02
5.79305555555556e-01 1.04789504029641e+00 1.14410853877822e-02
5.81694444444444e-01 1.04118931841261e+00 1.13912861908688e-02
5.84083333333333e-01 1.03452650798751e+00 1.13416081084963e-02
5.86472222222222e-01 1.02790633442082e+00 1.12920522258928e-02
5.88861111111111e-01 1.02132852486949e+00 1.12426196008294e-02
5.91250000000000e-01 1.01479280823643e+00 1.11933112600527e-02
5.93638888888889e-01 1.00829891516956e+00 1.11441282118396e-02
5.96027777777778e-01 1.00184657801998e+00 1.10950714383409e-02
5.98416666666667e-01 9.95435530861839e-01 1.10461418878057e-02
6.00805555555555e-01 9.89065509470976e-01 1.09973404873474e-02
6.03194444444444e-01 9.82736251314077e-01 1.09486681392289e-02
6.05583333333333e-01 9.76447495537828e-01 1.09001257212668e-02
6.07972222222222e-01 9.70198982958184e-01 1.08517140872344e-02
6.10361111111111e-01 9.63990456049675e-01 1.08034340672634e-02
6.12750000000000e-01 9.57821658934797e-01 1.07552864645053e-02
6.15138888888889e-01 9.51692337382728e-01 1.07072720667426e-02
6.17527777777778e-01 9.45602238770911e-01 1.06593916392625e-02
6.19916666666667e-01 9.39551112102732e-01 1.06116459176191e-02
6.22305555555556e-01 9.33538707987764e-01 1.05640356194410e-02
6.24694444444444e-01 9.27564778631483e-01 1.05165614409593e-02
6.27083333333333e-01 9.21629077825056e-01 1.04692240573555e-02
6.29472222222222e-01 9.15731360935201e-01 1.04220241231101e-02
6.31861111111111e-01 9.09871384894102e-01 1.03749622723505e-02
6.34250000000000e-01 9.04048908189387e-01 1.03280391157269e-02
6.36638888888889e-01 8.98263690862627e-01 1.02812552511597e-02
6.39027777777778e-01 8.92515494473965e-01 1.02346112572061e-02
6.41416666666667e-01 8.86804082117905e-01 1.01881076863177e-02
6.43805555555556e-01 8.81129218404963e-01 1.01417450757740e-02
6.46194444444444e-01 8.75490669451966e-01 1.00955239444396e-02
6.48583333333333e-01 8.69888202872410e-01 1.00494447930639e-02
6.50972222222222e-01 8.64321587766887e-01 1.00035081045814e-02
6.53361111111111e-01 8.58790594713570e-01 9.95771434441330e-03
6.55750000000000e-01 8.53294995758755e-01 9.91206395754813e-03
6.58138888888889e-01 8.47834564415177e-01 9.86655737849656e-03
6.60527777777778e-01 8.42409075629417e-01 9.82119502511240e-03
6.62916666666667e-01 8.37018305796012e-01 9.77597729231587e-03
6.65305555555555e-01 8.31662032740401e-01 9.73090456222229e-03
6.67694444444444e-01 8.26340035709769e-01 9.68597720111184e-03
6.70083333333333e-01 8.21052095363943e-01 9.64119555969087e-03
6.72472222222222e-01 8.15797993766364e-01 9.59655997335127e-03
6.74861111111111e-01 8.10577514375099e-01 9.55207076243187e-03
6.77250000000000e-01 8.05390442033916e-01 9.50772822948994e-03
6.79638888888889e-01 8.00236562970466e-01 9.46353266852944e-03
6.82027777777778e-01 7.95115664766216e-01 9.41948435924459e-03
6.84416666666667e-01 7.90027536369061e-01 9.37558356117370e-03
6.86805555555556e-01 7.84971968077468e-01 9.33183052309063e-03
6.89194444444444e-01 7.79948751531833e-01 9.28822548017171e-03
6.91583333333333e-01 7.74957679705887e-01 9.24476865422375e-03
6.93972222222222e-01 7.69998546898175e-01 9.20146025391136e-03
6.96361111111111e-01 7.65071148723573e-01 9.15830047498219e-03
6.98750000000000e-01 7.60175282104863e-01 9.11528949771681e-03
7.01138888888889e-01 7.55310745270814e-01 9.07242749548838e-03
7.03527777777778e-01 7.50477337728418e-01 9.02971462940007e-03
7.05916666666667e-01 7.45674860274179e-01 8.98715104283826e-03
7.08305555555556e-01 7.40903114979347e-01 8.94473687018369e-03
7.10694444444444e-01 7.36161905181764e-01 8.90247223416838e-03
7.13083333333333e-01 7.31451035477756e-01 8.86035724607090e-03
7.15472222222222e-01 7.26770311714084e-01 8.81839200591403e-03
7.17861111111111e-01 7.22119540979941e-01 8.77657660266333e-03
7.20250000000000e-01 7.17498531599000e-01 8.73491111184168e-03
7.22638888888889e-01 7.12907093127420e-01 8.69339560347478e-03
7.25027777777778e-01 7.08345036328191e-01 8.65203013709337e-03
7.27416666666667e-01 7.03812173181231e-01 8.61081475665746e-03
7.29805555555555e-01 6.99308316869644e-01 8.56974949864204e-03
7.32194444444444e-01 6.94833281772017e-01 8.52883438956730e-03
7.34583333333333e-01 6.90386883454769e-01 8.48806944617039e-03
7.36972222222222e-01 6.85968938664554e-01 8.44745467557809e-03
7.39361111111111e-01 6.81579265320705e-01 8.40699007547820e-03
7.41750000000000e-01 6.77217682507733e-01 8.36667563188920e-03
7.44138888888889e-01 6.72884010473280e-01 8.32651132654118e-03
7.46527777777778e-01 6.68578070604392e-01 8.28649713221693e-03
7.48916666666667e-01 6.64299685436562e-01 8.24663300801921e-03
7.51305555555556e-01 6.60048678640917e-01 8.20691890688179e-03
7.53694444444444e-01 6.55824875016956e-01 8.16735477326092e-03
