Energy (eV)          EEDF (eV^-(3/2))     First Anisotropy
2.09803921568627e-02 7.28647263899651e-02 3.82440194518681e-05
6.29411764705882e-02 7.23731499820224e-02 6.31510233450156e-05
1.04901960784314e-01 7.18848899572119e-02 8.33645922453635e-05
1.46862745098039e-01 7.13999239415384e-02 9.87198369745481e-05
1.88823529411765e-01 7.09182297135869e-02 1.11525343161370e-04
2.30784313725490e-01 7.04397851978166e-02 1.22653787435952e-04
2.72745098039216e-01 6.99645684729588e-02 1.32556697280732e-04
3.14705882352941e-01 6.94925577626023e-02 1.41506687835622e-04
3.56666666666667e-01 6.90237314360439e-02 1.49684529433001e-04
3.98627450980392e-01 6.85580680116264e-02 1.57217963850370e-04
4.40588235294118e-01 6.80955461509293e-02 1.64201535420022e-04
4.82549019607843e-01 6.76361446595310e-02 1.70707732403415e-04
5.24509803921569e-01 6.71798424851739e-02 1.76793703804687e-04
5.66470588235294e-01 6.67266187194786e-02 1.82505536153230e-04
6.08431372549020e-01 6.62764525941272e-02 1.87881098047937e-04
6.50392156862745e-01 6.58293234802553e-02 1.92952000237022e-04
6.92352941176471e-01 6.53852108896250e-02 1.97744988251450e-04
7.34313725490196e-01 6.49440944714419e-02 2.02282956862738e-04
7.76274509803922e-01 6.45059540116616e-02 2.06585704748806e-04
8.18235294117647e-01 6.40707694338022e-02 2.10670507651381e-04
8.60196078431373e-01 6.36385207961956e-02 2.14552560582774e-04
9.02156862745098e-01 6.32091882912422e-02 2.18245323520796e-04
9.44117647058824e-01 6.27827522459735e-02 2.21760796178257e-04
9.86078431372549e-01 6.23591931196194e-02 2.25109738380769e-04
1.02803921568627e+00 6.19384915044528e-02 2.28301849532653e-04
1.07000000000000e+00 6.15206281188626e-02 2.31345913703070e-04
1.11196078431373e+00 6.11055838189150e-02 2.34249922021156e-04
1.15392156862745e+00 6.06933395820869e-02 2.37021173188412e-04
1.19588235294118e+00 6.02838765216405e-02 2.39666358163811e-04
1.23784313725490e+00 5.98771758710693e-02 2.42191631894162e-04
1.27980392156863e+00 5.94732189973931e-02 2.44602673671168e-04
1.32176470588235e+00 5.90719873897555e-02 2.46904741253586e-04
1.36372549019608e+00 5.86734626593430e-02 2.49102712830824e-04
1.40568627450980e+00 5.82776265473607e-02 2.51201127719974e-04
1.44764705882353e+00 5.78844609124169e-02 2.53204219671495e-04
1.48960784313726e+00 5.74939477411095e-02 2.55115946223774e-04
1.53156862745098e+00 5.71060691361277e-02 2.56940014587006e-04
1.57352941176471e+00 5.67208073261719e-02 2.58679903872358e-04
1.61549019607843e+00 5.63381446571193e-02 2.60338886845966e-04
1.65745098039216e+00 5.59580635917153e-02 2.61920045233771e-04
1.69941176470588e+00 5.55805467156689e-02 2.63426287170139e-04
1.74137254901961e+00 5.52055767276459e-02 2.64860360959628e-04
1.78333333333333e+00 5.48331364474407e-02 2.66224867650808e-04
1.82529411764706e+00 5.44632088064595e-02 2.67522272445271e-04
1.86725490196078e+00 5.40957768554412e-02 2.68754914494219e-04
1.90921568627451e+00 5.37308237573225e-02 2.69925017585702e-04
1.95117647058824e+00 5.33683327868179e-02 2.71034696314497e-04
1.99313725490196e+00 5.30082873352292e-02 2.72085965062420e-04
2.03509803921569e+00 5.26506709022435e-02 2.73080744553957e-04
2.07705882352941e+00 5.22954671024437e-02 2.74020868060785e-04
2.11901960784314e+00 5.19426596574600e-02 2.74908087167069e-04
2.16098039215686e+00 5.15922324021581e-02 2.75744076629893e-04
2.20294117647059e+00 5.12441692787092e-02 2.76530440466105e-04
2.24490196078431e+00 5.08984543361139e-02 2.77268714429763e-04
2.28686274509804e+00 5.05550717340855e-02 2.77960371310548e-04
2.32882352941176e+00 5.02140057361678e-02 2.78606824375362e-04
2.37078431372549e+00 4.98752407150391e-02 2.79209430756742e-04
2.41274509803922e+00 4.95387611458985e-02 2.79769494671822e-04
2.45470588235294e+00 4.92045516115287e-02 2.80288270036416e-04
2.49666666666667e+00 4.88725967972677e-02 2.80766964348182e-04
2.53862745098039e+00 4.85428814905018e-02 2.81206739501234e-04
2.58058823529412e+00 4.82153905838577e-02 2.81608715258271e-04
2.62254901960784e+00 4.78901090693247e-02 2.81973971184991e-04
2.66450980392157e+00 4.75670220426502e-02 2.82303548646902e-04
2.70647058823529e+00 4.72461146976727e-02 2.82598452748933e-04
2.74843137254902e+00 4.69273723305309e-02 2.82859653820619e-04
2.79039215686275e+00 4.66107803353317e-02 2.83088090120604e-04
2.83235294117647e+00 4.62963242036312e-02 2.83284667849518e-04
2.87431372549020e+00 4.59839895270929e-02 2.83450263617950e-04
2.91627450980392e+00 4.56737619923993e-02 2.83585725586574e-04
2.95823529411765e+00 4.53656273849422e-02 2.83691874714573e-04
3.00019607843137e+00 4.50595715839042e-02 2.83769506000882e-04
3.04215686274510e+00 4.47555805658017e-02 2.83819389358080e-04
3.08411764705882e+00 4.44536404007062e-02 2.83842271627598e-04
3.12607843137255e+00 4.41537372517245e-02 2.83838876192339e-04
3.16803921568627e+00 4.38558573772351e-02 2.83809904844124e-04
3.21000000000000e+00 4.35599871264355e-02 2.83756038476903e-04
3.25196078431373e+00 4.32661129424726e-02 2.83677937904863e-04
3.29392156862745e+00 4.29742213581294e-02 2.83576244696594e-04
3.33588235294118e+00 4.26842989988377e-02 2.83451581905474e-04
3.37784313725490e+00 4.23963325784968e-02 2.83304554820667e-04
3.41980392156863e+00 4.21103089023717e-02 2.83135751417537e-04
3.46176470588235e+00 4.18262148638648e-02 2.82945743848114e-04
3.50372549019608e+00 4.15440374440071e-02 2.82735087814084e-04
3.54568627450980e+00 4.12637637132793e-02 2.82504323968040e-04
3.58764705882353e+00 4.09853808277979e-02 2.82253978285820e-04
3.62960784313726e+00 4.07088760318965e-02 2.81984562568727e-04
3.67156862745098e+00 4.04342366544217e-02 2.81696574974525e-04
3.71352941176471e+00 4.01614501112219e-02 2.81390500285319e-04
3.75549019607843e+00 3.98905039022734e-02 2.81066811134668e-04
3.79745098039216e+00 3.96213856111844e-02 2.80725967307960e-04
3.83941176470588e+00 3.93540829067514e-02 2.80368416905651e-04
3.88137254901961e+00 3.90885835395625e-02 2.79994596572675e-04
3.92333333333333e+00 3.88248753442238e-02 2.79604931854234e-04
3.96529411764706e+00 3.85629462360569e-02 2.79199837583675e-04
4.00725490196078e+00 3.83027842132485e-02 2.78779718036108e-04
4.04921568627451e+00 3.80443773542757e-02 2.78344967966531e-04
4.09117647058823e+00 3.77877138174256e-02 2.77895971886334e-04
4.13313725490196e+00 3.75327818421320e-02 2.77433105053632e-04
4.17509803921569e+00 3.72795697459311e-02 2.76956733611001e-04
4.21705882352941e+00 3.70280659263951e-02 2.76467214844006e-04
4.25901960784314e+00 3.67782588581680e-02 2.75964897472420e-04
4.30098039215686e+00 3.65301370948340e-02 2.75450121730549e-04
4.34294117647059e+00 3.62836892665982e-02 2.74923220263999e-04
4.38490196078431e+00 3.60389040798214e-02 2.74384517409364e-04
4.42686274509804e+00 3.57957703181740e-02 2.73834330053721e-04
4.46882352941176e+00 3.55542768398945e-02 2.73272967712303e-04
4.51078431372549e+00 3.53144125794747e-02 2.72700732720338e-04
4.55274509803922e+00 3.50761665449880e-02 2.72117920457031e-04
4.59470588235294e+00 3.48395278197200e-02 2.71524819377951e-04
4.63666666666667e+00 3.46044855600697e-02 2.70921711802194e-04
4.67862745098039e+00 3.43710289950999e-02 2.70308873210461e-04
4.72058823529412e+00 3.41391474275372e-02 2.69686573001974e-04
4.76254901960784e+00 3.39088302312921e-02 2.69055074532237e-04
4.80450980392157e+00 3.36800668529340e-02 2.68414635257947e-04
4.84647058823529e+00 3.34528468092726e-02 2.67765506912849e-04
4.88843137254902e+00 3.32271596887863e-02 2.67107935508478e-04
4.93039215686275e+00 3.30029951497154e-02 2.66442162033632e-04
4.97235294117647e+00 3.27803429196288e-02 2.65768421779244e-04
5.01431372549020e+00 3.25591927962930e-02 2.65086945012589e-04
5.05627450980392e+00 3.23395346454199e-02 2.64397956988087e-04
5.09823529411765e+00 3.21213584019628e-02 2.63701678058497e-04
5.14019607843137e+00 3.19046540679183e-02 2.62998323815554e-04
5.18215686274510e+00 3.16894117135825e-02 2.62288105069737e-04
5.22411764705882e+00 3.14756214758116e-02 2.61571228477803e-04
5.26607843137255e+00 3.12632735576055e-02 2.60847895898688e-04
5.30803921568628e+00 3.10523582288643e-02 2.60118304999393e-04
5.35000000000000e+00 3.08428658243366e-02 2.59382649247592e-04
5.39196078431373e+00 3.06347867447616e-02 2.58641117998126e-04
5.43392156862745e+00 3.04281114548646e-02 2.57893896607151e-04
5.47588235294118e+00 3.02228304844644e-02 2.57141166512834e-04
5.51784313725490e+00 3.00189344265149e-02 2.56383105343350e-04
5.55980392156863e+00 2.98164139381788e-02 2.55619886879418e-04
5.60176470588235e+00 2.96152597392730e-02 2.54851681607469e-04
5.64372549019608e+00 2.94154626118723e-02 2.54078656115837e-04
5.68568627450980e+00 2.92170134009486e-02 2.53300973629906e-04
5.72764705882353e+00 2.90199030125373e-02 2.52518793989170e-04
5.76960784313725e+00 2.88241224147170e-02 2.51732273710845e-04
5.81156862745098e+00 2.86296626358167e-02 2.50941566079145e-04
5.85352941176471e+00 2.84365147653661e-02 2.50146821100156e-04
5.89549019607843e+00 2.82446699526680e-02 2.49348186005563e-04
5.93745098039216e+00 2.80541194064185e-02 2.48545804682086e-04
5.97941176470588e+00 2.78648543952658e-02 2.47739818159407e-04
6.02137254901961e+00 2.76768662461294e-02 2.46930364579941e-04
6.06333333333333e+00 2.74901463450674e-02 2.46117579249474e-04
6.10529411764706e+00 2.73046861356323e-02 2.45301594711821e-04
6.14725490196078e+00 2.71204771197134e-02 2.44482540699061e-04
6.18921568627451e+00 2.69375108562228e-02 2.43660544592317e-04
6.23117647058824e+00 2.67557789607315e-02 2.42835730883704e-04
6.27313725490196e+00 2.65752731059591e-02 2.42008221623243e-04
6.31509803921569e+00 2.63959850202278e-02 2.41178136383845e-04
6.35705882352941e+00 2.62179064882338e-02 2.40345592301958e-04
6.39901960784314e+00 2.60410293495344e-02 2.39510704140669e-04
6.44098039215686e+00 2.58653454992967e-02 2.38673584237354e-04
6.48294117647059e+00 2.56908468870853e-02 2.37834342926872e-04
6.52490196078431e+00 2.55175255165143e-02 2.36993088034780e-04
6.56686274509804e+00 2.53453734456757e-02 2.36149925288130e-04
6.60882352941177e+00 2.51743827857163e-02 2.35304958277570e-04
6.65078431372549e+00 2.50045457015229e-02 2.34458288490217e-04
6.69274509803922e+00 2.48358544103290e-02 2.33610015363438e-04
6.73470588235294e+00 2.46683011823802e-02 2.32760236231344e-04
6.77666666666667e+00 2.45018783398145e-02 2.31909046714761e-04
6.81862745098039e+00 2.43365782563286e-02 2.31056540244338e-04
6.86058823529412e+00 2.41723933575538e-02 2.30202808439245e-04
6.90254901960784e+00 2.40093161197425e-02 2.29347941067696e-04
6.94450980392157e+00 2.38473390703789e-02 2.28492026073656e-04
6.98647058823529e+00 2.36864547868920e-02 2.27635149623121e-04
7.02843137254902e+00 2.35266558972492e-02 2.26777396050485e-04
7.07039215686275e+00 2.33679350789189e-02 2.25918848218824e-04
7.11235294117647e+00 2.32102850585517e-02 2.25059587071376e-04
7.15431372549020e+00 2.30536986123100e-02 2.24199691981538e-04
7.19627450980392e+00 2.28981685646536e-02 2.23339240712741e-04
7.23823529411765e+00 2.27436877888842e-02 2.22478309440298e-04
7.28019607843137e+00 2.25902492059553e-02 2.21616972791500e-04
7.32215686274510e+00 2.24378457850019e-02 2.20755303792525e-04
7.36411764705882e+00 2.22864705423785e-02 2.19893374202121e-04
7.40607843137255e+00 2.21361165413536e-02 2.19031254089847e-04
7.44803921568627e+00 2.19867768923992e-02 2.18169012160285e-04
7.49000000000000e+00 2.18384447520664e-02 2.17306715712974e-04
7.53196078431373e+00 2.16911133234711e-02 2.16444430660262e-04
7.57392156862745e+00 2.15447758551923e-02 2.15582221562290e-04
7.61588235294118e+00 2.13994256417442e-02 2.14720151643868e-04
7.65784313725490e+00 2.12550560224960e-02 2.13858282828223e-04
7.69980392156863e+00 2.11116603821311e-02 2.12996675685157e-04
7.74176470588235e+00 2.09692321497716e-02 2.12135389734788e-04
7.78372549019608e+00 2.08277647986896e-02 2.11274483057130e-04
7.82568627450980e+00 2.06872518465526e-02 2.10414012587352e-04
7.86764705882353e+00 2.05476868544013e-02 2.09554034076215e-04
7.90960784313726e+00 2.04090634270720e-02 2.08694602103924e-04
7.95156862745098e+00 2.02713752121935e-02 2.07835770109778e-04
7.99352941176471e+00 2.01346159005986e-02 2.06977590341893e-04
8.03549019607843e+00 1.99987792255085e-02 2.06120114139591e-04
8.07745098039216e+00 1.98638589622577e-02 2.05263391566369e-04
8.11941176470588e+00 1.97298489285090e-02 2.04407471684511e-04
8.16137254901961e+00 1.95967429833032e-02 2.03552402516401e-04
8.20333333333333e+00 1.94645350274376e-02 2.02698231055954e-04
8.24529411764706e+00 1.93332190025341e-02 2.01845003294795e-04
8.28725490196078e+00 1.92027888914066e-02 2.00992764173743e-04
8.32921568627451e+00 1.90732387173021e-02 2.00141557845692e-04
8.37117647058824e+00 1.89445625436374e-02 1.99291427330528e-04
8.41313725490196e+00 1.88167544741872e-02 1.98442414770942e-04
8.45509803921569e+00 1.86898086522007e-02 1.97594561394809e-04
8.49705882352941e+00 1.85637192607397e-02 1.96747907524620e-04
8.53901960784314e+00 1.84384805218124e-02 1.95902492600692e-04
8.58098039215686e+00 1.83140866967017e-02 1.95058355134538e-04
8.62294117647059e+00 1.81905320852583e-02 1.94215532953925e-04
8.66490196078431e+00 1.80678110256480e-02 1.93374062878346e-04
8.70686274509804e+00 1.79459178945169e-02 1.92533980957614e-04
8.74882352941176e+00 1.78248471061686e-02 1.91695322435463e-04
8.79078431372549e+00 1.77045931128673e-02 1.90858121757338e-04
8.83274509803922e+00 1.75851504040304e-02 1.90022412591080e-04
8.87470588235294e+00 1.74665135065232e-02 1.89188227782131e-04
8.91666666666667e+00 1.73486769839983e-02 1.88355599582343e-04
8.95862745098039e+00 1.72316354366551e-02 1.87524559344735e-04
9.00058823529412e+00 1.71153835013831e-02 1.86695137746163e-04
9.04254901960784e+00 1.69999158509955e-02 1.85867364752340e-04
9.08450980392157e+00 1.68852271945004e-02 1.85041269624201e-04
9.12647058823529e+00 1.67713122763486e-02 1.84216880936380e-04
9.16843137254902e+00 1.66581658766969e-02 1.83394226534403e-04
9.21039215686275e+00 1.65457828107914e-02 1.82573333748434e-04
9.25235294117647e+00 1.64341579287374e-02 1.81754229106110e-04
9.29431372549020e+00 1.63232861156245e-02 1.80936938540652e-04
9.33627450980392e+00 1.62131622908112e-02 1.80121487357216e-04
9.37823529411765e+00 1.61037814081680e-02 1.79307900238146e-04
9.42019607843137e+00 1.59951384553754e-02 1.78496201259556e-04
9.46215686274510e+00 1.58872284541602e-02 1.77686413850408e-04
9.50411764705882e+00 1.57800464597181e-02 1.76878560992442e-04
9.54607843137255e+00 1.56735875604945e-02 1.76072664949927e-04
9.58803921568627e+00 1.55678468782925e-02 1.75268747464292e-04
9.63000000000000e+00 1.54628195676055e-02 1.74466829721933e-04
9.67196078431373e+00 1.53585008158348e-02 1.73666932358491e-04
9.71392156862745e+00 1.52548858426335e-02 1.72869075473739e-04
9.75588235294118e+00 1.51519699001189e-02 1.72073278635670e-04
9.79784313725490e+00 1.50497482722278e-02 1.71279560894954e-04
9.83980392156863e+00 1.49482162749229e-02 1.70487940746328e-04
9.88176470588235e+00 1.48473692556621e-02 1.69698436312577e-04
9.92372549019608e+00 1.47472025931911e-02 1.68911065094121e-04
9.96568627450980e+00 1.46477116976345e-02 1.68125844148098e-04
1.00076470588235e+01 1.45488920098822e-02 1.67342790262710e-04
1.00496078431373e+01 1.44507390012925e-02 1.66561918978049e-04
1.00915686274510e+01 1.43532481754250e-02 1.65783246192320e-04
1.01335294117647e+01 1.42564150639457e-02 1.65006787645225e-04
1.01754901960784e+01 1.41602352296370e-02 1.64232557678400e-04
1.02174509803922e+01 1.40647042652161e-02 1.63460570613830e-04
1.02594117647059e+01 1.39698177931340e-02 1.62690840344350e-04
1.03013725490196e+01 1.38755714653745e-02 1.61923379957463e-04
1.03433333333333e+01 1.37819609641556e-02 1.61158202900848e-04
1.03852941176471e+01 1.36889819990149e-02 1.60395322214998e-04
1.04272549019608e+01 1.35966303093447e-02 1.59634749756124e-04
1.04692156862745e+01 1.35049016632807e-02 1.58876497383010e-04
1.05111764705882e+01 1.34137918575085e-02 1.58120576568146e-04
1.05531372549020e+01 1.33232967170714e-02 1.57366998040326e-04
1.05950980392157e+01 1.32334120960224e-02 1.56615772890080e-04
1.06370588235294e+01 1.31441338746891e-02 1.55866911841457e-04
1.06790196078431e+01 1.30554579620442e-02 1.55120424514607e-04
1.07209803921569e+01 1.29673802946600e-02 1.54376320551398e-04
1.07629411764706e+01 1.28798968365218e-02 1.53634609246084e-04
1.08049019607843e+01 1.27930035788442e-02 1.52895299551375e-04
1.08468627450980e+01 1.27066965398868e-02 1.52158399742095e-04
1.08888235294118e+01 1.26209717655549e-02 1.51423918454666e-04
1.09307843137255e+01 1.25358253268556e-02 1.50691864001574e-04
1.09727450980392e+01 1.24512533220935e-02 1.49962243677097e-04
1.10147058823529e+01 1.23672518758952e-02 1.49235064815899e-04
1.10566666666667e+01 1.22838171390324e-02 1.48510334445464e-04
1.10986274509804e+01 1.22009452882458e-02 1.47788058966412e-04
1.11405882352941e+01 1.21186325268038e-02 1.47068245139005e-04
1.11825490196078e+01 1.20368750821128e-02 1.46350899432242e-04
1.12245098039216e+01 1.19556692077721e-02 1.45636027364720e-04
1.12664705882353e+01 1.18750111826562e-02 1.44923634509184e-04
1.13084313725490e+01 1.17948973107431e-02 1.44213726162302e-04
1.13503921568627e+01 1.17153239209465e-02 1.43506307040752e-04
1.13923529411765e+01 1.16362873676364e-02 1.42801382217682e-04
1.14343137254902e+01 1.15577840283916e-02 1.42098956504599e-04
1.14762745098039e+01 1.14798103059256e-02 1.41399033825366e-04
1.15182352941176e+01 1.14023626272209e-02 1.40701618169676e-04
1.15601960784314e+01 1.13254374433642e-02 1.40006713279379e-04
1.16021568627451e+01 1.12490312293855e-02 1.39314322652850e-04
1.16441176470588e+01 1.11731404840956e-02 1.38624449258721e-04
1.16860784313725e+01 1.10977617305673e-02 1.37937096417397e-04
1.17280392156863e+01 1.10228915140409e-02 1.37252267218668e-04
1.17700000000000e+01 1.09485264037118e-02 1.36569963931832e-04
1.18119607843137e+01 1.08746629919208e-02 1.35890188903411e-04
1.18539215686275e+01 1.08012978939980e-02 1.35212944261549e-04
1.18958823529412e+01 1.07284277481082e-02 1.34538231643799e-04
1.19378431372549e+01 1.06560492156998e-02 1.33866053034389e-04
1.19798039215686e+01 1.05841589795324e-02 1.33196410210830e-04
1.20217647058824e+01 1.05127537453540e-02 1.32529304183494e-04
1.20637254901961e+01 1.04418302411371e-02 1.31864736048203e-04
1.21056862745098e+01 1.03713852169280e-02 1.31202706705204e-04
1.21476470588235e+01 1.03014154446991e-02 1.30543216862816e-04
1.21896078431373e+01 1.02319177182004e-02 1.29886266780747e-04
1.22315686274510e+01 1.01628888533741e-02 1.29231857058829e-04
1.22735294117647e+01 1.00943256865151e-02 1.28579988115322e-04
1.23154901960784e+01 1.00262250758289e-02 1.27930659658555e-04
1.23574509803922e+01 9.95858390071627e-03 1.27283871490057e-04
1.23994117647059e+01 9.89139906163133e-03 1.26639623239726e-04
1.24413725490196e+01 9.82466747993898e-03 1.25997914121783e-04
1.24833333333333e+01 9.75838609830200e-03 1.25358743684168e-04
1.25252941176471e+01 9.69255187894816e-03 1.24722111312639e-04
1.25672549019608e+01 9.62716180513234e-03 1.24088015728574e-04
1.26092156862745e+01 9.56221288046148e-03 1.23456455752116e-04
1.26511764705882e+01 9.49770212875736e-03 1.22827430050277e-04
1.26931372549020e+01 9.43362659392053e-03 1.22200936904714e-04
1.27350980392157e+01 9.36998334029152e-03 1.21576974924022e-04
1.27770588235294e+01 9.30676945101767e-03 1.20955542572268e-04
1.28190196078431e+01 9.24398202942614e-03 1.20336637691494e-04
1.28609803921569e+01 9.18161819838626e-03 1.19720258227080e-04
1.29029411764706e+01 9.11967510017730e-03 1.19106401988083e-04
1.29449019607843e+01 9.05814989635830e-03 1.18495066649914e-04
1.29868627450980e+01 8.99703976763759e-03 1.17886249535337e-04
1.30288235294118e+01 8.93634191420701e-03 1.17279948285890e-04
1.30707843137255e+01 8.87605355421603e-03 1.16676160417151e-04
1.31127450980392e+01 8.81617192504931e-03 1.16074882868269e-04
1.31547058823529e+01 8.75669428272910e-03 1.15476112685756e-04
1.31966666666667e+01 8.69761790178973e-03 1.14879846797525e-04
1.32386274509804e+01 8.63894007515278e-03 1.14286081804430e-04
