Energy (eV)          EEDF (eV^-(3/2))     First Anisotropy
3.32653061224490e-04 3.88587424481173e+01 1.77771052279930e-02
9.97959183673469e-04 3.85854037565613e+01 2.93504799763147e-02
1.66326530612245e-03 3.83139877740867e+01 3.87338454923139e-02
2.32857142857143e-03 3.80444809747320e+01 4.58550937400581e-02
2.99387755102041e-03 3.77768699302076e+01 5.17882092790469e-02
3.65918367346939e-03 3.75111413052684e+01 5.69393440377858e-02
4.32448979591837e-03 3.72472818586259e+01 6.15187272533699e-02
4.98979591836735e-03 3.69852784417605e+01 6.56533366915402e-02
5.65510204081633e-03 3.67251179995026e+01 6.94274035606587e-02
6.32040816326531e-03 3.64667875680306e+01 7.29004728694479e-02
6.98571428571429e-03 3.62102742747351e+01 7.61166318154345e-02
7.65102040816326e-03 3.59555653373147e+01 7.91096953924549e-02
8.31632653061224e-03 3.57026480639048e+01 8.19063331336495e-02
8.98163265306122e-03 3.54515098516342e+01 8.45280601753817e-02
9.64693877551020e-03 3.52021381862894e+01 8.69925616457752e-02
1.03122448979592e-02 3.49545206415102e+01 8.93146057346441e-02
1.09775510204082e-02 3.47086448780151e+01 9.15066921078618e-02
1.16428571428571e-02 3.44644986449014e+01 9.35795245388472e-02
1.23081632653061e-02 3.42220697763142e+01 9.55423627618685e-02
1.29734693877551e-02 3.39813461919697e+01 9.74032892962688e-02
1.36387755102041e-02 3.37423158965900e+01 9.91694155943574e-02
1.43040816326531e-02 3.35049669780669e+01 1.00847043119543e-01
1.49693877551020e-02 3.32692876105907e+01 1.02441791522932e-01
1.56346938775510e-02 3.30352660502272e+01 1.03958701568061e-01
1.63000000000000e-02 3.28028906356647e+01 1.05402318361846e-01
1.69653061224490e-02 3.25721497866293e+01 1.06776759566614e-01
1.76306122448980e-02 3.23430320063589e+01 1.08085772055245e-01
1.82959183673469e-02 3.21155258779004e+01 1.09332779138877e-01
1.89612244897959e-02 3.18896200646078e+01 1.10520919950103e-01
1.96265306122449e-02 3.16653033087483e+01 1.11653082749878e-01
2.02918367346939e-02 3.14425644335046e+01 1.12731933508903e-01
2.09571428571429e-02 3.12213923397927e+01 1.13759940377083e-01
2.16224489795918e-02 3.10017760065965e+01 1.14739394432527e-01
2.22877551020408e-02 3.07837044904309e+01 1.15672427928080e-01
2.29530612244898e-02 3.05671669241031e+01 1.16561029868894e-01
2.36183673469388e-02 3.03521525182705e+01 1.17407059885175e-01
2.42836734693878e-02 3.01386505587620e+01 1.18212260402651e-01
2.49489795918367e-02 2.99266504067713e+01 1.18978267131853e-01
2.56142857142857e-02 2.97161414977303e+01 1.19706618346539e-01
2.62795918367347e-02 2.95071133426127e+01 1.20398763311363e-01
2.69448979591837e-02 2.92995555255461e+01 1.21056069785972e-01
2.76102040816326e-02 2.90934577039219e+01 1.21679830464894e-01
2.82755102040816e-02 2.88888096078880e+01 1.22271268992656e-01
2.89408163265306e-02 2.86856010393215e+01 1.22831545127692e-01
2.96061224489796e-02 2.84838218728769e+01 1.23361759620294e-01
3.02714285714286e-02 2.82834620538991e+01 1.23862958620969e-01
3.09367346938775e-02 2.80845115984601e+01 1.24336137479597e-01
3.16020408163265e-02 2.78869605924062e+01 1.24782244200585e-01
3.22673469387755e-02 2.76907991922503e+01 1.25202182753364e-01
3.29326530612245e-02 2.74960176232736e+01 1.25596816093280e-01
3.35979591836735e-02 2.73026061795115e+01 1.25966968699457e-01
3.42632653061224e-02 2.71105552232764e+01 1.26313429109967e-01
3.49285714285714e-02 2.69198551842773e+01 1.26636952042717e-01
3.55938775510204e-02 2.67304965603485e+01 1.26938260539349e-01
3.62591836734694e-02 2.65424699157529e+01 1.27218047941673e-01
3.69244897959184e-02 2.63557658811269e+01 1.27476979549210e-01
3.75897959183673e-02 2.61703751526543e+01 1.27715694157315e-01
3.82551020408163e-02 2.59862884926932e+01 1.27934805625109e-01
3.89204081632653e-02 2.58034967282101e+01 1.28134904331050e-01
3.95857142857143e-02 2.56219907506948e+01 1.28316558331982e-01
4.02510204081633e-02 2.54417615157099e+01 1.28480314624558e-01
4.09163265306122e-02 2.52628000421210e+01 1.28626700141840e-01
4.15816326530612e-02 2.50850974126121e+01 1.28756222852193e-01
4.22469387755102e-02 2.49086447722657e+01 1.28869372787239e-01
4.29122448979592e-02 2.47334333284518e+01 1.28966622858567e-01
4.35775510204082e-02 2.45594543500995e+01 1.29048429628468e-01
4.42428571428571e-02 2.43866991681425e+01 1.29115234158546e-01
4.49081632653061e-02 2.42151591741956e+01 1.29167462807897e-01
4.55734693877551e-02 2.40448258204253e+01 1.29205527814758e-01
4.62387755102041e-02 2.38756906191266e+01 1.29229828004923e-01
4.69040816326531e-02 2.37077451420388e+01 1.29240749302636e-01
4.75693877551020e-02 2.35409810207130e+01 1.29238665361549e-01
4.82346938775510e-02 2.33753899452978e+01 1.29223938161755e-01
4.89000000000000e-02 2.32109636643957e+01 1.29196918446725e-01
4.95653061224490e-02 2.30476939844119e+01 1.29157946142313e-01
5.02306122448980e-02 2.28855727698710e+01 1.29107350864642e-01
5.08959183673469e-02 2.27245919422786e+01 1.29045452402920e-01
5.15612244897959e-02 2.25647434799653e+01 1.28972561056493e-01
5.22265306122449e-02 2.24060194174671e+01 1.28888977960399e-01
5.28918367346939e-02 2.22484118457980e+01 1.28794995500701e-01
5.35571428571429e-02 2.20919129113785e+01 1.28690897710838e-01
5.42224489795918e-02 2.19365148158721e+01 1.28576960507760e-01
5.48877551020408e-02 2.17822098157974e+01 1.28453452052497e-01
5.55530612244898e-02 2.16289902219422e+01 1.28320632962716e-01
5.62183673469388e-02 2.14768483995862e+01 1.28178756641559e-01
5.68836734693877e-02 2.13257767675083e+01 1.28028069593011e-01
5.75489795918367e-02 2.11757677978143e+01 1.27868811615935e-01
5.82142857142857e-02 2.10268140153774e+01 1.27701215994854e-01
5.88795918367347e-02 2.08789079980279e+01 1.27525509776937e-01
5.95448979591837e-02 2.07320423756150e+01 1.27341914038558e-01
6.02102040816326e-02 2.05862098298299e+01 1.27150644015061e-01
6.08755102040816e-02 2.04414030938427e+01 1.26951909346379e-01
6.15408163265306e-02 2.02976149517703e+01 1.26745914195718e-01
6.22061224489796e-02 2.01548382388299e+01 1.26532857476209e-01
6.28714285714286e-02 2.00130658404632e+01 1.26312933069959e-01
6.35367346938775e-02 1.98722906921573e+01 1.26086329942781e-01
6.42020408163265e-02 1.97325057789343e+01 1.25853232259502e-01
6.48673469387755e-02 1.95937041354802e+01 1.25613819579466e-01
6.55326530612245e-02 1.94558788453151e+01 1.25368267046082e-01
6.61979591836735e-02 1.93190230406098e+01 1.25116745456981e-01
6.68632653061224e-02 1.91831299018455e+01 1.24859421440397e-01
6.75285714285714e-02 1.90481926573280e+01 1.24596457520593e-01
6.81938775510204e-02 1.89142045832888e+01 1.24328012282116e-01
6.88591836734694e-02 1.87811590031078e+01 1.24054240529618e-01
6.95244897959184e-02 1.86490492871291e+01 1.23775293356353e-01
7.01897959183673e-02 1.85178688521955e+01 1.23491318214982e-01
7.08551020408163e-02 1.83876111617310e+01 1.23202459062041e-01
7.15204081632653e-02 1.82582697250004e+01 1.22908856498861e-01
7.21857142857143e-02 1.81298380969251e+01 1.22610647806981e-01
7.28510204081633e-02 1.80023098777626e+01 1.22307967080397e-01
7.35163265306122e-02 1.78756787126625e+01 1.22000945259448e-01
7.41816326530612e-02 1.77499382917276e+01 1.21689710254815e-01
7.48469387755102e-02 1.76250823493178e+01 1.21374387068925e-01
7.55122448979592e-02 1.75011046638669e+01 1.21055097836357e-01
7.61775510204082e-02 1.73779990574550e+01 1.20731961867325e-01
7.68428571428571e-02 1.72557593958555e+01 1.20405095758458e-01
7.75081632653061e-02 1.71343795878713e+01 1.20074613501480e-01
7.81734693877551e-02 1.70138535851516e+01 1.19740626497779e-01
7.88387755102041e-02 1.68941753818912e+01 1.19403243661030e-01
7.95040816326530e-02 1.67753390144223e+01 1.19062571431934e-01
8.01693877551020e-02 1.66573385612448e+01 1.18718713875021e-01
8.08346938775510e-02 1.65401681424014e+01 1.18371772773873e-01
8.15000000000000e-02 1.64238219192951e+01 1.18021847653947e-01
8.21653061224490e-02 1.63082940942970e+01 1.17669035808795e-01
8.28306122448979e-02 1.61935789107652e+01 1.17313432387603e-01
8.34959183673469e-02 1.60796706524472e+01 1.16955130481510e-01
8.41612244897959e-02 1.59665636432994e+01 1.16594221140748e-01
8.48265306122449e-02 1.58542522471085e+01 1.16230793395214e-01
8.54918367346939e-02 1.57427308675013e+01 1.15864934334064e-01
8.61571428571428e-02 1.56319939473723e+01 1.15496729184299e-01
8.68224489795918e-02 1.55220359687058e+01 1.15126261308601e-01
8.74877551020408e-02 1.54128514523004e+01 1.14753612280003e-01
8.81530612244898e-02 1.53044349574078e+01 1.14378861881114e-01
8.88183673469388e-02 1.51967810817301e+01 1.14002088174998e-01
8.94836734693878e-02 1.50898844608795e+01 1.13623367575398e-01
9.01489795918367e-02 1.49837397682022e+01 1.13242774854650e-01
9.08142857142857e-02 1.48783417144289e+01 1.12860383154986e-01
9.14795918367347e-02 1.47736850476654e+01 1.12476264053594e-01
9.21448979591837e-02 1.46697645528750e+01 1.12090487627151e-01
9.28102040816326e-02 1.45665750517039e+01 1.11703122443413e-01
9.34755102040816e-02 1.44641114022241e+01 1.11314235622717e-01
9.41408163265306e-02 1.43623684985982e+01 1.10923892831292e-01
9.48061224489796e-02 1.42613412710624e+01 1.10532158339852e-01
9.54714285714286e-02 1.41610246854344e+01 1.10139095081838e-01
9.61367346938775e-02 1.40614137429432e+01 1.09744764655321e-01
9.68020408163265e-02 1.39625034799062e+01 1.09349227328178e-01
9.74673469387755e-02 1.38642889677054e+01 1.08952542092256e-01
9.81326530612245e-02 1.37667653123161e+01 1.08554766717313e-01
9.87979591836735e-02 1.36699276541390e+01 1.08155957738852e-01
9.94632653061224e-02 1.35737711677581e+01 1.07756170509680e-01
1.00128571428571e-01 1.34782910616311e+01 1.07355459130711e-01
1.00793877551020e-01 1.33834825783991e+01 1.06953876783415e-01
1.01459183673469e-01 1.32893409928074e+01 1.06551475330086e-01
1.02124489795918e-01 1.31958616144702e+01 1.06148305414898e-01
1.02789795918367e-01 1.31030397853122e+01 1.05744416901010e-01
1.03455102040816e-01 1.30108708800235e+01 1.05339858479365e-01
1.04120408163265e-01 1.29193503058293e+01 1.04934677812966e-01
1.04785714285714e-01 1.28284735022611e+01 1.04528921558306e-01
1.05451020408163e-01 1.27382359409302e+01 1.04122635386520e-01
1.06116326530612e-01 1.26486331253010e+01 1.03715864111497e-01
1.06781632653061e-01 1.25596605898636e+01 1.03308651384091e-01
1.07446938775510e-01 1.24713139017356e+01 1.02901039929273e-01
1.08112244897959e-01 1.23835886586037e+01 1.02493071788399e-01
1.08777551020408e-01 1.22964804891212e+01 1.02084788001833e-01
1.09442857142857e-01 1.22099850526895e+01 1.01676228739682e-01
1.10108163265306e-01 1.21240980392432e+01 1.01267433319344e-01
1.10773469387755e-01 1.20388151690345e+01 1.00858440222874e-01
1.11438775510204e-01 1.19541321924203e+01 1.00449287213178e-01
1.12104081632653e-01 1.18700448891065e+01 1.00040011049990e-01
1.12769387755102e-01 1.17865490695801e+01 9.96306477066507e-02
1.13434693877551e-01 1.17036405732465e+01 9.92212325918348e-02
1.14100000000000e-01 1.16213152687776e+01 9.88118002549569e-02
1.14765306122449e-01 1.15395690539053e+01 9.84023845051234e-02
1.15430612244898e-01 1.14583978552176e+01 9.79930184256299e-02
1.16095918367347e-01 1.13777976279560e+01 9.75837343883309e-02
1.16761224489796e-01 1.12977643558133e+01 9.71745641594244e-02
1.17426530612245e-01 1.12182940502434e+01 9.67655386356651e-02
1.18091836734694e-01 1.11393827517438e+01 9.63566880429935e-02
1.18757142857143e-01 1.10610265281668e+01 9.59480421399658e-02
1.19422448979592e-01 1.09832214750238e+01 9.55396299442867e-02
1.20087755102041e-01 1.09059637152911e+01 9.51314798413663e-02
1.20753061224490e-01 1.08292493992164e+01 9.47236195963888e-02
1.21418367346939e-01 1.07530747041275e+01 9.43160763663059e-02
1.22083673469388e-01 1.06774358342416e+01 9.39088767964390e-02
1.22748979591837e-01 1.06023290200325e+01 9.35020467754662e-02
1.23414285714286e-01 1.05277505193825e+01 9.30956116177988e-02
1.24079591836735e-01 1.04536966160471e+01 9.26895962506007e-02
1.24744897959184e-01 1.03801636199223e+01 9.22840249598679e-02
1.25410204081633e-01 1.03071478668612e+01 9.18789214897892e-02
1.26075510204082e-01 1.02346457184904e+01 9.14743090528395e-02
1.26740816326531e-01 1.01626535620302e+01 9.10702103398602e-02
1.27406122448980e-01 1.00911678101136e+01 9.06666476085280e-02
1.28071428571429e-01 1.00201849002059e+01 9.02636424556988e-02
1.28736734693878e-01 9.94970129564093e+00 8.98612159851964e-02
1.29402040816327e-01 9.87971348422275e+00 8.94593889800226e-02
1.30067346938776e-01 9.81021797846081e+00 8.90581816665324e-02
1.30732653061224e-01 9.74121131539618e+00 8.86576138055611e-02
1.31397959183673e-01 9.67269005642860e+00 8.82577047009489e-02
1.32063265306122e-01 9.60465078714589e+00 8.78584732080356e-02
1.32728571428571e-01 9.53709011715340e+00 8.74599377421384e-02
1.33393877551020e-01 9.47000467990511e+00 8.70621163585966e-02
1.34059183673469e-01 9.40339113217590e+00 8.66650265434064e-02
1.34724489795918e-01 9.33724615498197e+00 8.62686853661250e-02
1.35389795918367e-01 9.27156645232115e+00 8.58731096369813e-02
1.36055102040816e-01 9.20634875137595e+00 8.54783156900340e-02
1.36720408163265e-01 9.14158980235014e+00 8.50843194657857e-02
1.37385714285714e-01 9.07728637830733e+00 8.46911365183826e-02
1.38051020408163e-01 9.01343527501001e+00 8.42987820228396e-02
1.38716326530612e-01 8.95003331075978e+00 8.39072708486484e-02
1.39381632653061e-01 8.88707732591168e+00 8.35166173651359e-02
1.40046938775510e-01 8.82456418370473e+00 8.31268355825548e-02
1.40712244897959e-01 8.76249076911108e+00 8.27379392972142e-02
1.41377551020408e-01 8.70085398901449e+00 8.23499418899155e-02
1.42042857142857e-01 8.63965077205606e+00 8.19628564020211e-02
1.42708163265306e-01 8.57887806848143e+00 8.15766955416051e-02
1.43373469387755e-01 8.51853284998882e+00 8.11914716895991e-02
1.44038775510204e-01 8.45861210957803e+00 8.08071969676258e-02
1.44704081632653e-01 8.39911286110272e+00 8.04238830569753e-02
1.45369387755102e-01 8.34003214002108e+00 8.00415413289527e-02
1.46034693877551e-01 8.28136700234273e+00 7.96601829791019e-02
1.46700000000000e-01 8.22311452478582e+00 7.92798188397493e-02
1.47365306122449e-01 8.16527180463125e+00 7.89004594501585e-02
1.48030612244898e-01 8.10783595957812e+00 7.85221150618071e-02
1.48695918367347e-01 8.05080412760025e+00 7.81447956436535e-02
1.49361224489796e-01 7.99417346680343e+00 7.77685109447099e-02
1.50026530612245e-01 7.93794115501222e+00 7.73932703256154e-02
1.50691836734694e-01 7.88210439044934e+00 7.70190828792218e-02
1.51357142857143e-01 7.82666039077068e+00 7.66459575548265e-02
1.52022448979592e-01 7.77160639320367e+00 7.62739029837924e-02
1.52687755102041e-01 7.71693965440942e+00 7.59029275443307e-02
1.53353061224490e-01 7.66265745034610e+00 7.55330393660204e-02
1.54018367346939e-01 7.60875707613341e+00 7.51642463343490e-02
1.54683673469388e-01 7.55523584591759e+00 7.47965561485148e-02
1.55348979591837e-01 7.50209109248978e+00 7.44299761646607e-02
1.56014285714286e-01 7.44932016790143e+00 7.40645135075253e-02
1.56679591836735e-01 7.39692044257921e+00 7.37001751855544e-02
1.57344897959184e-01 7.34488930544665e+00 7.33369679285986e-02
1.58010204081633e-01 7.29322416379399e+00 7.29748982478066e-02
1.58675510204082e-01 7.24192244314890e+00 7.26139724395288e-02
1.59340816326531e-01 7.19098158714848e+00 7.22541965892236e-02
1.60006122448980e-01 7.14039905741171e+00 7.18955766249200e-02
1.60671428571429e-01 7.09017233318646e+00 7.15381181712562e-02
1.61336734693878e-01 7.04029891190771e+00 7.11818266529343e-02
1.62002040816327e-01 6.99077630838464e+00 7.08267074014732e-02
1.62667346938775e-01 6.94160205490770e+00 7.04727655040990e-02
1.63332653061224e-01 6.89277370112560e+00 7.01200058591676e-02
1.63997959183673e-01 6.84428881392308e+00 6.97684331795493e-02
1.64663265306122e-01 6.79614497729998e+00 6.94180519959980e-02
1.65328571428571e-01 6.74833979225070e+00 6.90688666605438e-02
1.65993877551020e-01 6.70087087664461e+00 6.87208813953656e-02
1.66659183673469e-01 6.65373586490263e+00 6.83741001581782e-02
1.67324489795918e-01 6.60693240849751e+00 6.80285267372250e-02
1.67989795918367e-01 6.56045817521473e+00 6.76841648493438e-02
1.68655102040816e-01 6.51431084924496e+00 6.73410180006264e-02
1.69320408163265e-01 6.46848813106851e+00 6.69990895371241e-02
1.69985714285714e-01 6.42298773734102e+00 6.66583826477807e-02
1.70651020408163e-01 6.37780740077957e+00 6.63189003673880e-02
1.71316326530612e-01 6.33294487004968e+00 6.59806456218687e-02
1.71981632653061e-01 6.28839790946556e+00 6.56436211028388e-02
1.72646938775510e-01 6.24416429944491e+00 6.53078293557791e-02
1.73312244897959e-01 6.20024183582860e+00 6.49732728711162e-02
1.73977551020408e-01 6.15662832996190e+00 6.46399539543768e-02
1.74642857142857e-01 6.11332160858534e+00 6.43078747732206e-02
1.75308163265306e-01 6.07031951372661e+00 6.39770373599790e-02
1.75973469387755e-01 6.02761990259293e+00 6.36474436142152e-02
1.76638775510204e-01 5.98522064746431e+00 6.33190953447267e-02
1.77304081632653e-01 5.94311963541552e+00 6.29919941526254e-02
1.77969387755102e-01 5.90131476872990e+00 6.26661415132348e-02
1.78634693877551e-01 5.85980396427250e+00 6.23415388607283e-02
1.79300000000000e-01 5.81858515356152e+00 6.20181874670939e-02
1.79965306122449e-01 5.77765628266511e+00 6.16960884857736e-02
1.80630612244898e-01 5.73701531209915e+00 6.13752429538859e-02
1.81295918367347e-01 5.69666021672565e+00 6.10556517944436e-02
1.81961224489796e-01 5.65658898565173e+00 6.07373158553375e-02
1.82626530612245e-01 5.61679962197173e+00 6.04202358003165e-02
1.83291836734694e-01 5.57729014314388e+00 6.01044121850962e-02
1.83957142857143e-01 5.53805858041236e+00 5.97898455360648e-02
1.84622448979592e-01 5.49910297886991e+00 5.94765362374297e-02
1.85287755102041e-01 5.46042139736037e+00 5.91644845717337e-02
1.85953061224490e-01 5.42201190838195e+00 5.88536907217862e-02
1.86618367346939e-01 5.38387259799132e+00 5.85441547725983e-02
1.87283673469388e-01 5.34600156570812e+00 5.82358767475960e-02
1.87948979591837e-01 5.30839692427538e+00 5.79288565069196e-02
1.88614285714286e-01 5.27105680000286e+00 5.76230938182031e-02
1.89279591836735e-01 5.23397933223360e+00 5.73185884298004e-02
1.89944897959184e-01 5.19716267339884e+00 5.70153399655188e-02
1.90610204081633e-01 5.16060498892586e+00 5.67133479622663e-02
1.91275510204082e-01 5.12430445714663e+00 5.64126118717269e-02
1.91940816326531e-01 5.08825926920705e+00 5.61131310620595e-02
1.92606122448980e-01 5.05246762897684e+00 5.58149048515401e-02
1.93271428571429e-01 5.01692775282677e+00 5.55179324136746e-02
1.93936734693878e-01 4.98163786994187e+00 5.52222128430620e-02
1.94602040816327e-01 4.94659622182863e+00 5.49277452235399e-02
1.95267346938775e-01 4.91180106236311e+00 5.46345285299670e-02
1.95932653061224e-01 4.87725065770388e+00 5.43425616632308e-02
1.96597959183673e-01 4.84294328620556e+00 5.40518434517060e-02
1.97263265306122e-01 4.80887723833318e+00 5.37623726527268e-02
1.97928571428571e-01 4.77505081657695e+00 5.34741479540762e-02
1.98593877551020e-01 4.74146233536762e+00 5.31871680049211e-02
1.99259183673469e-01 4.70811012087135e+00 5.29014313280831e-02
1.99924489795918e-01 4.67499251127198e+00 5.26169363807505e-02
2.00589795918367e-01 4.64210785632034e+00 5.23336816173571e-02
2.01255102040816e-01 4.60945451737540e+00 5.20516653987683e-02
2.01920408163265e-01 4.57703086732250e+00 5.17708860244725e-02
2.02585714285714e-01 4.54483529049246e+00 5.14913417338738e-02
2.03251020408163e-01 4.51286618258098e+00 5.12130307075905e-02
2.03916326530612e-01 4.48112195056871e+00 5.09359510962400e-02
2.04581632653061e-01 4.44960101253028e+00 5.06601009385206e-02
2.05246938775510e-01 4.41830179789221e+00 5.03854782177675e-02
2.05912244897959e-01 4.38722274701586e+00 5.01120809205276e-02
2.06577551020408e-01 4.35636231123338e+00 4.98399069517699e-02
2.07242857142857e-01 4.32571895277047e+00 4.95689541648632e-02
2.07908163265306e-01 4.29529114466978e+00 4.92992203626860e-02
2.08573469387755e-01 4.26507737071488e+00 4.90307032987660e-02
2.09238775510204e-01 4.23507612535463e+00 4.87634007040788e-02
2.09904081632653e-01 4.20528591352545e+00 4.84973102105424e-02
