Energy (eV)          EEDF (eV^-(3/2))     First Anisotropy
2.67857142857143e-02 4.39685751357254e-02 2.20523129659765e-05
8.03571428571428e-02 4.36981185588998e-02 3.64250949868091e-05
1.33928571428571e-01 4.34293255972143e-02 4.81129670945418e-05
1.87500000000000e-01 4.31621860160589e-02 5.70092266129298e-05
2.41071428571429e-01 4.28966896470827e-02 6.44428141805546e-05
2.94642857142857e-01 4.26328263812661e-02 7.09156523496811e-05
3.48214285714286e-01 4.23705861741075e-02 7.66872252124293e-05
4.01785714285714e-01 4.21099590411711e-02 8.19140737453749e-05
4.55357142857143e-01 4.18509350602461e-02 8.66999176607050e-05
5.08928571428571e-01 4.15935043707688e-02 9.11179931588434e-05
5.62500000000000e-01 4.13376571716192e-02 9.52224611924174e-05
6.16071428571428e-01 4.10833837230149e-02 9.90548151145815e-05
6.69642857142857e-01 4.08306743441702e-02 1.02647742457492e-04
7.23214285714286e-01 4.05795194146621e-02 1.06027582883063e-04
7.76785714285714e-01 4.03299093725151e-02 1.09215962507191e-04
8.30357142857143e-01 4.00818347149275e-02 1.12230919893506e-04
8.83928571428571e-01 3.98352859978597e-02 1.15087705806115e-04
9.37500000000000e-01 3.95902538347513e-02 1.17799365303362e-04
9.91071428571428e-01 3.93467288973443e-02 1.20377171005445e-04
1.04464285714286e+00 3.91047019149239e-02 1.22830952111556e-04
1.09821428571429e+00 3.88641636724460e-02 1.25169347575148e-04
1.15178571428571e+00 3.86251050125072e-02 1.27400004454721e-04
1.20535714285714e+00 3.83875168340089e-02 1.29529735569501e-04
1.25892857142857e+00 3.81513900918535e-02 1.31564645676006e-04
1.31250000000000e+00 3.79167157965770e-02 1.33510233668694e-04
1.36607142857143e+00 3.76834850157479e-02 1.35371477234053e-04
1.41964285714286e+00 3.74516888683320e-02 1.37152901676593e-04
1.47321428571429e+00 3.72213185297293e-02 1.38858637168150e-04
1.52678571428571e+00 3.69923652296187e-02 1.40492467987649e-04
1.58035714285714e+00 3.67648202516137e-02 1.42057873219242e-04
1.63392857142857e+00 3.65386749329542e-02 1.43558061584919e-04
1.68750000000000e+00 3.63139206641640e-02 1.44996001035037e-04
1.74107142857143e+00 3.60905488900239e-02 1.46374445011281e-04
1.79464285714286e+00 3.58685511052977e-02 1.47695954178866e-04
1.84821428571429e+00 3.56479188584065e-02 1.48962915248459e-04
1.90178571428571e+00 3.54286437497567e-02 1.50177558422786e-04
1.95535714285714e+00 3.52107174314142e-02 1.51341971897550e-04
2.00892857142857e+00 3.49941316068008e-02 1.52458114812966e-04
2.06250000000000e+00 3.47788780303706e-02 1.53527828511690e-04
2.11607142857143e+00 3.45649485083175e-02 1.54552847224080e-04
2.16964285714286e+00 3.43523348951673e-02 1.55534806712565e-04
2.22321428571429e+00 3.41410290965976e-02 1.56475251941269e-04
2.27678571428571e+00 3.39310230680746e-02 1.57375644831514e-04
2.33035714285714e+00 3.37223088145423e-02 1.58237370527425e-04
2.38392857142857e+00 3.35148783901280e-02 1.59061743204257e-04
2.43750000000000e+00 3.33087238978345e-02 1.59850011149155e-04
2.49107142857143e+00 3.31038374900680e-02 1.60603361983058e-04
2.54464285714286e+00 3.29002113658299e-02 1.61322926630622e-04
2.59821428571429e+00 3.26978377729544e-02 1.62009782895264e-04
2.65178571428571e+00 3.24967090069599e-02 1.62664959506264e-04
2.70535714285714e+00 3.22968174107523e-02 1.63289439193220e-04
2.75892857142857e+00 3.20981553743408e-02 1.63884161649338e-04
2.81250000000000e+00 3.19007153345440e-02 1.64450026103738e-04
2.86607142857143e+00 3.17044897753911e-02 1.64987894243233e-04
2.91964285714286e+00 3.15094712257514e-02 1.65498592211894e-04
2.97321428571429e+00 3.13156522611529e-02 1.65982912427248e-04
3.02678571428571e+00 3.11230255027925e-02 1.66441615964826e-04
3.08035714285714e+00 3.09315836172523e-02 1.66875434205341e-04
3.13392857142857e+00 3.07413193162256e-02 1.67285070495984e-04
3.18750000000000e+00 3.05522253562369e-02 1.67671201561717e-04
3.24107142857143e+00 3.03642945389483e-02 1.68034479321424e-04
3.29464285714286e+00 3.01775197091239e-02 1.68375531954015e-04
3.34821428571429e+00 2.99918937561343e-02 1.68694964870009e-04
3.40178571428571e+00 2.98074096130880e-02 1.68993362257231e-04
3.45535714285714e+00 2.96240602565614e-02 1.69271288019308e-04
3.50892857142857e+00 2.94418387063342e-02 1.69529286776598e-04
3.56250000000000e+00 2.92607380251226e-02 1.69767884685959e-04
3.61607142857143e+00 2.90807513188138e-02 1.69987590668054e-04
3.66964285714286e+00 2.89018717346943e-02 1.70188896991680e-04
3.72321428571429e+00 2.87240924627105e-02 1.70372279805257e-04
3.77678571428571e+00 2.85474067346985e-02 1.70538200217889e-04
3.83035714285714e+00 2.83718078241245e-02 1.70687104857126e-04
3.88392857142857e+00 2.81972890458320e-02 1.70819426507351e-04
3.93750000000000e+00 2.80238437557857e-02 1.70935584605091e-04
3.99107142857143e+00 2.78514653512514e-02 1.71035986125900e-04
4.04464285714286e+00 2.76801472692360e-02 1.71121025903608e-04
4.09821428571429e+00 2.75098829875566e-02 1.71191086917902e-04
4.15178571428571e+00 2.73406660241489e-02 1.71246541097639e-04
4.20535714285714e+00 2.71724899368195e-02 1.71287749661267e-04
4.25892857142857e+00 2.70053483230028e-02 1.71315063543163e-04
4.31250000000000e+00 2.68392348195162e-02 1.71328823700568e-04
4.36607142857143e+00 2.66741431026964e-02 1.71329361789551e-04
4.41964285714286e+00 2.65100668870146e-02 1.71317000331295e-04
4.47321428571429e+00 2.63469999259896e-02 1.71292052858204e-04
4.52678571428571e+00 2.61849360115631e-02 1.71254824540126e-04
4.58035714285714e+00 2.60238689738625e-02 1.71205612394653e-04
4.63392857142857e+00 2.58637926809679e-02 1.71144705582871e-04
4.68750000000000e+00 2.57047010386772e-02 1.71072385601826e-04
4.74107142857143e+00 2.55465879906087e-02 1.70988926822020e-04
4.79464285714286e+00 2.53894475169615e-02 1.70894596562233e-04
4.84821428571429e+00 2.52332736353021e-02 1.70789655150754e-04
4.90178571428571e+00 2.50780603999956e-02 1.70674356432401e-04
4.95535714285714e+00 2.49238019019790e-02 1.70548947897880e-04
5.00892857142857e+00 2.47704922685371e-02 1.70413670895576e-04
5.06250000000000e+00 2.46181256630788e-02 1.70268760751948e-04
5.11607142857143e+00 2.44666962852106e-02 1.70114447213410e-04
5.16964285714286e+00 2.43161983696213e-02 1.69950954465065e-04
5.22321428571429e+00 2.41666261867636e-02 1.69778501139968e-04
5.27678571428571e+00 2.40179740423331e-02 1.69597300741953e-04
5.33035714285714e+00 2.38702362770514e-02 1.69407561723099e-04
5.38392857142857e+00 2.37234072664515e-02 1.69209487639628e-04
5.43750000000000e+00 2.35774814206632e-02 1.69003277225517e-04
5.49107142857143e+00 2.34324531844646e-02 1.68789124765444e-04
5.54464285714286e+00 2.32883170362725e-02 1.68567220078743e-04
5.59821428571429e+00 2.31450674887358e-02 1.68337748496333e-04
5.65178571428571e+00 2.30026990882566e-02 1.68100891221654e-04
5.70535714285714e+00 2.28612064147823e-02 1.67856825374160e-04
5.75892857142857e+00 2.27205840816003e-02 1.67605724106713e-04
5.81250000000000e+00 2.25808267351323e-02 1.67347756648235e-04
5.86607142857143e+00 2.24419290549672e-02 1.67083088625036e-04
5.91964285714286e+00 2.23038857529441e-02 1.66811882023029e-04
5.97321428571429e+00 2.21666915736698e-02 1.66534295144705e-04
6.02678571428571e+00 2.20303412940781e-02 1.66250482922893e-04
6.08035714285714e+00 2.18948297232298e-02 1.65960596941537e-04
6.13392857142857e+00 2.17601517021164e-02 1.65664785525937e-04
6.18750000000000e+00 2.16263021034631e-02 1.65363193764521e-04
6.24107142857143e+00 2.14932758317466e-02 1.65055963790204e-04
6.29464285714286e+00 2.13610678223583e-02 1.64743234729308e-04
6.34821428571429e+00 2.12296730420580e-02 1.64425142646308e-04
6.40178571428571e+00 2.10990864885660e-02 1.64101820820510e-04
6.45535714285714e+00 2.09693031903718e-02 1.63773399751555e-04
6.50892857142857e+00 2.08403182065455e-02 1.63440007230007e-04
6.56250000000000e+00 2.07121266265498e-02 1.63101768344875e-04
6.61607142857143e+00 2.05847235702449e-02 1.62758805733203e-04
6.66964285714286e+00 2.04581041871222e-02 1.62411239521045e-04
6.72321428571429e+00 2.03322636567042e-02 1.62059187261062e-04
6.77678571428571e+00 2.02071971881647e-02 1.61702764179331e-04
6.83035714285714e+00 2.00829000201460e-02 1.61342083170461e-04
6.88392857142857e+00 1.99593674205788e-02 1.60977254853658e-04
6.93750000000000e+00 1.98365946865011e-02 1.60608387570531e-04
6.99107142857143e+00 1.97145771440538e-02 1.60235587608754e-04
7.04464285714286e+00 1.95933101477766e-02 1.59858959138608e-04
7.09821428571429e+00 1.94727890809604e-02 1.59478604146813e-04
7.15178571428571e+00 1.93530093552943e-02 1.59094622658718e-04
7.20535714285714e+00 1.92339664106902e-02 1.58707112726385e-04
7.25892857142857e+00 1.91156557151101e-02 1.58316170473733e-04
7.31250000000000e+00 1.89980727643931e-02 1.57921890087593e-04
7.36607142857143e+00 1.88812130822423e-02 1.57524364019870e-04
7.41964285714286e+00 1.87650722195766e-02 1.57123682922075e-04
7.47321428571429e+00 1.86496457548419e-02 1.56719935577545e-04
7.52678571428571e+00 1.85349292936818e-02 1.56313209102953e-04
7.58035714285714e+00 1.84209184687698e-02 1.55903588931636e-04
7.63392857142857e+00 1.83076089396437e-02 1.55491158850434e-04
7.68750000000000e+00 1.81949963925400e-02 1.55076000986214e-04
7.74107142857143e+00 1.80830765403742e-02 1.54658195989694e-04
7.79464285714286e+00 1.79718451221417e-02 1.54237822969567e-04
7.84821428571429e+00 1.78612979031940e-02 1.53814959424663e-04
7.90178571428571e+00 1.77514306749305e-02 1.53389681427755e-04
7.95535714285714e+00 1.76422392546379e-02 1.52962063605806e-04
8.00892857142857e+00 1.75337194853318e-02 1.52532179170337e-04
8.06250000000000e+00 1.74258672355978e-02 1.52100099900854e-04
8.11607142857143e+00 1.73186783995660e-02 1.51665896312991e-04
8.16964285714286e+00 1.72121488963574e-02 1.51229637593292e-04
8.22321428571428e+00 1.71062746703283e-02 1.50791391532256e-04
8.27678571428571e+00 1.70010516907817e-02 1.50351224692854e-04
8.33035714285714e+00 1.68964759518138e-02 1.49909202388811e-04
8.38392857142857e+00 1.67925434721619e-02 1.49465388709884e-04
8.43750000000000e+00 1.66892502950524e-02 1.49019846503294e-04
8.49107142857143e+00 1.65865924881711e-02 1.48572637528241e-04
8.54464285714286e+00 1.64845661431493e-02 1.48123822391990e-04
8.59821428571428e+00 1.63831673757813e-02 1.47673460484467e-04
8.65178571428571e+00 1.62823923257536e-02 1.47221610133427e-04
8.70535714285714e+00 1.61822371564977e-02 1.46768328581572e-04
8.75892857142857e+00 1.60826980550447e-02 1.46313672007752e-04
8.81250000000000e+00 1.59837712318796e-02 1.45857695507210e-04
8.86607142857143e+00 1.58854529209080e-02 1.45400453234080e-04
8.91964285714286e+00 1.57877393789787e-02 1.44941998339264e-04
8.97321428571428e+00 1.56906268860769e-02 1.44482382907026e-04
9.02678571428571e+00 1.55941117450701e-02 1.44021658098290e-04
9.08035714285714e+00 1.54981902815674e-02 1.43559874127194e-04
9.13392857142857e+00 1.54028588437794e-02 1.43097080279091e-04
9.18750000000000e+00 1.53081138023797e-02 1.42633324890091e-04
9.24107142857143e+00 1.52139515504677e-02 1.42168655478884e-04
9.29464285714286e+00 1.51203685031251e-02 1.41703118686752e-04
9.34821428571428e+00 1.50273610975875e-02 1.41236760216333e-04
9.40178571428571e+00 1.49349257930058e-02 1.40769624964434e-04
9.45535714285714e+00 1.48430590703107e-02 1.40301756998448e-04
9.50892857142857e+00 1.47517574320795e-02 1.39833199571638e-04
9.56250000000000e+00 1.46610174024025e-02 1.39363995102470e-04
9.61607142857143e+00 1.45708355268443e-02 1.38894185296912e-04
9.66964285714286e+00 1.44812083720303e-02 1.38423811090691e-04
9.72321428571428e+00 1.43921325257994e-02 1.37952912590445e-04
9.77678571428571e+00 1.43036045969792e-02 1.37481529197039e-04
9.83035714285714e+00 1.42156212152566e-02 1.37009699582199e-04
9.88392857142857e+00 1.41281790310503e-02 1.36537461701618e-04
9.93750000000000e+00 1.40412747153821e-02 1.36064852774274e-04
9.99107142857143e+00 1.39549049598375e-02 1.35591909263632e-04
1.00446428571429e+01 1.38690664765182e-02 1.35118667452497e-04
1.00982142857143e+01 1.37837559965659e-02 1.34645162325410e-04
1.01517857142857e+01 1.36989702730081e-02 1.34171428078609e-04
1.02053571428571e+01 1.36147060779908e-02 1.33697499291943e-04
1.02589285714286e+01 1.35309602027039e-02 1.33223408926372e-04
1.03125000000000e+01 1.34477294597124e-02 1.32749189324968e-04
1.03660714285714e+01 1.33650106803626e-02 1.32274872876570e-04
1.04196428571429e+01 1.32828007154918e-02 1.31800491349180e-04
1.04732142857143e+01 1.32010964345331e-02 1.31326075297699e-04
1.05267857142857e+01 1.31198947277388e-02 1.30851654701072e-04
1.05803571428571e+01 1.30391925037014e-02 1.30377259903195e-04
1.06339285714286e+01 1.29589866892799e-02 1.29902919760803e-04
1.06875000000000e+01 1.28792742317488e-02 1.29428662583997e-04
1.07410714285714e+01 1.28000520963984e-02 1.28954516759746e-04
1.07946428571429e+01 1.27213172671862e-02 1.28480510124318e-04
1.08482142857143e+01 1.26430667459048e-02 1.28006669405063e-04
1.09017857142857e+01 1.25652975542340e-02 1.27533020819103e-04
1.09553571428571e+01 1.24880067314451e-02 1.27059590958184e-04
1.10089285714286e+01 1.24111913343279e-02 1.26586405045017e-04
1.10625000000000e+01 1.23348484391754e-02 1.26113487817636e-04
1.11160714285714e+01 1.22589751395597e-02 1.25640864115650e-04
1.11696428571429e+01 1.21835685469311e-02 1.25168558289113e-04
1.12232142857143e+01 1.21086257898442e-02 1.24696593672145e-04
1.12767857142857e+01 1.20341440158533e-02 1.24224993145935e-04
1.13303571428571e+01 1.19601203893844e-02 1.23753779971465e-04
1.13839285714286e+01 1.18865520916634e-02 1.23282976147059e-04
1.14375000000000e+01 1.18134363225502e-02 1.22812603240456e-04
1.14910714285714e+01 1.17407702984763e-02 1.22342682940445e-04
1.15446428571429e+01 1.16685512529954e-02 1.21873236499794e-04
1.15982142857143e+01 1.15967764360632e-02 1.21404284238688e-04
1.16517857142857e+01 1.15254431157901e-02 1.20935846074559e-04
1.17053571428571e+01 1.14545485764663e-02 1.20467942306224e-04
1.17589285714286e+01 1.13840901184913e-02 1.20000592065949e-04
1.18125000000000e+01 1.13140650600711e-02 1.19533814102854e-04
1.18660714285714e+01 1.12444707353028e-02 1.19067627302295e-04
1.19196428571429e+01 1.11753044946823e-02 1.18602050160667e-04
1.19732142857143e+01 1.11065637044321e-02 1.18137100316790e-04
1.20267857142857e+01 1.10382457481250e-02 1.17672795050803e-04
1.20803571428571e+01 1.09703480248485e-02 1.17209152022989e-04
1.21339285714286e+01 1.09028679491360e-02 1.16746187814225e-04
1.21875000000000e+01 1.08358029525389e-02 1.16283918663993e-04
1.22410714285714e+01 1.07691504818463e-02 1.15822360959700e-04
1.22946428571429e+01 1.07029079995524e-02 1.15361530741277e-04
1.23482142857143e+01 1.06370729832304e-02 1.14901443258790e-04
1.24017857142857e+01 1.05716429270364e-02 1.14442113442500e-04
1.24553571428571e+01 1.05066153400024e-02 1.13983556599331e-04
1.25089285714286e+01 1.04419877459695e-02 1.13525787036060e-04
1.25625000000000e+01 1.03777576850448e-02 1.13068818754937e-04
1.26160714285714e+01 1.03139227119458e-02 1.12612665914909e-04
1.26696428571429e+01 1.02504803964309e-02 1.12157342364166e-04
1.27232142857143e+01 1.01874283227151e-02 1.11702861222330e-04
1.27767857142857e+01 1.01247640908650e-02 1.11249235323592e-04
1.28303571428571e+01 1.00624853152097e-02 1.10796477873641e-04
1.28839285714286e+01 1.00005896242755e-02 1.10344601150253e-04
1.29375000000000e+01 9.93907466213854e-03 1.09893617159304e-04
1.29910714285714e+01 9.87793808688184e-03 1.09443538069788e-04
1.30446428571429e+01 9.81717757099402e-03 1.08994375772507e-04
1.30982142857143e+01 9.75679080082243e-03 1.08546141485350e-04
1.31517857142857e+01 9.69677547786869e-03 1.08098846171296e-04
1.32053571428571e+01 9.63712931730788e-03 1.07652501158247e-04
1.32589285714286e+01 9.57785004792515e-03 1.07207116912242e-04
1.33125000000000e+01 9.51893541337168e-03 1.06762703656412e-04
1.33660714285714e+01 9.46038317072701e-03 1.06319271781424e-04
1.34196428571429e+01 9.40219109086721e-03 1.05876831428751e-04
1.34732142857143e+01 9.34435695795344e-03 1.05435392117601e-04
1.35267857142857e+01 9.28687857063582e-03 1.04994963139372e-04
1.35803571428571e+01 9.22975374067251e-03 1.04555554142828e-04
1.36339285714286e+01 9.17298029286808e-03 1.04117173975369e-04
1.36875000000000e+01 9.11655606624100e-03 1.03679831267286e-04
1.37410714285714e+01 9.06047891268244e-03 1.03243534819194e-04
1.37946428571429e+01 9.00474669729695e-03 1.02808293208357e-04
1.38482142857143e+01 8.94935729792365e-03 1.02374114436017e-04
1.39017857142857e+01 8.89430860625569e-03 1.01941006299755e-04
1.39553571428571e+01 8.83959852655157e-03 1.01508976946150e-04
1.40089285714286e+01 8.78522497557530e-03 1.01078033775962e-04
1.40625000000000e+01 8.73118588368242e-03 1.00648183995848e-04
1.41160714285714e+01 8.67747919356793e-03 1.00219434984264e-04
1.41696428571429e+01 8.62410286058165e-03 9.97917939193967e-05
1.42232142857143e+01 8.57105485227971e-03 9.93652674456631e-05
1.42767857142857e+01 8.51833314946628e-03 9.89398620253998e-05
1.43303571428571e+01 8.46593574499005e-03 9.85155844610143e-05
1.43839285714286e+01 8.41386064368624e-03 9.80924408601728e-05
1.44375000000000e+01 8.36210586338748e-03 9.76704371569999e-05
1.44910714285714e+01 8.31066943375419e-03 9.72495794577584e-05
1.45446428571429e+01 8.25954939656665e-03 9.68298736891301e-05
1.45982142857143e+01 8.20874380530458e-03 9.64113252827434e-05
1.46517857142857e+01 8.15825072611727e-03 9.59939395074438e-05
1.47053571428571e+01 8.10806823669877e-03 9.55777219628042e-05
1.47589285714286e+01 8.05819442623167e-03 9.51626776007120e-05
1.48125000000000e+01 8.00862739632884e-03 9.47488112179280e-05
1.48660714285714e+01 7.95936525993992e-03 9.43361277827882e-05
1.49196428571429e+01 7.91040614162213e-03 9.39246321025934e-05
1.49732142857143e+01 7.86174817714582e-03 9.35143285251079e-05
1.50267857142857e+01 7.81338951439856e-03 9.31052212526167e-05
1.50803571428571e+01 7.76532831233320e-03 9.26973148085227e-05
1.51339285714286e+01 7.71756274091345e-03 9.22906131119529e-05
1.51875000000000e+01 7.67009098199169e-03 9.18851199434236e-05
1.52410714285714e+01 7.62291122828603e-03 9.14808392537142e-05
1.52946428571429e+01 7.57602168363147e-03 9.10777748492339e-05
1.53482142857143e+01 7.52942056260974e-03 9.06759301094989e-05
1.54017857142857e+01 7.48310609139226e-03 9.02753082840749e-05
1.54553571428571e+01 7.43707650675570e-03 8.98759129338724e-05
1.55089285714286e+01 7.39133005602946e-03 8.94777470556423e-05
1.55625000000000e+01 7.34586499791429e-03 8.90808135223549e-05
1.56160714285714e+01 7.30067960152485e-03 8.86851153753147e-05
1.56696428571429e+01 7.25577214662273e-03 8.82906555264532e-05
1.57232142857143e+01 7.21114092326887e-03 8.78974364908581e-05
1.57767857142857e+01 7.16678423261003e-03 8.75054606676057e-05
1.58303571428571e+01 7.12270038595702e-03 8.71147307572879e-05
1.58839285714286e+01 7.07888770473388e-03 8.67252489334674e-05
1.59375000000000e+01 7.03534452124190e-03 8.63370172592449e-05
1.59910714285714e+01 6.99206917776287e-03 8.59500379636307e-05
1.60446428571429e+01 6.94906002677545e-03 8.55643131597727e-05
1.60982142857143e+01 6.90631543062858e-03 8.51798445916610e-05
1.61517857142857e+01 6.86383376227563e-03 8.47966338998428e-05
1.62053571428571e+01 6.82161340441085e-03 8.44146830165388e-05
1.62589285714286e+01 6.77965274942029e-03 8.40339933813121e-05
1.63125000000000e+01 6.73795020009515e-03 8.36545663352786e-05
1.63660714285714e+01 6.69650416879146e-03 8.32764033826367e-05
1.64196428571429e+01 6.65531307763109e-03 8.28995059239001e-05
1.64732142857143e+01 6.61437535819469e-03 8.25238750159855e-05
1.65267857142857e+01 6.57368945220746e-03 8.21495116236804e-05
1.65803571428571e+01 6.53325381072958e-03 8.17764169936631e-05
1.66339285714286e+01 6.49306689410892e-03 8.14045919118382e-05
1.66875000000000e+01 6.45312717264740e-03 8.10340370764813e-05
1.67410714285714e+01 6.41343312581316e-03 8.06647533458118e-05
1.67946428571429e+01 6.37398324242733e-03 8.02967414853591e-05
1.68482142857143e+01 6.33477602037527e-03 7.99300019406623e-05
1.69017857142857e+01 6.29580996724739e-03 7.95645350753226e-05
