Energy (eV)          EEDF (eV^-(3/2))     First Anisotropy
1.19558823529412e-03 9.83415919920957e+00 5.96888548262255e-03
3.58676470588235e-03 9.73473540782281e+00 9.83958126217905e-03
5.97794117647059e-03 9.63631679543182e+00 1.29450768983019e-02
8.36911764705882e-03 9.53889319963447e+00 1.52775676091361e-02
1.07602941176471e-02 9.44245456076850e+00 1.72008589113131e-02
1.31514705882353e-02 9.34699092046414e+00 1.88531667509852e-02
1.55426470588235e-02 9.25249242236775e+00 2.03063468769989e-02
1.79338235294118e-02 9.15894930817850e+00 2.16039852488792e-02
2.03250000000000e-02 9.06635191894255e+00 2.27751162668466e-02
2.27161764705882e-02 8.97469069376276e+00 2.38403503903292e-02
2.51073529411765e-02 8.88395616758377e+00 2.48150103837492e-02
2.74985294117647e-02 8.79413897144682e+00 2.57108965551219e-02
2.98897058823529e-02 8.70522983139677e+00 2.65373530375404e-02
3.22808823529412e-02 8.61721956666806e+00 2.73019477613964e-02
3.46720588235294e-02 8.53009908960003e+00 2.80109255061128e-02
3.70632352941177e-02 8.44385940440628e+00 2.86695208094077e-02
3.94544117647059e-02 8.35849160645292e+00 2.92821805921764e-02
4.18455882352941e-02 8.27398688071739e+00 2.98527265679964e-02
4.42367647058824e-02 8.19033650150348e+00 3.03844763536793e-02
4.66279411764706e-02 8.10753183149908e+00 3.08803356502323e-02
4.90191176470588e-02 8.02556432038257e+00 3.13428693843066e-02
5.14102941176471e-02 7.94442550444330e+00 3.17743575193808e-02
5.38014705882353e-02 7.86410700553951e+00 3.21768394676895e-02
5.61926470588235e-02 7.78460053036386e+00 3.25521498100017e-02
5.85838235294118e-02 7.70589786918835e+00 3.29019472935623e-02
6.09750000000000e-02 7.62799089541926e+00 3.32277386215861e-02
6.33661764705882e-02 7.55087156473546e+00 3.35308982518908e-02
6.57573529411765e-02 7.47453191391858e+00 3.38126848388412e-02
6.81485294117647e-02 7.39896406037167e+00 3.40742550611192e-02
7.05397058823529e-02 7.32416020128780e+00 3.43166754218364e-02
7.29308823529412e-02 7.25011261255253e+00 3.45409322256817e-02
7.53220588235294e-02 7.17681364824046e+00 3.47479401406277e-02
7.77132352941177e-02 7.10425573972647e+00 3.49385496179760e-02
8.01044117647059e-02 7.03243139498658e+00 3.51135533217573e-02
8.24955882352941e-02 6.96133319757631e+00 3.52736916966304e-02
8.48867647058824e-02 6.89095380611430e+00 3.54196578281869e-02
8.72779411764706e-02 6.82128595351382e+00 3.55521017866683e-02
8.96691176470588e-02 6.75232244601274e+00 3.56716343888041e-02
9.20602941176471e-02 6.68405616265147e+00 3.57788305341439e-02
9.44514705882353e-02 6.61648005446377e+00 3.58742322017236e-02
9.68426470588235e-02 6.54958714381152e+00 3.59583511202390e-02
9.92338235294118e-02 6.48337052347395e+00 3.60316711432355e-02
1.01625000000000e-01 6.41782335600858e+00 3.60946502891805e-02
1.04016176470588e-01 6.35293887361943e+00 3.61477228463321e-02
1.06407352941176e-01 6.28871037597183e+00 3.61913009225444e-02
1.08798529411765e-01 6.22513123157421e+00 3.62257760950046e-02
1.11189705882353e-01 6.16219487491077e+00 3.62515208240658e-02
1.13580882352941e-01 6.09989480787995e+00 3.62688897280332e-02
1.15972058823529e-01 6.03822459707039e+00 3.62782207738738e-02
1.18363235294118e-01 5.97717787508911e+00 3.62798363357424e-02
1.20754411764706e-01 5.91674833796963e+00 3.62740441915659e-02
1.23145588235294e-01 5.85692974639973e+00 3.62611383532436e-02
1.25536764705882e-01 5.79771592367425e+00 3.62414001323485e-02
1.27927941176471e-01 5.73910075513724e+00 3.62150985523828e-02
1.30319117647059e-01 5.68107818877412e+00 3.61824912774821e-02
1.32710294117647e-01 5.62364223295645e+00 3.61438252125924e-02
1.35101470588235e-01 5.56678695741012e+00 3.60993370906116e-02
1.37492647058824e-01 5.51050649105803e+00 3.60492540395221e-02
1.39883823529412e-01 5.45479502291846e+00 3.59937940858318e-02
1.42275000000000e-01 5.39964680003940e+00 3.59331666447006e-02
1.44666176470588e-01 5.34505612833259e+00 3.58675729540687e-02
1.47057352941176e-01 5.29101737059379e+00 3.57972065007000e-02
1.49448529411765e-01 5.23752494727742e+00 3.57222533965264e-02
1.51839705882353e-01 5.18457333459758e+00 3.56428927509820e-02
1.54230882352941e-01 5.13215706524782e+00 3.55592969988660e-02
1.56622058823529e-01 5.08027072657811e+00 3.54716322273893e-02
1.59013235294118e-01 5.02890896126383e+00 3.53800584631104e-02
1.61404411764706e-01 4.97806646555432e+00 3.52847299605666e-02
1.63795588235294e-01 4.92773798989484e+00 3.51857954136020e-02
1.66186764705882e-01 4.87791833751030e+00 3.50833983752415e-02
1.68577941176471e-01 4.82860236391005e+00 3.49776772355867e-02
1.70969117647059e-01 4.77978497713822e+00 3.48687656058499e-02
1.73360294117647e-01 4.73146113620698e+00 3.47567924895086e-02
1.75751470588235e-01 4.68362585159335e+00 3.46418824683762e-02
1.78142647058824e-01 4.63627418372964e+00 3.45241558949900e-02
1.80533823529412e-01 4.58940124346547e+00 3.44037290582967e-02
1.82925000000000e-01 4.54300219061249e+00 3.42807143565070e-02
1.85316176470588e-01 4.49707223437405e+00 3.41552204451132e-02
1.87707352941176e-01 4.45160663194147e+00 3.40273523927139e-02
1.90098529411765e-01 4.40660068889352e+00 3.38972118136405e-02
1.92489705882353e-01 4.36204975784178e+00 3.37648970088857e-02
1.94880882352941e-01 4.31794923880189e+00 3.36305030852771e-02
1.97272058823529e-01 4.27429457788573e+00 3.34941220833184e-02
1.99663235294118e-01 4.23108126764628e+00 3.33558430845630e-02
2.02054411764706e-01 4.18830484581436e+00 3.32157523279099e-02
2.04445588235294e-01 4.14596089561890e+00 3.30739332758036e-02
2.06836764705882e-01 4.10404504474689e+00 3.29304668438609e-02
2.09227941176471e-01 4.06255296491602e+00 3.27854313043882e-02
2.11619117647059e-01 4.02148037195777e+00 3.26389025012532e-02
2.14010294117647e-01 3.98082302466930e+00 3.24909539097058e-02
2.16401470588235e-01 3.94057672506693e+00 3.23416567125113e-02
2.18792647058824e-01 3.90073731727520e+00 3.21910798850178e-02
2.21183823529412e-01 3.86130068776163e+00 3.20392902644668e-02
2.23575000000000e-01 3.82226276426136e+00 3.18863526282443e-02
2.25966176470588e-01 3.78361951599430e+00 3.17323297571010e-02
2.28357352941176e-01 3.74536695262391e+00 3.15772825072810e-02
2.30748529411765e-01 3.70750112445790e+00 3.14212698682988e-02
2.33139705882353e-01 3.67001812143969e+00 3.12643490295593e-02
2.35530882352941e-01 3.63291407333359e+00 3.11065754332518e-02
2.37922058823529e-01 3.59618514874775e+00 3.09480028359998e-02
2.40313235294118e-01 3.55982755530479e+00 3.07886833573669e-02
2.42704411764706e-01 3.52383753869486e+00 3.06286675370122e-02
2.45095588235294e-01 3.48821138283266e+00 3.04680043555757e-02
2.47486764705882e-01 3.45294540906636e+00 3.03067413827054e-02
2.49877941176471e-01 3.41803597581293e+00 3.01449246763938e-02
2.52269117647059e-01 3.38347947855557e+00 2.99825989230027e-02
2.54660294117647e-01 3.34927234897430e+00 2.98198074595906e-02
2.57051470588235e-01 3.31541105506546e+00 2.96565923102559e-02
2.59442647058824e-01 3.28189210029811e+00 2.94929942304744e-02
2.61833823529412e-01 3.24871202372302e+00 2.93290527406422e-02
2.64225000000000e-01 3.21586739915393e+00 2.91648061674827e-02
2.66616176470588e-01 3.18335483526669e+00 2.90002916750457e-02
2.69007352941177e-01 3.15117097480446e+00 2.88355453034202e-02
2.71398529411765e-01 3.11931249466752e+00 2.86706019974187e-02
2.73789705882353e-01 3.08777610514164e+00 2.85054956428276e-02
2.76180882352941e-01 3.05655854997913e+00 2.83402590929754e-02
2.78572058823529e-01 3.02565660564945e+00 2.81749242027149e-02
2.80963235294118e-01 2.99506708141210e+00 2.80095218530619e-02
2.83354411764706e-01 2.96478681858867e+00 2.78440819830908e-02
2.85745588235294e-01 2.93481269062806e+00 2.76786335943641e-02
2.88136764705882e-01 2.90514160249088e+00 2.75132048548914e-02
2.90527941176471e-01 2.87577049033989e+00 2.73478230099974e-02
2.92919117647059e-01 2.84669632149401e+00 2.71825144811975e-02
2.95310294117647e-01 2.81791609375525e+00 2.70173048738550e-02
2.97701470588235e-01 2.78942683545230e+00 2.68522189963020e-02
3.00092647058824e-01 2.76122560478628e+00 2.66872808855582e-02
3.02483823529412e-01 2.73330948986837e+00 2.65225138251359e-02
3.04875000000000e-01 2.70567560808363e+00 2.63579403692959e-02
3.07266176470588e-01 2.67832110612309e+00 2.61935823596393e-02
3.09657352941177e-01 2.65124315936503e+00 2.60294609480062e-02
3.12048529411765e-01 2.62443897190187e+00 2.58655966119470e-02
3.14439705882353e-01 2.59790577593840e+00 2.57020091763607e-02
3.16830882352941e-01 2.57164083181365e+00 2.55387178279297e-02
3.19222058823529e-01 2.54564142741564e+00 2.53757411355834e-02
3.21613235294118e-01 2.51990487819853e+00 2.52130970639814e-02
3.24004411764706e-01 2.49442852661326e+00 2.50508029928767e-02
3.26395588235294e-01 2.46920974212039e+00 2.48888757151957e-02
3.28786764705882e-01 2.44424592070355e+00 2.47273315136273e-02
3.31177941176471e-01 2.41953448460749e+00 2.45661860855032e-02
3.33569117647059e-01 2.39507288227140e+00 2.44054546158487e-02
3.35960294117647e-01 2.37085858779986e+00 2.42451517788218e-02
3.38351470588235e-01 2.34688910096319e+00 2.40852917484133e-02
3.40742647058824e-01 2.32316194668244e+00 2.39258882144748e-02
3.43133823529412e-01 2.29967467502645e+00 2.37669543927351e-02
3.45525000000000e-01 2.27642486071037e+00 2.36085030400175e-02
3.47916176470588e-01 2.25341010308967e+00 2.34505464636205e-02
3.50307352941176e-01 2.23062802567186e+00 2.32930965357803e-02
3.52698529411765e-01 2.20807627610753e+00 2.31361647024594e-02
3.55089705882353e-01 2.18575252571488e+00 2.29797619970944e-02
3.57480882352941e-01 2.16365446946808e+00 2.28238990488353e-02
3.59872058823529e-01 2.14177982553414e+00 2.26685860956251e-02
3.62263235294118e-01 2.12012633525879e+00 2.25138329919242e-02
3.64654411764706e-01 2.09869176271533e+00 2.23596492211612e-02
3.67045588235294e-01 2.07747389468816e+00 2.22060438914579e-02
3.69436764705882e-01 2.05647054028384e+00 2.20530257936995e-02
3.71827941176471e-01 2.03567953070975e+00 2.19006033393849e-02
3.74219117647059e-01 2.01509871919968e+00 2.17487846161037e-02
3.76610294117647e-01 1.99472598059308e+00 2.15975773862885e-02
3.79001470588235e-01 1.97455921131155e+00 2.14469890934215e-02
3.81392647058824e-01 1.95459632894880e+00 2.12970268725273e-02
3.83783823529412e-01 1.93483527224543e+00 2.11476975560040e-02
3.86175000000000e-01 1.91527400068928e+00 2.09990076836278e-02
3.88566176470588e-01 1.89591049448856e+00 2.08509635080295e-02
3.90957352941177e-01 1.87674275418240e+00 2.07035710042479e-02
3.93348529411765e-01 1.85776880061246e+00 2.05568358748692e-02
3.95739705882353e-01 1.83898667454323e+00 2.04107635591503e-02
3.98130882352941e-01 1.82039443663236e+00 2.02653592378455e-02
4.00522058823529e-01 1.80199016706049e+00 2.01206278419221e-02
4.02913235294118e-01 1.78377196550022e+00 1.99765740570971e-02
4.05304411764706e-01 1.76573795075535e+00 1.98332023321610e-02
4.07695588235294e-01 1.74788626072860e+00 1.96905168740440e-02
4.10086764705882e-01 1.73021505210812e+00 1.95485216926718e-02
4.12477941176471e-01 1.71272250018071e+00 1.94072205499214e-02
4.14869117647059e-01 1.69540679875675e+00 1.92666170025157e-02
4.17260294117647e-01 1.67826615983277e+00 1.91267143996731e-02
4.19651470588235e-01 1.66129881355547e+00 1.89875158867719e-02
4.22042647058824e-01 1.64450300789259e+00 1.88490244124568e-02
4.24433823529412e-01 1.62787700859614e+00 1.87112427320806e-02
4.26825000000000e-01 1.61141909888140e+00 1.85741734145057e-02
4.29216176470588e-01 1.59512757938941e+00 1.84378188453399e-02
4.31607352941177e-01 1.57900076787386e+00 1.83021812334459e-02
4.33998529411765e-01 1.56303699916294e+00 1.81672626139819e-02
4.36389705882353e-01 1.54723462485389e+00 1.80330648546371e-02
4.38780882352941e-01 1.53159201327430e+00 1.78995896584844e-02
4.41172058823529e-01 1.51610754918410e+00 1.77668385699573e-02
4.43563235294118e-01 1.50077963373634e+00 1.76348129775263e-02
4.45954411764706e-01 1.48560668418645e+00 1.75035141194277e-02
4.48345588235294e-01 1.47058713385260e+00 1.73729430787974e-02
4.50736764705882e-01 1.45571943186126e+00 1.72431008187619e-02
4.53127941176471e-01 1.44100204298971e+00 1.71139881406328e-02
4.55519117647059e-01 1.42643344759434e+00 1.69856057174825e-02
4.57910294117647e-01 1.41201214133811e+00 1.68579540914420e-02
4.60301470588235e-01 1.39773663514915e+00 1.67310336758608e-02
4.62692647058824e-01 1.38360545495476e+00 1.66048447602356e-02
4.65083823529412e-01 1.36961714163975e+00 1.64793875122347e-02
4.67475000000000e-01 1.35577025078689e+00 1.63546619824271e-02
4.69866176470588e-01 1.34206335263506e+00 1.62306681061818e-02
4.72257352941177e-01 1.32849503182588e+00 1.61074057082045e-02
4.74648529411765e-01 1.31506388736172e+00 1.59848745043159e-02
4.77039705882353e-01 1.30176853235845e+00 1.58630741058091e-02
4.79430882352941e-01 1.28860759400332e+00 1.57420040211145e-02
4.81822058823529e-01 1.27557971331358e+00 1.56216636599808e-02
4.84213235294118e-01 1.26268354509434e+00 1.55020523350343e-02
4.86604411764706e-01 1.24991775770290e+00 1.53831692657938e-02
4.88995588235294e-01 1.23728103300663e+00 1.52650135741839e-02
4.91386764705882e-01 1.22477206617548e+00 1.51475843122392e-02
4.93777941176471e-01 1.21238956554918e+00 1.50308804278861e-02
4.96169117647059e-01 1.20013225257094e+00 1.49149007914592e-02
4.98560294117647e-01 1.18799886156615e+00 1.47996441930065e-02
5.00951470588235e-01 1.17598813969968e+00 1.46851093435306e-02
5.03342647058824e-01 1.16409884675978e+00 1.45712948784647e-02
5.05733823529412e-01 1.15232975511554e+00 1.44581993588309e-02
5.08125000000000e-01 1.14067964950580e+00 1.43458212745830e-02
5.10516176470588e-01 1.12914732699679e+00 1.42341590456852e-02
5.12907352941177e-01 1.11773159677603e+00 1.41232110253231e-02
5.15298529411765e-01 1.10643128011003e+00 1.40129755009085e-02
5.17689705882353e-01 1.09524521014309e+00 1.39034506971675e-02
5.20080882352941e-01 1.08417223185519e+00 1.37946347770761e-02
5.22472058823529e-01 1.07321120186543e+00 1.36865258448257e-02
5.24863235294118e-01 1.06236098839018e+00 1.35791219466924e-02
5.27254411764706e-01 1.05162047105111e+00 1.34724210738903e-02
5.29645588235294e-01 1.04098854083351e+00 1.33664211585721e-02
5.32036764705882e-01 1.03046409991640e+00 1.32611200958515e-02
5.34427941176471e-01 1.02004606156063e+00 1.31565157157836e-02
5.36819117647059e-01 1.00973335004879e+00 1.30526058044502e-02
5.39210294117647e-01 9.99524900504771e-01 1.29493881014351e-02
5.41601470588235e-01 9.89419658852170e-01 1.28468603004958e-02
5.43992647058824e-01 9.79416581638048e-01 1.27450200520442e-02
5.46383823529412e-01 9.69514635991661e-01 1.26438649637663e-02
5.48775000000000e-01 9.59712799452251e-01 1.25433926030090e-02
5.51166176470588e-01 9.50010059928114e-01 1.24436004973501e-02
5.53557352941177e-01 9.40405415528357e-01 1.23444861368950e-02
5.55948529411765e-01 9.30897874522286e-01 1.22460469748004e-02
5.58339705882353e-01 9.21486455175048e-01 1.21482804294819e-02
5.60730882352941e-01 9.12170185707345e-01 1.20511838850965e-02
5.63122058823530e-01 9.02948104134860e-01 1.19547546936661e-02
5.65513235294118e-01 8.93819258228318e-01 1.18589901755166e-02
5.67904411764706e-01 8.84782705356595e-01 1.17638876213235e-02
5.70295588235294e-01 8.75837512447135e-01 1.16694442886132e-02
5.72686764705882e-01 8.66982755846386e-01 1.15756574193642e-02
5.75077941176471e-01 8.58217521225529e-01 1.14825242170438e-02
5.77469117647059e-01 8.49540903526832e-01 1.13900418634624e-02
5.79860294117647e-01 8.40952006815934e-01 1.12982075164879e-02
5.82251470588235e-01 8.32449944242843e-01 1.12070183103621e-02
5.84642647058824e-01 8.24033837897590e-01 1.11164713574834e-02
5.87033823529412e-01 8.15702818771625e-01 1.10265637486888e-02
5.89425000000000e-01 8.07456026616761e-01 1.09372925549714e-02
5.91816176470588e-01 7.99292609906959e-01 1.08486548277325e-02
5.94207352941177e-01 7.91211725700490e-01 1.07606476004336e-02
5.96598529411765e-01 7.83212539602122e-01 1.06732678888189e-02
5.98989705882353e-01 7.75294225628411e-01 1.05865126925059e-02
6.01380882352941e-01 7.67455966170299e-01 1.05003789951819e-02
6.03772058823529e-01 7.59696951861459e-01 1.04148637661343e-02
6.06163235294118e-01 7.52016381541307e-01 1.03299639604205e-02
6.08554411764706e-01 7.44413462126331e-01 1.02456765203409e-02
6.10945588235294e-01 7.36887408573516e-01 1.01619983724164e-02
6.13336764705882e-01 7.29437443765366e-01 1.00789264415168e-02
6.15727941176471e-01 7.22062798430511e-01 9.99645763201924e-03
6.18119117647059e-01 7.14762711096306e-01 9.91458884133783e-03
6.20510294117647e-01 7.07536427967561e-01 9.83331695789699e-03
6.22901470588235e-01 7.00383202890772e-01 9.75263886122519e-03
6.25292647058824e-01 6.93302297235580e-01 9.67255142324209e-03
6.27683823529412e-01 6.86292979859431e-01 9.59305150833085e-03
6.30075000000000e-01 6.79354526991712e-01 9.51413597457773e-03
6.32466176470588e-01 6.72486222198836e-01 9.43580167382641e-03
6.34857352941177e-01 6.65687356270984e-01 9.35804545287071e-03
6.37248529411765e-01 6.58957227187626e-01 9.28086415349026e-03
6.39639705882353e-01 6.52295140006803e-01 9.20425461360003e-03
6.42030882352941e-01 6.45700406831084e-01 9.12821366726882e-03
6.44422058823529e-01 6.39172346699330e-01 9.05273814582561e-03
6.46813235294118e-01 6.32710285553081e-01 8.97782487786251e-03
6.49204411764706e-01 6.26313556130753e-01 8.90347069029980e-03
6.51595588235294e-01 6.19981497934451e-01 8.82967240579258e-03
6.53986764705882e-01 6.13713457135040e-01 8.75642685410982e-03
6.56377941176471e-01 6.07508786505285e-01 8.68373085666059e-03
6.58769117647059e-01 6.01366845378298e-01 8.61158123738965e-03
6.61160294117647e-01 5.95286999547738e-01 8.53997482100479e-03
6.63551470588235e-01 5.89268621235522e-01 8.46890843293418e-03
6.65942647058824e-01 5.83311088994246e-01 8.39837890025563e-03
6.68333823529412e-01 5.77413787675336e-01 8.32838305164228e-03
6.70725000000000e-01 5.71576108333641e-01 8.25891771825754e-03
6.73116176470588e-01 5.65797448196020e-01 8.18997973368754e-03
6.75507352941177e-01 5.60077210568055e-01 8.12156593480384e-03
6.77898529411765e-01 5.54414804803071e-01 8.05367316168639e-03
6.80289705882353e-01 5.48809646210925e-01 7.98629825845290e-03
6.82680882352941e-01 5.43261156027449e-01 7.91943807317110e-03
6.85072058823530e-01 5.37768761325271e-01 7.85308945865783e-03
6.87463235294118e-01 5.32331894983685e-01 7.78724927238205e-03
6.89854411764706e-01 5.26949995601444e-01 7.72191437723402e-03
6.92245588235294e-01 5.21622507467062e-01 7.65708163931197e-03
6.94636764705882e-01 5.16348880480275e-01 7.59274793711363e-03
6.97027941176471e-01 5.11128570095745e-01 7.52891014881265e-03
6.99419117647059e-01 5.05961037286864e-01 7.46556516106037e-03
7.01810294117647e-01 5.00845748463433e-01 7.40270986744686e-03
7.04201470588235e-01 4.95782175442875e-01 7.34034116837786e-03
7.06592647058824e-01 4.90769795369730e-01 7.27845597174524e-03
7.08983823529412e-01 4.85808090687293e-01 7.21705119279678e-03
7.11375000000000e-01 4.80896549058888e-01 7.15612375478127e-03
7.13766176470588e-01 4.76034663339912e-01 7.09567058881167e-03
7.16157352941177e-01 4.71221931500851e-01 7.03568863448689e-03
7.18548529411765e-01 4.66457856599740e-01 6.97617483974828e-03
7.20939705882353e-01 4.61741946706867e-01 6.91712616147687e-03
7.23330882352941e-01 4.57073714877649e-01 6.85853956534524e-03
7.25722058823529e-01 4.52452679078991e-01 6.80041202639262e-03
7.28113235294118e-01 4.47878362162565e-01 6.74274052887064e-03
7.30504411764706e-01 4.43350291792793e-01 6.68552206679704e-03
7.32895588235294e-01 4.38868000420525e-01 6.62875364207360e-03
7.35286764705882e-01 4.34431025217958e-01 6.57243227192944e-03
7.37677941176471e-01 4.30038908031243e-01 6.51655497844629e-03
7.40069117647059e-01 4.25691195349101e-01 6.46111879568634e-03
7.42460294117647e-01 4.21387438234796e-01 6.40612076836517e-03
7.44851470588235e-01 4.17127192300702e-01 6.35155795168314e-03
7.47242647058824e-01 4.12910017641766e-01 6.29742741180763e-03
7.49633823529412e-01 4.08735478810468e-01 6.24372622570174e-03
7.52025000000000e-01 4.04603144751742e-01 6.19045148158734e-03
7.54416176470588e-01 4.00512588778317e-01 6.13760027877034e-03
