Energy (eV)          EEDF (eV^-(3/2))     First Anisotropy
3.81707317073171e-02 4.11240126731717e-02 2.40627540470971e-05
1.14512195121951e-01 4.07793795306863e-02 3.97014206586633e-05
1.90853658536585e-01 4.04376345299124e-02 5.23229566918609e-05
2.67195121951220e-01 4.00987534688129e-02 6.18585974785726e-05
3.43536585365854e-01 3.97627123449346e-02 6.97676668895913e-05
4.19878048780488e-01 3.94294873599083e-02 7.66031426562219e-05
4.96219512195122e-01 3.90990549132757e-02 8.26517952655738e-05
5.72560975609756e-01 3.87713916019864e-02 8.80871531557171e-05
6.48902439024390e-01 3.84464742203465e-02 9.30245370416017e-05
7.25243902439024e-01 3.81242797560269e-02 9.75456171878649e-05
8.01585365853658e-01 3.78047853905414e-02 1.01710970886095e-04
8.77926829268293e-01 3.74879684957219e-02 1.05567143867199e-04
9.54268292682927e-01 3.71738066338590e-02 1.09150911028752e-04
1.03060975609756e+00 3.68622775548344e-02 1.12491991729973e-04
1.10695121951220e+00 3.65533591941320e-02 1.15614856699546e-04
1.18329268292683e+00 3.62470296748042e-02 1.18539975258687e-04
1.25963414634146e+00 3.59432673012945e-02 1.21284701955661e-04
1.33597560975610e+00 3.56420505577036e-02 1.23863921589340e-04
1.41231707317073e+00 3.53433581131291e-02 1.26290531331827e-04
1.48865853658537e+00 3.50471688129655e-02 1.28575807005304e-04
1.56500000000000e+00 3.47534616780766e-02 1.30729684068911e-04
1.64134146341463e+00 3.44622159090044e-02 1.32760979744538e-04
1.71768292682927e+00 3.41734108768742e-02 1.34677568510691e-04
1.79402439024390e+00 3.38870261292617e-02 1.36486523037906e-04
1.87036585365854e+00 3.36030413832826e-02 1.38194229632917e-04
1.94670731707317e+00 3.33214365245835e-02 1.39806481080897e-04
2.02304878048780e+00 3.30421916104195e-02 1.41328555022895e-04
2.09939024390244e+00 3.27652868635925e-02 1.42765279360718e-04
2.17573170731707e+00 3.24907026713876e-02 1.44121085703692e-04
2.25207317073171e+00 3.22184195880853e-02 1.45400056039729e-04
2.32841463414634e+00 3.19484183295621e-02 1.46605962500062e-04
2.40475609756098e+00 3.16806797721973e-02 1.47742300019427e-04
2.48109756097561e+00 3.14151849549419e-02 1.48812315814074e-04
2.55743902439024e+00 3.11519150744512e-02 1.49819034918921e-04
2.63378048780488e+00 3.08908514839783e-02 1.50765281099461e-04
2.71012195121951e+00 3.06319756950876e-02 1.51653696384408e-04
2.78646341463415e+00 3.03752693732248e-02 1.52486758218788e-04
2.86280487804878e+00 3.01207143366080e-02 1.53266793359899e-04
2.93914634146341e+00 2.98682925576518e-02 1.53995991346695e-04
3.01548780487805e+00 2.96179861589034e-02 1.54676416462855e-04
3.09182926829268e+00 2.93697774119392e-02 1.55310017249784e-04
3.16817073170732e+00 2.91236487385489e-02 1.55898636114552e-04
3.24451219512195e+00 2.88795827069845e-02 1.56444017945130e-04
3.32085365853659e+00 2.86375620308664e-02 1.56947816780876e-04
3.39719512195122e+00 2.83975695701668e-02 1.57411602868474e-04
3.47353658536585e+00 2.81595883277313e-02 1.57836869041179e-04
3.54987804878049e+00 2.79236014481938e-02 1.58225035486701e-04
3.62621951219512e+00 2.76895922187940e-02 1.58577455061935e-04
3.70256097560976e+00 2.74575440661353e-02 1.58895418133265e-04
3.77890243902439e+00 2.72274405551126e-02 1.59180156036184e-04
3.85524390243902e+00 2.69992653895880e-02 1.59432845169170e-04
3.93158536585366e+00 2.67730024093576e-02 1.59654610746305e-04
4.00792682926829e+00 2.65486355890939e-02 1.59846529336376e-04
4.08426829268293e+00 2.63261490389006e-02 1.60009632079832e-04
4.16060975609756e+00 2.61055270014646e-02 1.60144907654579e-04
4.23695121951220e+00 2.58867538510152e-02 1.60253304154418e-04
4.31329268292683e+00 2.56698140937747e-02 1.60335731662431e-04
4.38963414634146e+00 2.54546923652758e-02 1.60393064635730e-04
4.46597560975610e+00 2.52413734293394e-02 1.60426143301516e-04
4.54231707317073e+00 2.50298421784349e-02 1.60435775748985e-04
4.61865853658537e+00 2.48200836311464e-02 1.60422739876946e-04
4.69500000000000e+00 2.46120829311703e-02 1.60387784432394e-04
4.77134146341463e+00 2.44058253475967e-02 1.60331630817686e-04
4.84768292682927e+00 2.42012962720893e-02 1.60254974375884e-04
4.92402439024390e+00 2.39984812195942e-02 1.60158485570623e-04
5.00036585365854e+00 2.37973658260100e-02 1.60042811510141e-04
5.07670731707317e+00 2.35979358472192e-02 1.59908576569802e-04
5.15304878048781e+00 2.34001771592743e-02 1.59756383683466e-04
5.22939024390244e+00 2.32040757561844e-02 1.59586815557448e-04
5.30573170731707e+00 2.30096177489685e-02 1.59400435123097e-04
5.38207317073171e+00 2.28167893657848e-02 1.59197786637714e-04
5.45841463414634e+00 2.26255769498247e-02 1.58979396722190e-04
5.53475609756098e+00 2.24359669583883e-02 1.58745774682678e-04
5.61109756097561e+00 2.22479459629625e-02 1.58497413458841e-04
5.68743902439024e+00 2.20615006472162e-02 1.58234790519645e-04
5.76378048780488e+00 2.18766178060951e-02 1.57958368083464e-04
5.84012195121951e+00 2.16932843458576e-02 1.57668593942556e-04
5.91646341463415e+00 2.15114872821610e-02 1.57365902243461e-04
5.99280487804878e+00 2.13312137391779e-02 1.57050713627835e-04
6.06914634146341e+00 2.11524509495931e-02 1.56723435955460e-04
6.14548780487805e+00 2.09751862527758e-02 1.56384464989794e-04
6.22182926829268e+00 2.07994070939161e-02 1.56034184476665e-04
6.29817073170732e+00 2.06251010239882e-02 1.55672966783270e-04
6.37451219512195e+00 2.04522556980028e-02 1.55301173505007e-04
6.45085365853659e+00 2.02808588741631e-02 1.54919155495314e-04
6.52719512195122e+00 2.01108984137988e-02 1.54527253434399e-04
6.60353658536585e+00 1.99423622796928e-02 1.54125798370217e-04
6.67987804878049e+00 1.97752385352567e-02 1.53715111709835e-04
6.75621951219512e+00 1.96095153444390e-02 1.53295505728782e-04
6.83256097560976e+00 1.94451809701218e-02 1.52867284056526e-04
6.90890243902439e+00 1.92822237733152e-02 1.52430741637469e-04
6.98524390243902e+00 1.91206322130428e-02 1.51986165189852e-04
7.06158536585366e+00 1.89603948448041e-02 1.51533833643953e-04
7.13792682926829e+00 1.88015003197875e-02 1.51074018079194e-04
7.21426829268293e+00 1.86439373847359e-02 1.50606982139822e-04
7.29060975609756e+00 1.84876948804711e-02 1.50132982432554e-04
7.36695121951220e+00 1.83327617411246e-02 1.49652268444981e-04
7.44329268292683e+00 1.81791269939863e-02 1.49165082923938e-04
7.51963414634146e+00 1.80267797580868e-02 1.48671662238087e-04
7.59597560975610e+00 1.78757092434461e-02 1.48172236281743e-04
7.67231707317073e+00 1.77259047509075e-02 1.47667028820869e-04
7.74865853658537e+00 1.75773556707742e-02 1.47156257825185e-04
7.82500000000000e+00 1.74300514820762e-02 1.46640135360691e-04
7.90134146341463e+00 1.72839817523905e-02 1.46118867952465e-04
7.97768292682927e+00 1.71391361363491e-02 1.45592656709370e-04
8.05402439024390e+00 1.69955043756484e-02 1.45061697433770e-04
8.13036585365854e+00 1.68530762977671e-02 1.44526180960036e-04
8.20670731707317e+00 1.67118418152619e-02 1.43986293031979e-04
8.28304878048781e+00 1.65717909255730e-02 1.43442214581896e-04
8.35939024390244e+00 1.64329137097895e-02 1.42894121999118e-04
8.43573170731707e+00 1.62952003319620e-02 1.42342187002343e-04
8.51207317073171e+00 1.61586410388988e-02 1.41786576898440e-04
8.58841463414634e+00 1.60232261589768e-02 1.41227454831585e-04
8.66475609756097e+00 1.58889461014700e-02 1.40664979652046e-04
8.74109756097561e+00 1.57557913563386e-02 1.40099306156941e-04
8.81743902439024e+00 1.56237524930817e-02 1.39530585322016e-04
8.89378048780488e+00 1.54928201600831e-02 1.38958964168156e-04
8.97012195121951e+00 1.53629850843929e-02 1.38384585985955e-04
9.04646341463415e+00 1.52342380706213e-02 1.37807590551953e-04
9.12280487804878e+00 1.51065700003002e-02 1.37228113993862e-04
9.19914634146341e+00 1.49799718316590e-02 1.36646289000557e-04
9.27548780487805e+00 1.48544345985575e-02 1.36062245024324e-04
9.35182926829268e+00 1.47299494098629e-02 1.35476108145629e-04
9.42817073170732e+00 1.46065074492207e-02 1.34888001269945e-04
9.50451219512195e+00 1.44840999740247e-02 1.34298044317343e-04
9.58085365853658e+00 1.43627183148095e-02 1.33706354087469e-04
9.65719512195122e+00 1.42423538750172e-02 1.33113044444393e-04
9.73353658536585e+00 1.41229981300029e-02 1.32518226494757e-04
9.80987804878049e+00 1.40046426264416e-02 1.31922008453518e-04
9.88621951219512e+00 1.38872789820927e-02 1.31324495817832e-04
9.96256097560976e+00 1.37708988848385e-02 1.30725791502900e-04
1.00389024390244e+01 1.36554940922203e-02 1.30125995932232e-04
1.01152439024390e+01 1.35410564304017e-02 1.29525206566139e-04
1.01915853658537e+01 1.34275777956233e-02 1.28923518909569e-04
1.02679268292683e+01 1.33150501498018e-02 1.28321026204828e-04
1.03442682926829e+01 1.32034655233363e-02 1.27717818411148e-04
1.04206097560976e+01 1.30928160144792e-02 1.27113984138605e-04
1.04969512195122e+01 1.29830937855655e-02 1.26509609773202e-04
1.05732926829268e+01 1.28742910656846e-02 1.25904778616585e-04
1.06496341463415e+01 1.27664001500649e-02 1.25299572751390e-04
1.07259756097561e+01 1.26594133964619e-02 1.24694071908086e-04
1.08023170731707e+01 1.25533232286811e-02 1.24088353770819e-04
1.08786585365854e+01 1.24481221320502e-02 1.23482494355016e-04
1.09550000000000e+01 1.23438026558598e-02 1.22876566894421e-04
1.10313414634146e+01 1.22403574127785e-02 1.22270643588813e-04
1.11076829268293e+01 1.21377790755000e-02 1.21664794804324e-04
1.11840243902439e+01 1.20360603790677e-02 1.21059088286623e-04
1.12603658536585e+01 1.19351941203055e-02 1.20453590848110e-04
1.13367073170732e+01 1.18351731546005e-02 1.19848367334551e-04
1.14130487804878e+01 1.17359903989846e-02 1.19243480897501e-04
1.14893902439024e+01 1.16376388281072e-02 1.18638993331276e-04
1.15657317073171e+01 1.15401114763663e-02 1.18034964057968e-04
1.16420731707317e+01 1.14434014373634e-02 1.17431451710678e-04
1.17184146341463e+01 1.13475018609123e-02 1.16828513401874e-04
1.17947560975610e+01 1.12524059550686e-02 1.16226204004162e-04
1.18710975609756e+01 1.11581069856023e-02 1.15624577679714e-04
1.19474390243902e+01 1.10645982731230e-02 1.15023687171698e-04
1.20237804878049e+01 1.09718731950158e-02 1.14423583107187e-04
1.21001219512195e+01 1.08799251849270e-02 1.13824315474970e-04
1.21764634146341e+01 1.07887477300029e-02 1.13225932711250e-04
1.22528048780488e+01 1.06983343734722e-02 1.12628481934888e-04
1.23291463414634e+01 1.06086787111964e-02 1.12032009238568e-04
1.24054878048780e+01 1.05197743934469e-02 1.11436558790731e-04
1.24818292682927e+01 1.04316151244139e-02 1.10842174224709e-04
1.25581707317073e+01 1.03441946596321e-02 1.10248897990317e-04
1.26345121951220e+01 1.02575068076769e-02 1.09656770716021e-04
1.27108536585366e+01 1.01715454296872e-02 1.09065832551972e-04
1.27871951219512e+01 1.00863044368893e-02 1.08476122541757e-04
1.28635365853659e+01 1.00017777922168e-02 1.07887678004392e-04
1.29398780487805e+01 9.91795950984463e-03 1.07300535832969e-04
1.30162195121951e+01 9.83484365280839e-03 1.06714731684822e-04
1.30925609756098e+01 9.75242433517903e-03 1.06130300185938e-04
1.31689024390244e+01 9.67069571909295e-03 1.05547275184054e-04
1.32452439024390e+01 9.58965201624234e-03 1.04965688953109e-04
1.33215853658537e+01 9.50928748743003e-03 1.04385573415751e-04
1.33979268292683e+01 9.42959644034562e-03 1.03806959568031e-04
1.34742682926829e+01 9.35057323098870e-03 1.03229876913548e-04
1.35506097560976e+01 9.27221226323624e-03 1.02654354646125e-04
1.36269512195122e+01 9.19450798670134e-03 1.02080421092096e-04
1.37032926829268e+01 9.11745489809406e-03 1.01508103162116e-04
1.37796341463415e+01 9.04104754079867e-03 1.00937427495416e-04
1.38559756097561e+01 8.96528050281303e-03 1.00368419741626e-04
1.39323170731707e+01 8.89014841858688e-03 9.98011047393217e-05
1.40086585365854e+01 8.81564596645510e-03 9.92355067370464e-05
1.40850000000000e+01 8.74176786989169e-03 9.86716486877315e-05
1.41613414634146e+01 8.66850889710661e-03 9.81095533272240e-05
1.42376829268293e+01 8.59586385911665e-03 9.75492426633871e-05
1.43140243902439e+01 8.52382761094428e-03 9.69907374736237e-05
1.43903658536585e+01 8.45239505122517e-03 9.64340583488169e-05
1.44667073170732e+01 8.38156112034948e-03 9.58792250360176e-05
1.45430487804878e+01 8.31132080208986e-03 9.53262566001738e-05
1.46193902439024e+01 8.24166912129043e-03 9.47751716243970e-05
1.46957317073171e+01 8.17260114497391e-03 9.42259875640558e-05
1.47720731707317e+01 8.10411198196540e-03 9.36787217315827e-05
1.48484146341463e+01 8.03619678115114e-03 9.31333908278685e-05
1.49247560975610e+01 7.96885073253704e-03 9.25900104816661e-05
1.50010975609756e+01 7.90206906688329e-03 9.20485962031525e-05
1.50774390243902e+01 7.83584705402518e-03 9.15091629297633e-05
1.51537804878049e+01 7.77018000388623e-03 9.09717245795238e-05
1.52301219512195e+01 7.70506326612191e-03 9.04362949744804e-05
1.53064634146341e+01 7.64049222850073e-03 8.99028872565481e-05
1.53828048780488e+01 7.57646231828880e-03 8.93715140296836e-05
1.54591463414634e+01 7.51296900024049e-03 8.88421875358631e-05
1.55354878048780e+01 7.45000777753507e-03 8.83149190809861e-05
1.56118292682927e+01 7.38757419143562e-03 8.77897199068037e-05
1.56881707317073e+01 7.32566381976999e-03 8.72666007741303e-05
1.57645121951220e+01 7.26427227782694e-03 8.67455715529625e-05
1.58408536585366e+01 7.20339521802475e-03 8.62266420670996e-05
1.59171951219512e+01 7.14302832844516e-03 8.57098216900325e-05
1.59935365853659e+01 7.08316733369200e-03 8.51951189474930e-05
1.60698780487805e+01 7.02380799456753e-03 8.46825423357005e-05
1.61462195121951e+01 6.96494610665841e-03 8.41720998017108e-05
1.62225609756098e+01 6.90657750151644e-03 8.36637988687419e-05
1.62989024390244e+01 6.84869804490650e-03 8.31576467912169e-05
1.63752439024390e+01 6.79130363760102e-03 8.26536500439526e-05
1.64515853658537e+01 6.73439021507054e-03 8.21518150954376e-05
1.65279268292683e+01 6.67795374615479e-03 8.16521480366965e-05
1.66042682926829e+01 6.62199023382350e-03 8.11546542163095e-05
1.66806097560976e+01 6.56649571487533e-03 8.06593389897486e-05
1.67569512195122e+01 6.51146625865472e-03 8.01662073593340e-05
1.68332926829268e+01 6.45689796778119e-03 7.96752636203321e-05
1.69096341463415e+01 6.40278697785534e-03 7.91865120871423e-05
1.69859756097561e+01 6.34912945622045e-03 7.86999566305216e-05
1.70623170731707e+01 6.29592160297195e-03 7.82156007883116e-05
1.71386585365854e+01 6.24315964942576e-03 7.77334479023656e-05
1.72150000000000e+01 6.19083985879371e-03 7.72535006635767e-05
1.72913414634146e+01 6.13895852590267e-03 7.67757617986911e-05
1.73676829268293e+01 6.08751197602901e-03 7.63002337395103e-05
1.74440243902439e+01 6.03649656554606e-03 7.58269182975701e-05
1.75203658536585e+01 5.98590868165042e-03 7.53558173299272e-05
1.75967073170732e+01 5.93574474123615e-03 7.48869323141701e-05
1.76730487804878e+01 5.88600119179578e-03 7.44202644494879e-05
1.77493902439024e+01 5.83667451003027e-03 7.39558147816810e-05
1.78257317073171e+01 5.78776120244959e-03 7.34935837852833e-05
1.79020731707317e+01 5.73925780511029e-03 7.30335719935549e-05
1.79784146341463e+01 5.69116088255576e-03 7.25757796942510e-05
1.80547560975610e+01 5.64346702839162e-03 7.21202066305666e-05
1.81310975609756e+01 5.59617286503066e-03 7.16668526119546e-05
1.82074390243902e+01 5.54927504266839e-03 7.12157172190289e-05
1.82837804878049e+01 5.50277023983499e-03 7.07667995133352e-05
1.83601219512195e+01 5.45665516314656e-03 7.03200986296364e-05
1.84364634146341e+01 5.41092654631516e-03 6.98756133968189e-05
1.85128048780488e+01 5.36558115092214e-03 6.94333424274810e-05
1.85891463414634e+01 5.32061576519812e-03 6.89932842286894e-05
1.86654878048780e+01 5.27602720453529e-03 6.85554368291617e-05
1.87418292682927e+01 5.23181231124909e-03 6.81197983400534e-05
1.88181707317073e+01 5.18796795364525e-03 6.76863666834317e-05
1.88945121951220e+01 5.14449102651096e-03 6.72551393252389e-05
1.89708536585366e+01 5.10137845088307e-03 6.68261138191704e-05
1.90471951219512e+01 5.05862717314582e-03 6.63992875431956e-05
1.91235365853659e+01 5.01623416550229e-03 6.59746574404315e-05
1.91998780487805e+01 4.97419642574813e-03 6.55522205466583e-05
1.92762195121951e+01 4.93251097639941e-03 6.51319736518351e-05
1.93525609756098e+01 4.89117486535765e-03 6.47139133796666e-05
1.94289024390244e+01 4.85018516483677e-03 6.42980362858924e-05
1.95052439024390e+01 4.80953897180092e-03 6.38843385253616e-05
1.95815853658537e+01 4.76923340774789e-03 6.34728163517850e-05
1.96579268292683e+01 4.72926561788628e-03 6.30634658751439e-05
1.97342682926829e+01 4.68963277155548e-03 6.26562828231296e-05
1.98106097560976e+01 4.65033206201482e-03 6.22512630259383e-05
1.98869512195122e+01 4.61136070564755e-03 6.18484021807685e-05
1.99632926829268e+01 4.57271594236410e-03 6.14476956203321e-05
2.00396341463415e+01 4.53439503539626e-03 6.10491387831522e-05
2.01159756097561e+01 4.49639527052741e-03 6.06527269111194e-05
2.01923170731707e+01 4.45871395666533e-03 6.02584551202328e-05
2.02686585365854e+01 4.42134842489687e-03 5.98663184879355e-05
2.03450000000000e+01 4.38429602886252e-03 5.94763117556028e-05
2.04213414634146e+01 4.34755414455960e-03 5.90884297743289e-05
2.04976829268293e+01 4.31112016961529e-03 5.87026672880382e-05
2.05740243902439e+01 4.27499152364621e-03 5.83190187201889e-05
2.06503658536585e+01 4.23916564806663e-03 5.79374786063182e-05
2.07267073170732e+01 4.20364000538502e-03 5.75580413156024e-05
2.08030487804878e+01 4.16841207971787e-03 5.71807011157052e-05
2.08793902439024e+01 4.13347937592716e-03 5.68054522528462e-05
2.09557317073171e+01 4.09883941995492e-03 5.64322886778690e-05
2.10320731707317e+01 4.06448975863927e-03 5.60612044563802e-05
2.11084146341463e+01 4.03042795904999e-03 5.56921935688311e-05
2.11847560975610e+01 3.99665160880950e-03 5.53252497140025e-05
2.12610975609756e+01 3.96315831591393e-03 5.49603667070106e-05
2.13374390243902e+01 3.92994570808979e-03 5.45975382852538e-05
2.14137804878049e+01 3.89701143310232e-03 5.42367579175903e-05
2.14901219512195e+01 3.86435315858090e-03 5.38780191906006e-05
2.15664634146341e+01 3.83196857139648e-03 5.35213155594469e-05
2.16428048780488e+01 3.79985537810535e-03 5.31666404056681e-05
2.17191463414634e+01 3.76801130418700e-03 5.28139871084757e-05
2.17954878048781e+01 3.73643409433112e-03 5.24633487996216e-05
2.18718292682927e+01 3.70512151227022e-03 5.21147187298256e-05
2.19481707317073e+01 3.67407134019115e-03 5.17680900898398e-05
2.20245121951220e+01 3.64328137901042e-03 5.14234558344931e-05
2.21008536585366e+01 3.61274944821143e-03 5.10808090383467e-05
2.21771951219512e+01 3.58247338527443e-03 5.07401427219619e-05
2.22535365853659e+01 3.55245104594113e-03 5.04014496810448e-05
2.23298780487805e+01 3.52268030405589e-03 5.00647228316747e-05
2.24062195121951e+01 3.49315905101378e-03 4.97299549872458e-05
2.24825609756098e+01 3.46388519614446e-03 4.93971389099965e-05
2.25589024390244e+01 3.43485666603778e-03 4.90662673745750e-05
2.26352439024390e+01 3.40607140479014e-03 4.87373329485417e-05
2.27115853658537e+01 3.37752737385233e-03 4.84103283199849e-05
2.27879268292683e+01 3.34922255150743e-03 4.80852461372507e-05
2.28642682926829e+01 3.32115493310733e-03 4.77620788513333e-05
2.29406097560976e+01 3.29332253092457e-03 4.74408190339237e-05
2.30169512195122e+01 3.26572337364660e-03 4.71214592217339e-05
2.30932926829268e+01 3.23835550660307e-03 4.68039917634634e-05
2.31696341463415e+01 3.21121699162124e-03 4.64884091285688e-05
2.32459756097561e+01 3.18430590653624e-03 4.61747037074324e-05
2.33223170731707e+01 3.15762034552332e-03 4.58628678573580e-05
2.33986585365854e+01 3.13115841850044e-03 4.55528939592805e-05
2.34750000000000e+01 3.10491825133986e-03 4.52447742211023e-05
2.35513414634146e+01 3.07889798572981e-03 4.49385009708283e-05
2.36276829268293e+01 3.05309577871072e-03 4.46340665129243e-05
2.37040243902439e+01 3.02750980287855e-03 4.43314629870512e-05
2.37803658536585e+01 3.00213824624996e-03 4.40306826526866e-05
2.38567073170732e+01 2.97697931181298e-03 4.37317177047866e-05
2.39330487804878e+01 2.95203121782616e-03 4.34345603160806e-05
2.40093902439024e+01 2.92729219727135e-03 4.31392026892074e-05
2.40857317073171e+01 2.90276049804320e-03 4.28456368752839e-05
