Energy (eV)          EEDF (eV^-(3/2))     First Anisotropy
1.35500000000000e-02 5.69101342738356e-01 4.71695521549627e-04
4.06500000000000e-02 5.59356337054517e-01 7.74839459409071e-04
6.77500000000000e-02 5.49778199955928e-01 1.01216608787617e-03
9.48500000000000e-02 5.40364074068508e-01 1.18607840068343e-03
1.21950000000000e-01 5.31111150946578e-01 1.32593230269000e-03
1.49050000000000e-01 5.22016670234898e-01 1.44300408836396e-03
1.76150000000000e-01 5.13077918845173e-01 1.54321731987032e-03
2.03250000000000e-01 5.04292230146672e-01 1.63020114981314e-03
2.30350000000000e-01 4.95656983170712e-01 1.70639653689251e-03
2.57450000000000e-01 4.87169601828762e-01 1.77355241383397e-03
2.84550000000000e-01 4.78827554143940e-01 1.83298068987152e-03
3.11650000000000e-01 4.70628351495661e-01 1.88570036338135e-03
3.38750000000000e-01 4.62569547877235e-01 1.93252491182683e-03
3.65850000000000e-01 4.54648739166158e-01 1.97411825833785e-03
3.92950000000000e-01 4.46863562406916e-01 2.01103221371806e-03
4.20050000000000e-01 4.39211695106057e-01 2.04373243829696e-03
4.47150000000000e-01 4.31690854539342e-01 2.07261699046323e-03
4.74250000000000e-01 4.24298797070756e-01 2.09802991996835e-03
5.01350000000000e-01 4.17033317483181e-01 2.12027145023132e-03
5.28450000000000e-01 4.09892248320527e-01 2.13960575231062e-03
5.55550000000000e-01 4.02873459241138e-01 2.15626698042380e-03
5.82650000000000e-01 3.95974856382257e-01 2.17046402786967e-03
6.09750000000000e-01 3.89194381735381e-01 2.18238432465647e-03
6.36850000000000e-01 3.82530012532314e-01 2.19219690627074e-03
6.63950000000000e-01 3.75979760641723e-01 2.20005492031829e-03
6.91050000000000e-01 3.69541671976042e-01 2.20609769412966e-03
7.18150000000000e-01 3.63213825908517e-01 2.21045245551698e-03
7.45250000000000e-01 3.56994334700243e-01 2.21323577662781e-03
7.72350000000000e-01 3.50881342937008e-01 2.21455479460172e-03
7.99450000000000e-01 3.44873026975783e-01 2.21450825072083e-03
8.26550000000000e-01 3.38967594400684e-01 2.21318738074647e-03
8.53650000000000e-01 3.33163283488258e-01 2.21067668231654e-03
8.80750000000000e-01 3.27458362681921e-01 2.20705458006196e-03
9.07850000000000e-01 3.21851130075394e-01 2.20239400506780e-03
9.34950000000000e-01 3.16339912904985e-01 2.19676290216024e-03
9.62050000000000e-01 3.10923067050571e-01 2.19022467602861e-03
9.89150000000000e-01 3.05598976545114e-01 2.18283858523061e-03
1.01625000000000e+00 3.00366053092584e-01 2.17466009156526e-03
1.04335000000000e+00 2.95222735594138e-01 2.16574117103903e-03
1.07045000000000e+00 2.90167489682402e-01 2.15613059163300e-03
1.09755000000000e+00 2.85198807263741e-01 2.14587416224945e-03
1.12465000000000e+00 2.80315206068357e-01 2.13501495653757e-03
1.15175000000000e+00 2.75515229208097e-01 2.12359351473838e-03
1.17885000000000e+00 2.70797444741829e-01 2.11164802622666e-03
1.20595000000000e+00 2.66160445248261e-01 2.09921449504235e-03
1.23305000000000e+00 2.61602847406078e-01 2.08632689038167e-03
1.26015000000000e+00 2.57123291581265e-01 2.07301728374867e-03
1.28725000000000e+00 2.52720441421495e-01 2.05931597423945e-03
1.31435000000000e+00 2.48392983457470e-01 2.04525160323878e-03
1.34145000000000e+00 2.44139626711079e-01 2.03085125964483e-03
1.36855000000000e+00 2.39959102310274e-01 2.01614057659763e-03
1.39565000000000e+00 2.35850163110532e-01 2.00114382056753e-03
1.42275000000000e+00 2.31811583322809e-01 1.98588397355675e-03
1.44985000000000e+00 2.27842158147856e-01 1.97038280907880e-03
1.47695000000000e+00 2.23940703416804e-01 1.95466096250349e-03
1.50405000000000e+00 2.20106055237893e-01 1.93873799628922e-03
1.53115000000000e+00 2.16337069649265e-01 1.92263246056608e-03
1.55825000000000e+00 2.12632622277688e-01 1.90636194948322e-03
1.58535000000000e+00 2.08991608003135e-01 1.88994315368966e-03
1.61245000000000e+00 2.05412940629097e-01 1.87339190927915e-03
1.63955000000000e+00 2.01895552558551e-01 1.85672324349564e-03
1.66665000000000e+00 1.98438394475467e-01 1.83995141746613e-03
1.69375000000000e+00 1.95040435031779e-01 1.82308996620117e-03
1.72085000000000e+00 1.91700660539705e-01 1.80615173607996e-03
1.74795000000000e+00 1.88418074669345e-01 1.78914892001604e-03
1.77505000000000e+00 1.85191698151451e-01 1.77209309048133e-03
1.80215000000000e+00 1.82020568485291e-01 1.75499523054997e-03
1.82925000000000e+00 1.78903739651512e-01 1.73786576310848e-03
1.85635000000000e+00 1.75840281829920e-01 1.72071457836566e-03
1.88345000000000e+00 1.72829281122098e-01 1.70355105978406e-03
1.91055000000000e+00 1.69869839278765e-01 1.68638410854448e-03
1.93765000000000e+00 1.66961073431809e-01 1.66922216664487e-03
1.96475000000000e+00 1.64102115830910e-01 1.65207323872722e-03
1.99185000000000e+00 1.61292113584667e-01 1.63494491271792e-03
2.01895000000000e+00 1.58530228406166e-01 1.61784437935988e-03
2.04605000000000e+00 1.55815636362894e-01 1.60077845070911e-03
2.07315000000000e+00 1.53147527630947e-01 1.58375357766222e-03
2.10025000000000e+00 1.50525106253439e-01 1.56677586657611e-03
2.12735000000000e+00 1.47947589903047e-01 1.54985109503678e-03
2.15445000000000e+00 1.45414209648632e-01 1.53298472682965e-03
2.18155000000000e+00 1.42924209725845e-01 1.51618192615981e-03
2.20865000000000e+00 1.40476847311665e-01 1.49944757116733e-03
2.23575000000000e+00 1.38071392302800e-01 1.48278626677916e-03
2.26285000000000e+00 1.35707127097880e-01 1.46620235693676e-03
2.28995000000000e+00 1.33383346383382e-01 1.44969993623503e-03
2.31705000000000e+00 1.31099356923217e-01 1.43328286100624e-03
2.34415000000000e+00 1.28854477351921e-01 1.41695475988040e-03
2.37125000000000e+00 1.26648037971393e-01 1.40071904385069e-03
2.39835000000000e+00 1.24479380551105e-01 1.38457891587160e-03
2.42545000000000e+00 1.22347858131736e-01 1.36853738001492e-03
2.45255000000000e+00 1.20252834832174e-01 1.35259725020733e-03
2.47965000000000e+00 1.18193685659816e-01 1.33676115857185e-03
2.50675000000000e+00 1.16169796324117e-01 1.32103156339388e-03
2.53385000000000e+00 1.14180563053337e-01 1.30541075673140e-03
2.56095000000000e+00 1.12225392414418e-01 1.28990087168735e-03
2.58805000000000e+00 1.10303701135953e-01 1.27450388936195e-03
2.61515000000000e+00 1.08414915934181e-01 1.25922164550027e-03
2.64225000000000e+00 1.06558473341965e-01 1.24405583685091e-03
2.66935000000000e+00 1.04733819540696e-01 1.22900802724971e-03
2.69645000000000e+00 1.02940410195078e-01 1.21407965344190e-03
2.72355000000000e+00 1.01177710290737e-01 1.19927203065556e-03
2.75065000000000e+00 9.94451939746182e-02 1.18458635793808e-03
2.77775000000000e+00 9.77423443981105e-02 1.17002372326709e-03
2.80485000000000e+00 9.60686535628583e-02 1.15558510844638e-03
2.83195000000000e+00 9.44236221692151e-02 1.14127139379674e-03
2.85905000000000e+00 9.28067594672910e-02 1.12708336265136e-03
2.88615000000000e+00 9.12175831105505e-02 1.11302170566488e-03
2.91325000000000e+00 8.96556190119184e-02 1.09908702494419e-03
2.94035000000000e+00 8.81204012023483e-02 1.08527983800950e-03
2.96745000000000e+00 8.66114716918140e-02 1.07160058159287e-03
2.99455000000000e+00 8.51283803326805e-02 1.05804961528165e-03
3.02165000000000e+00 8.36706846854149e-02 1.04462722501380e-03
3.04875000000000e+00 8.22379498865966e-02 1.03133362643121e-03
3.07585000000000e+00 8.08297485191883e-02 1.01816896809750e-03
3.10295000000000e+00 7.94456604850270e-02 1.00513333458615e-03
3.13005000000000e+00 7.80852728794999e-02 9.92226749444344e-04
3.15715000000000e+00 7.67481798683658e-02 9.79449178037982e-04
3.18425000000000e+00 7.54339825666848e-02 9.66800530282864e-04
3.21135000000000e+00 7.41422889198229e-02 9.54280663266785e-04
3.23845000000000e+00 7.28727135864925e-02 9.41889383767202e-04
3.26555000000000e+00 7.16248778237970e-02 9.29626450668670e-04
3.29265000000000e+00 7.03984093742428e-02 9.17491577284349e-04
3.31975000000000e+00 6.91929423546869e-02 9.05484433585458e-04
3.34685000000000e+00 6.80081171471855e-02 8.93604648342397e-04
3.37395000000000e+00 6.68435802917118e-02 8.81851811181273e-04
3.40105000000000e+00 6.56989843807114e-02 8.70225474559042e-04
3.42815000000000e+00 6.45739879554621e-02 8.58725155660748e-04
3.45525000000000e+00 6.34682554042095e-02 8.47350338221806e-04
3.48235000000000e+00 6.23814568620464e-02 8.36100474278420e-04
3.50945000000000e+00 6.13132681125069e-02 8.24974985849086e-04
3.53655000000000e+00 6.02633704908448e-02 8.13973266549629e-04
3.56365000000000e+00 5.92314507889691e-02 8.03094683144607e-04
3.59075000000000e+00 5.82172011620070e-02 7.92338577037549e-04
3.61785000000000e+00 5.72203190364667e-02 7.81704265702319e-04
3.64495000000000e+00 5.62405070199730e-02 7.71191044057950e-04
3.67205000000000e+00 5.52774728125483e-02 7.60798185789180e-04
3.69915000000000e+00 5.43309291194133e-02 7.50524944614716e-04
3.72625000000000e+00 5.34005935652801e-02 7.40370555505270e-04
3.75335000000000e+00 5.24861886101134e-02 7.30334235853246e-04
3.78045000000000e+00 5.15874414663345e-02 7.20415186595959e-04
3.80755000000000e+00 5.07040840174417e-02 7.10612593294209e-04
3.83465000000000e+00 4.98358527380262e-02 7.00925627167770e-04
3.86175000000000e+00 4.89824886151556e-02 6.91353446089527e-04
3.88885000000000e+00 4.81437370711052e-02 6.81895195539801e-04
3.91595000000000e+00 4.73193478874112e-02 6.72550009522332e-04
3.94305000000000e+00 4.65090751302253e-02 6.63317011443384e-04
3.97015000000000e+00 4.57126770769471e-02 6.54195314955325e-04
3.99725000000000e+00 4.49299161441123e-02 6.45184024766035e-04
4.02435000000000e+00 4.41605588165168e-02 6.36282237415457e-04
4.05145000000000e+00 4.34043755775537e-02 6.27489042020364e-04
4.07855000000000e+00 4.26611408407430e-02 6.18803520988660e-04
4.10565000000000e+00 4.19306328824345e-02 6.10224750704341e-04
4.13275000000000e+00 4.12126337756624e-02 6.01751802184102e-04
4.15985000000000e+00 4.05069293251330e-02 5.93383741706728e-04
4.18695000000000e+00 3.98133090033250e-02 5.85119631416219e-04
4.21405000000000e+00 3.91315658876850e-02 5.76958529899664e-04
4.24115000000000e+00 3.84614965988973e-02 5.68899492740748e-04
4.26825000000000e+00 3.78029012402116e-02 5.60941573049773e-04
4.29535000000000e+00 3.71555833378091e-02 5.53083821971118e-04
4.32245000000000e+00 3.65193497821902e-02 5.45325289168959e-04
4.34955000000000e+00 3.58940107705653e-02 5.37665023291945e-04
4.37665000000000e+00 3.52793797502325e-02 5.30102072417688e-04
4.40375000000000e+00 3.46752733629246e-02 5.22635484477874e-04
4.43085000000000e+00 3.40815113901096e-02 5.15264307664497e-04
4.45795000000000e+00 3.34979166992269e-02 5.07987590818057e-04
4.48505000000000e+00 3.29243151908451e-02 5.00804383798450e-04
4.51215000000000e+00 3.23605357467239e-02 4.93713737838961e-04
4.53925000000000e+00 3.18064101787660e-02 4.86714705884175e-04
4.56635000000000e+00 3.12617731788426e-02 4.79806342912269e-04
4.59345000000000e+00 3.07264622694783e-02 4.72987706242302e-04
4.62055000000000e+00 3.02003177553803e-02 4.66257855827125e-04
4.64765000000000e+00 2.96831826757980e-02 4.59615854532312e-04
4.67475000000000e+00 2.91749027576978e-02 4.53060768401687e-04
4.70185000000000e+00 2.86753263697401e-02 4.46591666909912e-04
4.72895000000000e+00 2.81843044770442e-02 4.40207623202669e-04
4.75605000000000e+00 2.77016905967279e-02 4.33907714324830e-04
4.78315000000000e+00 2.72273407542085e-02 4.27691021437064e-04
4.81025000000000e+00 2.67611134402513e-02 4.21556630021353e-04
4.83735000000000e+00 2.63028695687553e-02 4.15503630075772e-04
4.86445000000000e+00 2.58524724352597e-02 4.09531116298948e-04
4.89155000000000e+00 2.54097876761622e-02 4.03638188264582e-04
4.91865000000000e+00 2.49746832286356e-02 3.97823950586432e-04
4.94575000000000e+00 2.45470292912302e-02 3.92087513074028e-04
4.97285000000000e+00 2.41266982851510e-02 3.86427990879558e-04
4.99995000000000e+00 2.37135648161985e-02 3.80844504636219e-04
5.02705000000000e+00 2.33075056373602e-02 3.75336180588326e-04
5.05415000000000e+00 2.29083996120439e-02 3.69902150713483e-04
5.08125000000000e+00 2.25161276779392e-02 3.64541552837197e-04
5.10835000000000e+00 2.21305728114994e-02 3.59253530740139e-04
5.13545000000000e+00 2.17516199930299e-02 3.54037234258320e-04
5.16255000000000e+00 2.13791561723757e-02 3.48891819376543e-04
5.18965000000000e+00 2.10130702351960e-02 3.43816448315289e-04
5.21675000000000e+00 2.06532529698161e-02 3.38810289611321e-04
5.24385000000000e+00 2.02995970346471e-02 3.33872518192290e-04
5.27095000000000e+00 1.99519969261638e-02 3.29002315445499e-04
5.29805000000000e+00 1.96103489474303e-02 3.24198869281092e-04
5.32515000000000e+00 1.92745511771648e-02 3.19461374189915e-04
5.35225000000000e+00 1.89445034393346e-02 3.14789031296183e-04
5.37935000000000e+00 1.86201072732710e-02 3.10181048405194e-04
5.40645000000000e+00 1.83012659042964e-02 3.05636640046328e-04
5.43355000000000e+00 1.79878842148542e-02 3.01155027511438e-04
5.46065000000000e+00 1.76798687161329e-02 2.96735438888847e-04
5.48775000000000e+00 1.73771275201767e-02 2.92377109093166e-04
5.51485000000000e+00 1.70795703124729e-02 2.88079279891045e-04
5.54195000000000e+00 1.67871083250093e-02 2.83841199923053e-04
5.56905000000000e+00 1.64996543097924e-02 2.79662124721831e-04
5.59615000000000e+00 1.62171225128197e-02 2.75541316726690e-04
5.62325000000000e+00 1.59394286484971e-02 2.71478045294774e-04
5.65035000000000e+00 1.56664898744947e-02 2.67471586708925e-04
5.67745000000000e+00 1.53982247670331e-02 2.63521224182439e-04
5.70455000000000e+00 1.51345532965928e-02 2.59626247860803e-04
5.73165000000000e+00 1.48753968040396e-02 2.55785954820536e-04
5.75875000000000e+00 1.46206779771589e-02 2.51999649065287e-04
5.78585000000000e+00 1.43703208275916e-02 2.48266641519282e-04
5.81295000000000e+00 1.41242506681651e-02 2.44586250018252e-04
5.84005000000000e+00 1.38823940906124e-02 2.40957799297939e-04
5.86715000000000e+00 1.36446789436728e-02 2.37380620980317e-04
5.89425000000000e+00 1.34110343115678e-02 2.33854053557582e-04
5.92135000000000e+00 1.31813904928448e-02 2.30377442374068e-04
5.94845000000000e+00 1.29556789795841e-02 2.26950139606136e-04
5.97555000000000e+00 1.27338324369610e-02 2.23571504240152e-04
6.00265000000000e+00 1.25157846831588e-02 2.20240902048657e-04
6.02975000000000e+00 1.23014706696247e-02 2.16957705564780e-04
6.05685000000000e+00 1.20908264616650e-02 2.13721294055018e-04
6.08395000000000e+00 1.18837892193712e-02 2.10531053490434e-04
6.11105000000000e+00 1.16802971788743e-02 2.07386376516351e-04
6.13815000000000e+00 1.14802896339184e-02 2.04286662420652e-04
6.16525000000000e+00 1.12837069177513e-02 2.01231317100704e-04
6.19235000000000e+00 1.10904903853241e-02 1.98219753029022e-04
6.21945000000000e+00 1.09005823957965e-02 1.95251389217730e-04
6.24655000000000e+00 1.07139262953407e-02 1.92325651181872e-04
6.27365000000000e+00 1.05304664002411e-02 1.89441970901635e-04
6.30075000000000e+00 1.03501479802815e-02 1.86599786783549e-04
6.32785000000000e+00 1.01729172424189e-02 1.83798543620742e-04
6.35495000000000e+00 9.99872131473521e-03 1.81037692552274e-04
6.38205000000000e+00 9.82750823066443e-03 1.78316691021624e-04
6.40915000000000e+00 9.65922691349007e-03 1.75635002734367e-04
6.43625000000000e+00 9.49382716110764e-03 1.72992097615124e-04
6.46335000000000e+00 9.33125963104830e-03 1.70387451763793e-04
6.49045000000000e+00 9.17147582575886e-03 1.67820547411119e-04
6.51755000000000e+00 9.01442807813391e-03 1.65290872873690e-04
6.54465000000000e+00 8.86006953729558e-03 1.62797922508318e-04
6.57175000000000e+00 8.70835415461696e-03 1.60341196665926e-04
6.59885000000000e+00 8.55923666998466e-03 1.57920201644959e-04
6.62595000000000e+00 8.41267259829679e-03 1.55534449644317e-04
6.65305000000000e+00 8.26861821619200e-03 1.53183458715912e-04
6.68015000000000e+00 8.12703054900581e-03 1.50866752716827e-04
6.70725000000000e+00 7.98786735795035e-03 1.48583861261166e-04
6.73435000000000e+00 7.85108712751353e-03 1.46334319671567e-04
6.76145000000000e+00 7.71664905307404e-03 1.44117668930455e-04
6.78855000000000e+00 7.58451302872844e-03 1.41933455631070e-04
6.81565000000000e+00 7.45463963532662e-03 1.39781231928258e-04
6.84275000000000e+00 7.32699012871224e-03 1.37660555489081e-04
6.86985000000000e+00 7.20152642816442e-03 1.35570989443282e-04
6.89695000000000e+00 7.07821110503742e-03 1.33512102333615e-04
6.92405000000000e+00 6.95700737159487e-03 1.31483468066062e-04
6.95115000000000e+00 6.83787907003509e-03 1.29484665859962e-04
6.97825000000000e+00 6.72079066170446e-03 1.27515280198100e-04
7.00535000000000e+00 6.60570721649545e-03 1.25574900776750e-04
7.03245000000000e+00 6.49259440242610e-03 1.23663122455697e-04
7.05955000000000e+00 6.38141847539812e-03 1.21779545208266e-04
7.08665000000000e+00 6.27214626913020e-03 1.19923774071386e-04
7.11375000000000e+00 6.16474518526377e-03 1.18095419095677e-04
7.14085000000000e+00 6.05918318363821e-03 1.16294095295616e-04
7.16795000000000e+00 5.95542877273252e-03 1.14519422599776e-04
7.19505000000000e+00 5.85345100027067e-03 1.12771025801150e-04
7.22215000000000e+00 5.75321944398791e-03 1.11048534507597e-04
7.24925000000000e+00 5.65470420255503e-03 1.09351583092411e-04
7.27635000000000e+00 5.55787588665821e-03 1.07679810645014e-04
7.30345000000000e+00 5.46270561023146e-03 1.06032860921829e-04
7.33055000000000e+00 5.36916498183929e-03 1.04410382297289e-04
7.35765000000000e+00 5.27722609620690e-03 1.02812027715051e-04
7.38475000000000e+00 5.18686152589541e-03 1.01237454639389e-04
7.41185000000000e+00 5.09804431311962e-03 9.96863250067831e-05
7.43895000000000e+00 5.01074796170593e-03 9.81583051777259e-05
7.46605000000000e+00 4.92494642918789e-03 9.66530658887502e-05
7.49315000000000e+00 4.84061411903719e-03 9.51702822046926e-05
7.52025000000000e+00 4.75772587302762e-03 9.37096334712014e-05
7.54735000000000e+00 4.67625696372979e-03 9.22708032674789e-05
7.57445000000000e+00 4.59618308713441e-03 9.08534793592919e-05
7.60155000000000e+00 4.51748035540184e-03 8.94573536522606e-05
7.62865000000000e+00 4.44012528973582e-03 8.80821221454020e-05
7.65575000000000e+00 4.36409481337920e-03 8.67274848849569e-05
7.68285000000000e+00 4.28936624472964e-03 8.53931459185164e-05
7.70995000000000e+00 4.21591729057316e-03 8.40788132494302e-05
7.73705000000000e+00 4.14372603943361e-03 8.27841987915162e-05
7.76415000000000e+00 4.07277095503593e-03 8.15090183240811e-05
7.79125000000000e+00 4.00303086988144e-03 8.02529914472445e-05
7.81835000000000e+00 3.93448497893307e-03 7.90158415375786e-05
7.84545000000000e+00 3.86711283340877e-03 7.77972957040687e-05
7.87255000000000e+00 3.80089433468114e-03 7.65970847443996e-05
7.89965000000000e+00 3.73580972828163e-03 7.54149431015656e-05
7.92675000000000e+00 3.67183959800726e-03 7.42506088208071e-05
7.95385000000000e+00 3.60896486012837e-03 7.31038235068943e-05
7.98095000000000e+00 3.54716675769550e-03 7.19743322817418e-05
8.00805000000000e+00 3.48642685494380e-03 7.08618837423528e-05
8.03515000000000e+00 3.42672703179317e-03 6.97662299191259e-05
8.06225000000000e+00 3.36804947844268e-03 6.86871262344948e-05
8.08935000000000e+00 3.31037669005750e-03 6.76243314619130e-05
8.11645000000000e+00 3.25369146154678e-03 6.65776076851948e-05
8.14355000000000e+00 3.19797688243102e-03 6.55467202582032e-05
8.17065000000000e+00 3.14321633179730e-03 6.45314377648924e-05
8.19775000000000e+00 3.08939347334083e-03 6.35315319797026e-05
8.22485000000000e+00 3.03649225049153e-03 6.25467778283046e-05
8.25195000000000e+00 2.98449688162396e-03 6.15769533487061e-05
8.27905000000000e+00 2.93339185534930e-03 6.06218396527147e-05
8.30615000000000e+00 2.88316192588799e-03 5.96812208877550e-05
8.33325000000000e+00 2.83379210852151e-03 5.87548841990393e-05
8.36035000000000e+00 2.78526767512217e-03 5.78426196921022e-05
8.38745000000000e+00 2.73757414975932e-03 5.69442203956879e-05
8.41455000000000e+00 2.69069730438090e-03 5.60594822249956e-05
8.44165000000000e+00 2.64462315456886e-03 5.51882039452881e-05
8.46875000000000e+00 2.59933795536728e-03 5.43301871358460e-05
8.49585000000000e+00 2.55482819718202e-03 5.34852361542876e-05
8.52295000000000e+00 2.51108060175040e-03 5.26531581012442e-05
8.55005000000000e+00 2.46808211818006e-03 5.18337627853829e-05
