Energy (eV)          EEDF (eV^-(3/2))     First Anisotropy
7.14285714285714e-02 4.37394839396630e-02 3.56409517595751e-05
2.14285714285714e-01 4.30256830931358e-02 5.85700177354626e-05
3.57142857142857e-01 4.23235310271235e-02 7.65721031074885e-05
5.00000000000000e-01 4.16328376410755e-02 8.98022787288124e-05
6.42857142857143e-01 4.09534159376655e-02 1.00473256304339e-04
7.85714285714286e-01 4.02850819685867e-02 1.09433894574160e-04
9.28571428571428e-01 3.96276547890554e-02 1.17129570205501e-04
1.07142857142857e+00 3.89809564071693e-02 1.23832837020197e-04
1.21428571428571e+00 3.83448117372398e-02 1.29726815157167e-04
1.35714285714286e+00 3.77190485442006e-02 1.34942574057935e-04
1.50000000000000e+00 3.71034974141685e-02 1.39578336714531e-04
1.64285714285714e+00 3.64979916922783e-02 1.43710327932129e-04
1.78571428571429e+00 3.59023674435005e-02 1.47399348507870e-04
1.92857142857143e+00 3.53164634052046e-02 1.50694983568145e-04
2.07142857142857e+00 3.47401209529531e-02 1.53638417189157e-04
2.21428571428571e+00 3.41731840474464e-02 1.56264383295212e-04
2.35714285714286e+00 3.36154991935726e-02 1.58602557235204e-04
2.50000000000000e+00 3.30669154062215e-02 1.60678576497199e-04
2.64285714285714e+00 3.25272841615835e-02 1.62514804783743e-04
2.78571428571429e+00 3.19964593596912e-02 1.64130914380335e-04
2.92857142857143e+00 3.14742972830955e-02 1.65544338132172e-04
3.07142857142857e+00 3.09606565634430e-02 1.66770625876434e-04
3.21428571428571e+00 3.04553981374549e-02 1.67823729061421e-04
3.35714285714286e+00 2.99583852098339e-02 1.68716229450354e-04
3.50000000000000e+00 2.94694832207935e-02 1.69459526922855e-04
3.64285714285714e+00 2.89885598048596e-02 1.70063994198029e-04
3.78571428571429e+00 2.85154847566887e-02 1.70539105014589e-04
3.92857142857143e+00 2.80501299946439e-02 1.70893541684245e-04
4.07142857142857e+00 2.75923695297411e-02 1.71135286345687e-04
4.21428571428571e+00 2.71420794277802e-02 1.71271698725195e-04
4.35714285714286e+00 2.66991377760922e-02 1.71309581811078e-04
4.50000000000000e+00 2.62634246536498e-02 1.71255239299685e-04
4.64285714285714e+00 2.58348220953708e-02 1.71114525274034e-04
4.78571428571429e+00 2.54132140612933e-02 1.70892887054638e-04
4.92857142857143e+00 2.49984864043265e-02 1.70595402740230e-04
5.07142857142857e+00 2.45905268419111e-02 1.70226814512125e-04
5.21428571428571e+00 2.41892249229736e-02 1.69791558125408e-04
5.35714285714286e+00 2.37944719982080e-02 1.69293788310807e-04
5.50000000000000e+00 2.34061611929110e-02 1.68737402081005e-04
5.64285714285714e+00 2.30241873757260e-02 1.68126059468561e-04
5.78571428571429e+00 2.26484471309763e-02 1.67463201775070e-04
5.92857142857143e+00 2.22788387300500e-02 1.66752068009429e-04
6.07142857142857e+00 2.19152621057524e-02 1.65995709958968e-04
6.21428571428571e+00 2.15576188232659e-02 1.65197005887840e-04
6.35714285714286e+00 2.12058120536221e-02 1.64358672351584e-04
6.50000000000000e+00 2.08597465491724e-02 1.63483275517738e-04
6.64285714285714e+00 2.05193286160681e-02 1.62573241420187e-04
6.78571428571429e+00 2.01844660894866e-02 1.61630865053533e-04
6.92857142857143e+00 1.98550683082082e-02 1.60658318727417e-04
7.07142857142857e+00 1.95310460915134e-02 1.59657659939924e-04
7.21428571428571e+00 1.92123117135583e-02 1.58630838673936e-04
7.35714285714286e+00 1.88987788797095e-02 1.57579703616131e-04
7.50000000000000e+00 1.85903627044764e-02 1.56506008379878e-04
7.64285714285714e+00 1.82869796872008e-02 1.55411417206081e-04
7.78571428571429e+00 1.79885476899037e-02 1.54297510016550e-04
7.92857142857143e+00 1.76949859146809e-02 1.53165787125162e-04
8.07142857142857e+00 1.74062148829496e-02 1.52017673790076e-04
8.21428571428571e+00 1.71221564127817e-02 1.50854524497449e-04
8.35714285714286e+00 1.68427335977997e-02 1.49677626533136e-04
8.50000000000000e+00 1.65678707873691e-02 1.48488203721434e-04
8.64285714285714e+00 1.62974935650785e-02 1.47287419874059e-04
8.78571428571428e+00 1.60315287289462e-02 1.46076381827394e-04
8.92857142857143e+00 1.57699042713114e-02 1.44856142307154e-04
9.07142857142857e+00 1.55125493602259e-02 1.43627702762884e-04
9.21428571428571e+00 1.52593943193704e-02 1.42392016069281e-04
9.35714285714286e+00 1.50103706092369e-02 1.41149988711301e-04
9.50000000000000e+00 1.47654108093785e-02 1.39902483182989e-04
9.64285714285714e+00 1.45244485993322e-02 1.38650320209058e-04
9.78571428571428e+00 1.42874187409435e-02 1.37394280679528e-04
9.92857142857143e+00 1.40542570604714e-02 1.36135107491859e-04
1.00714285714286e+01 1.38249004319249e-02 1.34873507289463e-04
1.02142857142857e+01 1.35992867601168e-02 1.33610152800655e-04
1.03571428571429e+01 1.33773549601755e-02 1.32345683384046e-04
1.05000000000000e+01 1.31590449484042e-02 1.31080707247792e-04
1.06428571428571e+01 1.29442976174410e-02 1.29815802768870e-04
1.07857142857143e+01 1.27330548285984e-02 1.28551519759697e-04
1.09285714285714e+01 1.25252593880046e-02 1.27288380846898e-04
1.10714285714286e+01 1.23208550390203e-02 1.26026882331135e-04
1.12142857142857e+01 1.21197864411032e-02 1.24767496531598e-04
1.13571428571429e+01 1.19219991551308e-02 1.23510671167042e-04
1.15000000000000e+01 1.17274396338916e-02 1.22256831513951e-04
1.16428571428571e+01 1.15360552006221e-02 1.21006381181275e-04
1.17857142857143e+01 1.13477940415302e-02 1.19759702978803e-04
1.19285714285714e+01 1.11626051851577e-02 1.18517159894399e-04
1.20714285714286e+01 1.09804384950190e-02 1.17279095643673e-04
1.22142857142857e+01 1.08012446512156e-02 1.16045836497890e-04
1.23571428571429e+01 1.06249751373221e-02 1.14817690595471e-04
1.25000000000000e+01 1.04515822315350e-02 1.13594949633664e-04
1.26428571428571e+01 1.02810189880478e-02 1.12377889389238e-04
1.27857142857143e+01 1.01132392299021e-02 1.11166770328882e-04
1.29285714285714e+01 9.94819753106414e-03 1.09961838320101e-04
1.30714285714286e+01 9.78584920941165e-03 1.08763324985018e-04
1.32142857142857e+01 9.62615031068656e-03 1.07571449155135e-04
1.33571428571429e+01 9.46905759678438e-03 1.06386416178669e-04
1.35000000000000e+01 9.31452853757949e-03 1.05208419272079e-04
1.36428571428571e+01 9.16252129470846e-03 1.04037639874510e-04
1.37857142857143e+01 9.01299471482947e-03 1.02874248084997e-04
1.39285714285714e+01 8.86590831400598e-03 1.01718403190170e-04
1.40714285714286e+01 8.72122227111136e-03 1.00570253890887e-04
1.42142857142857e+01 8.57889741378510e-03 9.94299394781902e-05
1.43571428571429e+01 8.43889520797893e-03 9.82975891695339e-05
1.45000000000000e+01 8.30117775045204e-03 9.71733232043541e-05
1.46428571428571e+01 8.16570775461118e-03 9.60572530867347e-05
1.47857142857143e+01 8.03244854422030e-03 9.49494819029196e-05
1.49285714285714e+01 7.90136403975716e-03 9.38501047192784e-05
1.50714285714286e+01 7.77241875227023e-03 9.27592087246167e-05
1.52142857142857e+01 7.64557777106089e-03 9.16768741922276e-05
1.53571428571429e+01 7.52080675435414e-03 9.06031738608185e-05
1.55000000000000e+01 7.39807192244023e-03 8.95381738326166e-05
1.56428571428571e+01 7.27734004528193e-03 8.84819337392999e-05
1.57857142857143e+01 7.15857843668885e-03 8.74345069748335e-05
1.59285714285714e+01 7.04175494237117e-03 8.63959409992776e-05
1.60714285714286e+01 6.92683793425868e-03 8.53662774244057e-05
1.62142857142857e+01 6.81379629967702e-03 8.43455528081672e-05
1.63571428571429e+01 6.70259943302392e-03 8.33337980866736e-05
1.65000000000000e+01 6.59321722952392e-03 8.23310393169898e-05
1.66428571428571e+01 6.48562007436110e-03 8.13372977895115e-05
1.67857142857143e+01 6.37977883731529e-03 8.03525901997398e-05
1.69285714285714e+01 6.27566486228226e-03 7.93769288824277e-05
1.70714285714286e+01 6.17324996204898e-03 7.84103218587099e-05
1.72142857142857e+01 6.07250640876828e-03 7.74527734970816e-05
1.73571428571429e+01 5.97340692653346e-03 7.65042839976821e-05
1.75000000000000e+01 5.87592468570749e-03 7.55648500109664e-05
1.76428571428571e+01 5.78003329337783e-03 7.46344647122722e-05
1.77857142857143e+01 5.68570678844049e-03 7.37131179288956e-05
1.79285714285714e+01 5.59291963239207e-03 7.28007963218379e-05
1.80714285714286e+01 5.50164670454552e-03 7.18974834067399e-05
1.82142857142857e+01 5.41186329363669e-03 7.10031601071187e-05
1.83571428571429e+01 5.32354509120114e-03 7.01178042893766e-05
1.85000000000000e+01 5.23666818643707e-03 6.92413912810507e-05
1.86428571428571e+01 5.15120905780947e-03 6.83738939184668e-05
1.87857142857143e+01 5.06714456856130e-03 6.75152826406968e-05
1.89285714285714e+01 4.98445195861190e-03 6.66655256313704e-05
1.90714285714286e+01 4.90310884019158e-03 6.58245888218193e-05
1.92142857142857e+01 4.82309319043729e-03 6.49924363564202e-05
1.93571428571429e+01 4.74438334548570e-03 6.41690301753324e-05
1.95000000000000e+01 4.66695799582849e-03 6.33543304506677e-05
1.96428571428571e+01 4.59079617891850e-03 6.25482956149070e-05
1.97857142857143e+01 4.51587727508315e-03 6.17508824300766e-05
1.99285714285714e+01 4.44218100038793e-03 6.09620460987941e-05
2.00714285714286e+01 4.36968740266456e-03 6.01817402554721e-05
2.02142857142857e+01 4.29837685497301e-03 5.94099173593201e-05
2.03571428571429e+01 4.22823005033385e-03 5.86465283211503e-05
2.05000000000000e+01 4.15922799753540e-03 5.78915228719087e-05
2.06428571428571e+01 4.09135201461551e-03 5.71448495773317e-05
2.07857142857143e+01 4.02458372515025e-03 5.64064558884466e-05
2.09285714285714e+01 3.95890505196123e-03 5.56762882287071e-05
2.10714285714286e+01 3.89429821351029e-03 5.49542919773478e-05
2.12142857142857e+01 3.83074571812180e-03 5.42404118024254e-05
2.13571428571429e+01 3.76823035928545e-03 5.35345913278278e-05
2.15000000000000e+01 3.70673521187637e-03 5.28367734456575e-05
2.16428571428571e+01 3.64624362640359e-03 5.21469003210911e-05
2.17857142857143e+01 3.58673922564647e-03 5.14649134287513e-05
2.19285714285714e+01 3.52820589910111e-03 5.07907536211156e-05
2.20714285714286e+01 3.47062779971427e-03 5.01243611069091e-05
2.22142857142857e+01 3.41398933877384e-03 4.94656757341425e-05
2.23571428571429e+01 3.35827518172059e-03 4.88146366934891e-05
2.25000000000000e+01 3.30347024474446e-03 4.81711827838132e-05
2.26428571428571e+01 3.24955968970542e-03 4.75352524101202e-05
2.27857142857143e+01 3.19652892109036e-03 4.69067836091871e-05
2.29285714285714e+01 3.14436358110802e-03 4.62857141032271e-05
2.30714285714286e+01 3.09304954673505e-03 4.56719812753688e-05
2.32142857142857e+01 3.04257292519461e-03 4.50655224107848e-05
2.33571428571429e+01 2.99292005022210e-03 4.44662744327821e-05
2.35000000000000e+01 2.94407747900323e-03 4.38741741290417e-05
2.36428571428571e+01 2.89603198768542e-03 4.32891581447578e-05
2.37857142857143e+01 2.84877056862878e-03 4.27111630001097e-05
2.39285714285714e+01 2.80228042607069e-03 4.21401251322718e-05
2.40714285714286e+01 2.75654897345813e-03 4.15759808694094e-05
2.42142857142857e+01 2.71156382944442e-03 4.10186666365423e-05
2.43571428571429e+01 2.66731281455992e-03 4.04681187209399e-05
2.45000000000000e+01 2.62378394845979e-03 3.99242734652739e-05
2.46428571428571e+01 2.58096544595488e-03 3.93870672575112e-05
2.47857142857143e+01 2.53884571453148e-03 3.88564365421825e-05
2.49285714285714e+01 2.49741335051704e-03 3.83323178531449e-05
2.50714285714286e+01 2.45665713667399e-03 3.78146477871154e-05
2.52142857142857e+01 2.41656603865349e-03 3.73033631797387e-05
2.53571428571429e+01 2.37712920202727e-03 3.67984008971648e-05
2.55000000000000e+01 2.33833594981568e-03 3.62996980012423e-05
2.56428571428571e+01 2.30017577897589e-03 3.58071917373097e-05
2.57857142857143e+01 2.26263835816653e-03 3.53208195407718e-05
2.59285714285714e+01 2.22571352435494e-03 3.48405190625028e-05
2.60714285714286e+01 2.18939128064898e-03 3.43662281426200e-05
2.62142857142857e+01 2.15366179315437e-03 3.38978849613126e-05
2.63571428571429e+01 2.11851538832851e-03 3.34354278537560e-05
2.65000000000000e+01 2.08394255076172e-03 3.29787954516109e-05
2.66428571428571e+01 2.04993392006846e-03 3.25279266695515e-05
2.67857142857143e+01 2.01648028887475e-03 3.20827607083113e-05
2.69285714285714e+01 1.98357259981444e-03 3.16432370742294e-05
2.70714285714286e+01 1.95120194357746e-03 3.12092955537436e-05
2.72142857142857e+01 1.91935955612354e-03 3.07808763427735e-05
2.73571428571429e+01 1.88803681632337e-03 3.03579198824109e-05
2.75000000000000e+01 1.85722524396802e-03 2.99403669802816e-05
2.76428571428571e+01 1.82691649701587e-03 2.95281587964351e-05
2.77857142857143e+01 1.79710236978197e-03 2.91212368437522e-05
2.79285714285714e+01 1.76777479027760e-03 2.87195430028249e-05
2.80714285714286e+01 1.73892581845482e-03 2.83230194974919e-05
2.82142857142857e+01 1.71054764373531e-03 2.79316090059570e-05
2.83571428571429e+01 1.68263258290754e-03 2.75452545149505e-05
2.85000000000000e+01 1.65517307834208e-03 2.71638994239442e-05
2.86428571428571e+01 1.62816169555230e-03 2.67874875308499e-05
2.87857142857143e+01 1.60159112156673e-03 2.64159630304875e-05
2.89285714285714e+01 1.57545416257177e-03 2.60492705257456e-05
2.90714285714286e+01 1.54974374233381e-03 2.56873550043595e-05
2.92142857142857e+01 1.52445290000693e-03 2.53301619344507e-05
2.93571428571429e+01 1.49957478825840e-03 2.49776371350912e-05
2.95000000000000e+01 1.47510267166914e-03 2.46297268658906e-05
2.96428571428571e+01 1.45102992457175e-03 2.42863778128252e-05
2.97857142857143e+01 1.42735002958830e-03 2.39475370853033e-05
2.99285714285714e+01 1.40405657554089e-03 2.36131522243749e-05
3.00714285714286e+01 1.38114325603427e-03 2.32831711808637e-05
3.02142857142857e+01 1.35860386751042e-03 2.29575423975859e-05
3.03571428571429e+01 1.33643230757754e-03 2.26362146944849e-05
3.05000000000000e+01 1.31462257357707e-03 2.23191373457084e-05
3.06428571428571e+01 1.29316876066692e-03 2.20062600658028e-05
3.07857142857143e+01 1.27206506050859e-03 2.16975330057935e-05
3.09285714285714e+01 1.25130575941448e-03 2.13929067590478e-05
3.10714285714286e+01 1.23088523707557e-03 2.10923323408194e-05
3.12142857142857e+01 1.21079796483443e-03 2.07957612590629e-05
3.13571428571429e+01 1.19103850419582e-03 2.05031454124965e-05
3.15000000000000e+01 1.17160150554329e-03 2.02144371569742e-05
3.16428571428571e+01 1.15248170643924e-03 1.99295892921982e-05
3.17857142857143e+01 1.13367393044683e-03 1.96485550571385e-05
3.19285714285714e+01 1.11517308548671e-03 1.93712881340432e-05
3.20714285714286e+01 1.09697416269537e-03 1.90977426293986e-05
3.22142857142857e+01 1.07907223489191e-03 1.88278731349709e-05
3.23571428571429e+01 1.06146245525028e-03 1.85616346373386e-05
3.25000000000000e+01 1.04414005615042e-03 1.82989825750858e-05
3.26428571428571e+01 1.02710034767012e-03 1.80398728261407e-05
3.27857142857143e+01 1.01033871652835e-03 1.77842617027777e-05
3.29285714285714e+01 9.93850624627383e-04 1.75321059541730e-05
3.30714285714286e+01 9.77631608028878e-04 1.72833627487613e-05
3.32142857142857e+01 9.61677275592271e-04 1.70379897268835e-05
3.33571428571429e+01 9.45983307791299e-04 1.67959449204970e-05
3.35000000000000e+01 9.30545455685705e-04 1.65571868024907e-05
3.36428571428571e+01 9.15359539583039e-04 1.63216742747121e-05
3.37857142857143e+01 9.00421448091208e-04 1.60893666627420e-05
3.39285714285714e+01 8.85727136824807e-04 1.58602237173144e-05
3.40714285714286e+01 8.71272627487153e-04 1.56342055980256e-05
3.42142857142857e+01 8.57054006660859e-04 1.54112729187698e-05
3.43571428571429e+01 8.43067424752932e-04 1.51913866764752e-05
3.45000000000000e+01 8.29309095074699e-04 1.49745082936507e-05
3.46428571428571e+01 8.15775292654060e-04 1.47605996071350e-05
3.47857142857143e+01 8.02462353386350e-04 1.45496228627910e-05
3.49285714285714e+01 7.89366672886071e-04 1.43415407160426e-05
3.50714285714286e+01 7.76484705664239e-04 1.41363162168781e-05
3.52142857142857e+01 7.63812964053940e-04 1.39339128490833e-05
3.53571428571429e+01 7.51348017270045e-04 1.37342944669839e-05
3.55000000000000e+01 7.39086490586156e-04 1.35374253321707e-05
3.56428571428571e+01 7.27025064280172e-04 1.33432701029816e-05
3.57857142857143e+01 7.15160472873530e-04 1.31517938292225e-05
3.59285714285714e+01 7.03489504111769e-04 1.29629619520300e-05
3.60714285714286e+01 6.92008998227555e-04 1.27767402901002e-05
3.62142857142857e+01 6.80715846985984e-04 1.25930950735830e-05
3.63571428571429e+01 6.69606992846477e-04 1.24119928879249e-05
3.65000000000000e+01 6.58679428226666e-04 1.22334007055834e-05
3.66428571428571e+01 6.47930194566139e-04 1.20572858762370e-05
3.67857142857143e+01 6.37356381645057e-04 1.18836161216123e-05
3.69285714285714e+01 6.26955126678937e-04 1.17123595348377e-05
3.70714285714286e+01 6.16723613658621e-04 1.15434845678278e-05
3.72142857142857e+01 6.06659072501855e-04 1.13769600605749e-05
3.73571428571429e+01 5.96758778306266e-04 1.12127551912909e-05
3.75000000000000e+01 5.87020050691140e-04 1.10508395038056e-05
3.76428571428571e+01 5.77440252965938e-04 1.08911828984868e-05
3.77857142857143e+01 5.68016791520197e-04 1.07337556272334e-05
3.79285714285714e+01 5.58747115019572e-04 1.05785282924516e-05
3.80714285714286e+01 5.49628713814896e-04 1.04254718355188e-05
3.82142857142857e+01 5.40659119188093e-04 1.02745575621078e-05
3.83571428571429e+01 5.31835902686339e-04 1.01257570979170e-05
3.85000000000000e+01 5.23156675533605e-04 9.97904241234786e-06
3.86428571428571e+01 5.14619087892088e-04 9.83438581011017e-06
3.87857142857143e+01 5.06220828316085e-04 9.69175992641894e-06
3.89285714285714e+01 4.97959623037851e-04 9.55113772570160e-06
3.90714285714286e+01 4.89833235438642e-04 9.41249249106734e-06
3.92142857142857e+01 4.81839465378397e-04 9.27579784620690e-06
3.93571428571429e+01 4.73976148602260e-04 9.14102771608077e-06
3.95000000000000e+01 4.66241156214581e-04 9.00815634738699e-06
3.96428571428571e+01 4.58632394022777e-04 8.87715830082108e-06
3.97857142857143e+01 4.51147802048587e-04 8.74800844650448e-06
3.99285714285714e+01 4.43785353893612e-04 8.62068196250551e-06
4.00714285714286e+01 4.36543056265965e-04 8.49515432524125e-06
4.02142857142857e+01 4.29418948384320e-04 8.37140132842233e-06
4.03571428571429e+01 4.22411101448953e-04 8.24939904813845e-06
4.05000000000000e+01 4.15517618171636e-04 8.12912386055617e-06
4.06428571428571e+01 4.08736632192651e-04 8.01055243479985e-06
4.07857142857143e+01 4.02066307643484e-04 7.89366172862810e-06
4.09285714285714e+01 3.95504838583083e-04 7.77842898683522e-06
4.10714285714286e+01 3.89050448574349e-04 7.66483173251402e-06
4.12142857142857e+01 3.82701390154260e-04 7.55284778344865e-06
4.13571428571429e+01 3.76455944362403e-04 7.44245522110148e-06
4.15000000000000e+01 3.70312420320893e-04 7.33363240592049e-06
4.16428571428571e+01 3.64269154716303e-04 7.22635797080399e-06
4.17857142857143e+01 3.58324511408475e-04 7.12061081703253e-06
4.19285714285714e+01 3.52476880929533e-04 7.01637011260450e-06
4.20714285714286e+01 3.46724680105058e-04 6.91361528429149e-06
4.22142857142857e+01 3.41066351582899e-04 6.81232603182575e-06
4.23571428571429e+01 3.35500363412954e-04 6.71248230034997e-06
4.25000000000000e+01 3.30025208671842e-04 6.61406429365857e-06
4.26428571428571e+01 3.24639405002459e-04 6.51705246820998e-06
4.27857142857143e+01 3.19341494264111e-04 6.42142752931637e-06
4.29285714285714e+01 3.14130042087243e-04 6.32717042945387e-06
4.30714285714286e+01 3.09003637534634e-04 6.23426236104617e-06
4.32142857142857e+01 3.03960892682367e-04 6.14268476874485e-06
4.33571428571429e+01 2.99000442245287e-04 6.05241932495353e-06
4.35000000000000e+01 2.94120943241693e-04 5.96344794128304e-06
4.36428571428571e+01 2.89321074584072e-04 5.87575276307446e-06
4.37857142857143e+01 2.84599536766230e-04 5.78931616584463e-06
4.39285714285714e+01 2.79955051467505e-04 5.70412075360118e-06
4.40714285714286e+01 2.75386361249808e-04 5.62014935229459e-06
4.42142857142857e+01 2.70892229184932e-04 5.53738502044951e-06
4.43571428571429e+01 2.66471438520732e-04 5.45581102741708e-06
4.45000000000000e+01 2.62122792381606e-04 5.37541086328688e-06
4.46428571428571e+01 2.57845113404668e-04 5.29616823388354e-06
4.47857142857143e+01 2.53637243460023e-04 5.21806705746180e-06
4.49285714285714e+01 2.49498043298916e-04 5.14109146305135e-06
4.50714285714286e+01 2.45426392282872e-04 5.06522578452001e-06
