Energy (eV)          EEDF (eV^-(3/2))     First Anisotropy
6.04687500000000e-03 9.46527779660181e-01 6.20163674439562e-04
1.81406250000000e-02 9.36363979105175e-01 1.02200406808293e-03
3.02343750000000e-02 9.26309317282538e-01 1.34370848320249e-03
4.23281250000000e-02 9.16362622262018e-01 1.58481675979232e-03
5.44218750000000e-02 9.06522734697728e-01 1.78319727095021e-03
6.65156250000000e-02 8.96788507692852e-01 1.95325067374856e-03
7.86093750000000e-02 8.87158806665941e-01 2.10247040679736e-03
9.07031250000000e-02 8.77632509218668e-01 2.23540583099765e-03
1.02796875000000e-01 8.68208505005004e-01 2.35509010047446e-03
1.14890625000000e-01 8.58885695601797e-01 2.46367816868499e-03
1.26984375000000e-01 8.49662994380749e-01 2.56277346547006e-03
1.39078125000000e-01 8.40539326381758e-01 2.65361183385866e-03
1.51171875000000e-01 8.31513628187628e-01 2.73717265781082e-03
1.63265625000000e-01 8.22584847800121e-01 2.81424976730425e-03
1.75359375000000e-01 8.13751944517337e-01 2.88549869705109e-03
1.87453125000000e-01 8.05013888812421e-01 2.95146933132251e-03
1.99546875000000e-01 7.96369662213556e-01 3.01262913785205e-03
2.11640625000000e-01 7.87818257185265e-01 3.06938012866144e-03
2.23734375000000e-01 7.79358677010969e-01 3.12207151473426e-03
2.35828125000000e-01 7.70989935676814e-01 3.17100932884895e-03
2.47921875000000e-01 7.62711057756751e-01 3.21646386606573e-03
2.60015625000000e-01 7.54521078298840e-01 3.25867552246883e-03
2.72109375000000e-01 7.46419042712777e-01 3.29785943781870e-03
2.84203125000000e-01 7.38404006658638e-01 3.33420923114016e-03
2.96296875000000e-01 7.30475035936803e-01 3.36790003880940e-03
3.08390625000000e-01 7.22631206379075e-01 3.39909100950964e-03
3.20484375000000e-01 7.14871603740959e-01 3.42792737140314e-03
3.32578125000000e-01 7.07195323595105e-01 3.45454215883689e-03
3.44671875000000e-01 6.99601471225889e-01 3.47905766547402e-03
3.56765625000000e-01 6.92089161525129e-01 3.50158667565697e-03
3.68859375000000e-01 6.84657518888921e-01 3.52223351453028e-03
3.80953125000000e-01 6.77305677115583e-01 3.54109494892460e-03
3.93046875000000e-01 6.70032779304691e-01 3.55826096448981e-03
4.05140625000000e-01 6.62837977757207e-01 3.57381543954068e-03
4.17234375000000e-01 6.55720433876671e-01 3.58783673216780e-03
4.29328125000000e-01 6.48679318071459e-01 3.60039819409676e-03
4.41421875000000e-01 6.41713809658088e-01 3.61156862235136e-03
4.53515625000000e-01 6.34823096765563e-01 3.62141265784042e-03
4.65609375000000e-01 6.28006376240745e-01 3.62999113843636e-03
4.77703125000000e-01 6.21262853554743e-01 3.63736141285890e-03
4.89796875000000e-01 6.14591742710303e-01 3.64357762065866e-03
5.01890625000000e-01 6.07992266150199e-01 3.64869094276180e-03
5.13984375000000e-01 6.01463654666601e-01 3.65274982635351e-03
5.26078125000000e-01 5.95005147311422e-01 3.65580018731168e-03
5.38171875000000e-01 5.88615991307623e-01 3.65788559293287e-03
5.50265625000000e-01 5.82295441961472e-01 3.65904742730143e-03
5.62359375000000e-01 5.76042762575749e-01 3.65932504132429e-03
5.74453125000000e-01 5.69857224363876e-01 3.65875588917801e-03
5.86546875000000e-01 5.63738106364973e-01 3.65737565268133e-03
5.98640625000000e-01 5.57684695359829e-01 3.65521835490940e-03
6.10734375000000e-01 5.51696285787768e-01 3.65231646419602e-03
6.22828125000000e-01 5.45772179664414e-01 3.64870098952831e-03
6.34921875000000e-01 5.39911686500336e-01 3.64440156821377e-03
6.47015625000000e-01 5.34114123220569e-01 3.63944654659390e-03
6.59109375000000e-01 5.28378814084996e-01 3.63386305448779e-03
6.71203125000000e-01 5.22705090609584e-01 3.62767707396907e-03
6.83296875000000e-01 5.17092291488476e-01 3.62091350301133e-03
6.95390625000000e-01 5.11539762516903e-01 3.61359621447789e-03
7.07484375000000e-01 5.06046856514939e-01 3.60574811087929e-03
7.19578125000000e-01 5.00612933252064e-01 3.59739117527629e-03
7.31671875000000e-01 4.95237359372545e-01 3.58854651866616e-03
7.43765625000000e-01 4.89919508321612e-01 3.57923442415538e-03
7.55859375000000e-01 4.84658760272431e-01 3.56947438819024e-03
7.67953125000000e-01 4.79454502053858e-01 3.55928515909113e-03
7.80046875000000e-01 4.74306127078974e-01 3.54868477310943e-03
7.92140625000000e-01 4.69213035274376e-01 3.53769058820646e-03
8.04234375000000e-01 4.64174633010244e-01 3.52631931573540e-03
8.16328125000000e-01 4.59190333031145e-01 3.51458705018860e-03
8.28421875000000e-01 4.54259554387583e-01 3.50250929715814e-03
8.40515625000000e-01 4.49381722368293e-01 3.49010099964443e-03
8.52609375000000e-01 4.44556268433247e-01 3.47737656283521e-03
8.64703125000000e-01 4.39782630147392e-01 3.46434987746642e-03
8.76796875000000e-01 4.35060251115095e-01 3.45103434186702e-03
8.88890625000000e-01 4.30388580915289e-01 3.43744288278059e-03
9.00984375000000e-01 4.25767075037320e-01 3.42358797504930e-03
9.13078125000000e-01 4.21195194817483e-01 3.40948166023815e-03
9.25171875000000e-01 4.16672407376234e-01 3.39513556427134e-03
9.37265625000000e-01 4.12198185556079e-01 3.38056091414637e-03
9.49359375000000e-01 4.07772007860138e-01 3.36576855378668e-03
9.61453125000000e-01 4.03393358391351e-01 3.35076895908891e-03
9.73546875000000e-01 3.99061726792356e-01 3.33557225221577e-03
9.85640625000000e-01 3.94776608186001e-01 3.32018821518260e-03
9.97734375000000e-01 3.90537503116493e-01 3.30462630278111e-03
1.00982812500000e+00 3.86343917491192e-01 3.28889565488104e-03
1.02192187500000e+00 3.82195362523015e-01 3.27300510814756e-03
1.03401562500000e+00 3.78091354673466e-01 3.25696320720920e-03
1.04610937500000e+00 3.74031415596280e-01 3.24077821530854e-03
1.05820312500000e+00 3.70015072081666e-01 3.22445812446661e-03
1.07029687500000e+00 3.66041856001152e-01 3.20801066518732e-03
1.08239062500000e+00 3.62111304253022e-01 3.19144331572927e-03
1.09448437500000e+00 3.58222958708340e-01 3.17476331096956e-03
1.10657812500000e+00 3.54376366157550e-01 3.15797765088036e-03
1.11867187500000e+00 3.50571078257654e-01 3.14109310864113e-03
1.13076562500000e+00 3.46806651479955e-01 3.12411623840567e-03
1.14285937500000e+00 3.43082647058358e-01 3.10705338274177e-03
1.15495312500000e+00 3.39398630938235e-01 3.08991067976154e-03
1.16704687500000e+00 3.35754173725825e-01 3.07269406995847e-03
1.17914062500000e+00 3.32148850638195e-01 3.05540930276551e-03
1.19123437500000e+00 3.28582241453722e-01 3.03806194284918e-03
1.20332812500000e+00 3.25053930463116e-01 3.02065737615288e-03
1.21542187500000e+00 3.21563506420970e-01 3.00320081570152e-03
1.22751562500000e+00 3.18110562497819e-01 2.98569730717966e-03
1.23960937500000e+00 3.14694696232731e-01 2.96815173429368e-03
1.25170312500000e+00 3.11315509486391e-01 2.95056882392882e-03
1.26379687500000e+00 3.07972608394697e-01 2.93295315111064e-03
1.27589062500000e+00 3.04665603322856e-01 2.91530914377995e-03
1.28798437500000e+00 3.01394108819965e-01 2.89764108739040e-03
1.30007812500000e+00 2.98157743574088e-01 2.87995312933663e-03
1.31217187500000e+00 2.94956130367810e-01 2.86224928322013e-03
1.32426562500000e+00 2.91788896034271e-01 2.84453343296118e-03
1.33635937500000e+00 2.88655671413672e-01 2.82680933676339e-03
1.34845312500000e+00 2.85556091310245e-01 2.80908063093667e-03
1.36054687500000e+00 2.82489794449689e-01 2.79135083358597e-03
1.37264062500000e+00 2.79456423437059e-01 2.77362334817067e-03
1.38473437500000e+00 2.76455624715113e-01 2.75590146694027e-03
1.39682812500000e+00 2.73487048523103e-01 2.73818837425280e-03
1.40892187500000e+00 2.70550348856003e-01 2.72048714977933e-03
1.42101562500000e+00 2.67645183424184e-01 2.70280077159991e-03
1.43310937500000e+00 2.64771213613521e-01 2.68513211919603e-03
1.44520312500000e+00 2.61928104445919e-01 2.66748397634302e-03
1.45729687500000e+00 2.59115524540272e-01 2.64985903390651e-03
1.46939062500000e+00 2.56333146073843e-01 2.63225989254770e-03
1.48148437500000e+00 2.53580644744047e-01 2.61468906534008e-03
1.49357812500000e+00 2.50857699730657e-01 2.59714898030111e-03
1.50567187500000e+00 2.48163993658406e-01 2.57964198284310e-03
1.51776562500000e+00 2.45499212560001e-01 2.56217033814573e-03
1.52985937500000e+00 2.42863045839523e-01 2.54473623345298e-03
1.54195312500000e+00 2.40255186236227e-01 2.52734178029823e-03
1.55404687500000e+00 2.37675329788731e-01 2.50998901665948e-03
1.56614062500000e+00 2.35123175799583e-01 2.49267990904727e-03
1.57823437500000e+00 2.32598426800217e-01 2.47541635452878e-03
1.59032812500000e+00 2.30100788516280e-01 2.45820018268940e-03
1.60242187500000e+00 2.27629969833331e-01 2.44103315753430e-03
1.61451562500000e+00 2.25185682762914e-01 2.42391697933264e-03
1.62660937500000e+00 2.22767642408985e-01 2.40685328640610e-03
1.63870312500000e+00 2.20375566934713e-01 2.38984365686362e-03
1.65079687500000e+00 2.18009177529624e-01 2.37288961028466e-03
1.66289062500000e+00 2.15668198377106e-01 2.35599260935240e-03
1.67498437500000e+00 2.13352356622265e-01 2.33915406143879e-03
1.68707812500000e+00 2.11061382340114e-01 2.32237532014333e-03
1.69917187500000e+00 2.08795008504120e-01 2.30565768678676e-03
1.71126562500000e+00 2.06552970955075e-01 2.28900241186138e-03
1.72335937500000e+00 2.04335008370309e-01 2.27241069643965e-03
1.73545312500000e+00 2.02140862233230e-01 2.25588369354229e-03
1.74754687500000e+00 1.99970276803194e-01 2.23942250946730e-03
1.75964062500000e+00 1.97822999085697e-01 2.22302820508081e-03
1.77173437500000e+00 1.95698778802883e-01 2.20670179707189e-03
1.78382812500000e+00 1.93597368364377e-01 2.19044425917162e-03
1.79592187500000e+00 1.91518522838429e-01 2.17425652333800e-03
1.80801562500000e+00 1.89461999923357e-01 2.15813948090821e-03
1.82010937500000e+00 1.87427559919313e-01 2.14209398371798e-03
1.83220312500000e+00 1.85414965700345e-01 2.12612084519053e-03
1.84429687500000e+00 1.83423982686750e-01 2.11022084139543e-03
1.85639062500000e+00 1.81454378817743e-01 2.09439471207803e-03
1.86848437500000e+00 1.79505924524402e-01 2.07864316166121e-03
1.88057812500000e+00 1.77578392702913e-01 2.06296686021917e-03
1.89267187500000e+00 1.75671558688100e-01 2.04736644442526e-03
1.90476562500000e+00 1.73785200227235e-01 2.03184251847420e-03
1.91685937500000e+00 1.71919097454141e-01 2.01639565497901e-03
1.92895312500000e+00 1.70073032863557e-01 2.00102639584422e-03
1.94104687500000e+00 1.68246791285792e-01 1.98573525311546e-03
1.95314062500000e+00 1.66440159861642e-01 1.97052270980642e-03
1.96523437500000e+00 1.64652928017585e-01 1.95538922070385e-03
1.97732812500000e+00 1.62884887441230e-01 1.94033521315123e-03
1.98942187500000e+00 1.61135832057044e-01 1.92536108781165e-03
2.00151562500000e+00 1.59405558002330e-01 1.91046721941054e-03
2.01360937500000e+00 1.57693863603464e-01 1.89565395745911e-03
2.02570312500000e+00 1.56000549352391e-01 1.88092162695846e-03
2.03779687500000e+00 1.54325417883370e-01 1.86627052908546e-03
2.04989062500000e+00 1.52668273949971e-01 1.85170094186116e-03
2.06198437500000e+00 1.51028924402316e-01 1.83721312080103e-03
2.07407812500000e+00 1.49407178164570e-01 1.82280729954869e-03
2.08617187500000e+00 1.47802846212663e-01 1.80848369049361e-03
2.09826562500000e+00 1.46215741552266e-01 1.79424248537244e-03
2.11035937500000e+00 1.44645679196991e-01 1.78008385585490e-03
2.12245312500000e+00 1.43092476146831e-01 1.76600795411465e-03
2.13454687500000e+00 1.41555951366830e-01 1.75201491338569e-03
2.14664062500000e+00 1.40035925765984e-01 1.73810484850439e-03
2.15873437500000e+00 1.38532222176362e-01 1.72427785643756e-03
2.17082812500000e+00 1.37044665332464e-01 1.71053401679715e-03
2.18292187500000e+00 1.35573081850786e-01 1.69687339234209e-03
2.19501562500000e+00 1.34117300209611e-01 1.68329602946724e-03
2.20710937500000e+00 1.32677150729024e-01 1.66980195867968e-03
2.21920312500000e+00 1.31252465551126e-01 1.65639119506321e-03
2.23129687500000e+00 1.29843078620478e-01 1.64306373873114e-03
2.24339062500000e+00 1.28448825664738e-01 1.62981957526766e-03
2.25548437500000e+00 1.27069544175519e-01 1.61665867615794e-03
2.26757812500000e+00 1.25705073389447e-01 1.60358099920751e-03
2.27967187500000e+00 1.24355254269422e-01 1.59058648895111e-03
2.29176562500000e+00 1.23019929486083e-01 1.57767507705125e-03
2.30385937500000e+00 1.21698943399468e-01 1.56484668268681e-03
2.31595312500000e+00 1.20392142040875e-01 1.55210121293196e-03
2.32804687500000e+00 1.19099373094916e-01 1.53943856312540e-03
2.34014062500000e+00 1.17820485881761e-01 1.52685861723057e-03
2.35223437500000e+00 1.16555331339580e-01 1.51436124818690e-03
2.36432812500000e+00 1.15303762007167e-01 1.50194631825214e-03
2.37642187500000e+00 1.14065632006751e-01 1.48961367933627e-03
2.38851562500000e+00 1.12840797026994e-01 1.47736317332698e-03
2.40060937500000e+00 1.11629114306170e-01 1.46519463240722e-03
2.41270312500000e+00 1.10430442615529e-01 1.45310787936467e-03
2.42479687500000e+00 1.09244642242832e-01 1.44110272789362e-03
2.43689062500000e+00 1.08071574976066e-01 1.42917898288944e-03
2.44898437500000e+00 1.06911104087338e-01 1.41733644073537e-03
2.46107812500000e+00 1.05763094316937e-01 1.40557488958259e-03
2.47317187500000e+00 1.04627411857569e-01 1.39389410962323e-03
2.48526562500000e+00 1.03503924338760e-01 1.38229387335644e-03
2.49735937500000e+00 1.02392500811428e-01 1.37077394584789e-03
2.50945312500000e+00 1.01293011732621e-01 1.35933408498308e-03
2.52154687500000e+00 1.00205328950416e-01 1.34797404171415e-03
2.53364062500000e+00 9.91293256889836e-02 1.33669356030037e-03
2.54573437500000e+00 9.80648765338125e-02 1.32549237854304e-03
2.55782812500000e+00 9.70118574170894e-02 1.31437022801440e-03
2.56992187500000e+00 9.59701456032394e-02 1.30332683428076e-03
2.58201562500000e+00 9.49396196746204e-02 1.29236191712009e-03
2.59410937500000e+00 9.39201595173710e-02 1.28147519073434e-03
2.60620312500000e+00 9.29116463074107e-02 1.27066636395640e-03
2.61829687500000e+00 9.19139624965899e-02 1.25993514045183e-03
2.63039062500000e+00 9.09269917989893e-02 1.24928121891562e-03
2.64248437500000e+00 8.99506191773662e-02 1.23870429326403e-03
2.65457812500000e+00 8.89847308297457e-02 1.22820405282181e-03
2.66667187500000e+00 8.80292141761570e-02 1.21778018250437e-03
2.67876562500000e+00 8.70839578455110e-02 1.20743236299563e-03
2.69085937500000e+00 8.61488516626197e-02 1.19716027092148e-03
2.70295312500000e+00 8.52237866353548e-02 1.18696357901871e-03
2.71504687500000e+00 8.43086549419435e-02 1.17684195629979e-03
2.72714062500000e+00 8.34033499184016e-02 1.16679506821354e-03
2.73923437500000e+00 8.25077660461011e-02 1.15682257680171e-03
2.75132812500000e+00 8.16217989394715e-02 1.14692414085157e-03
2.76342187500000e+00 8.07453453338326e-02 1.13709941604465e-03
2.77551562500000e+00 7.98783030733591e-02 1.12734805510185e-03
2.78760937500000e+00 7.90205710991732e-02 1.11766970792471e-03
2.79970312500000e+00 7.81720494375657e-02 1.10806402173326e-03
2.81179687500000e+00 7.73326391883437e-02 1.09853064120014e-03
2.82389062500000e+00 7.65022425133029e-02 1.08906920858142e-03
2.83598437500000e+00 7.56807626248241e-02 1.07967936384420e-03
2.84807812500000e+00 7.48681037745921e-02 1.07036074479075e-03
2.86017187500000e+00 7.40641712424355e-02 1.06111298717950e-03
2.87226562500000e+00 7.32688713252869e-02 1.05193572484309e-03
2.88435937500000e+00 7.24821113262607e-02 1.04282858980315e-03
2.89645312500000e+00 7.17037995438492e-02 1.03379121238225e-03
2.90854687500000e+00 7.09338452612340e-02 1.02482322131291e-03
2.92064062500000e+00 7.01721587357123e-02 1.01592424384373e-03
2.93273437500000e+00 6.94186511882373e-02 1.00709390584284e-03
2.94482812500000e+00 6.86732347930702e-02 9.98331831898732e-04
2.95692187500000e+00 6.79358226675434e-02 9.89637645418161e-04
2.96901562500000e+00 6.72063288619344e-02 9.81010968721687e-04
2.98110937500000e+00 6.64846683494471e-02 9.72451423136718e-04
2.99320312500000e+00 6.57707570163021e-02 9.63958629088004e-04
3.00529687500000e+00 6.50645116519321e-02 9.55532206185693e-04
3.01739062500000e+00 6.43658499392840e-02 9.47171773311114e-04
3.02948437500000e+00 6.36746904452236e-02 9.38876948700354e-04
3.04157812500000e+00 6.29909526110448e-02 9.30647350025407e-04
3.05367187500000e+00 6.23145567430791e-02 9.22482594473196e-04
3.06576562500000e+00 6.16454240034080e-02 9.14382298822606e-04
3.07785937500000e+00 6.09834764006727e-02 9.06346079519192e-04
3.08995312500000e+00 6.03286367809849e-02 8.98373552747925e-04
3.10204687500000e+00 5.96808288189333e-02 8.90464334504118e-04
3.11414062500000e+00 5.90399770086877e-02 8.82618040662160e-04
3.12623437500000e+00 5.84060066551983e-02 8.74834287042459e-04
3.13832812500000e+00 5.77788438654898e-02 8.67112689476549e-04
3.15042187500000e+00 5.71584155400481e-02 8.59452863870351e-04
3.16251562500000e+00 5.65446493643011e-02 8.51854426265636e-04
3.17460937500000e+00 5.59374738001889e-02 8.44316992899783e-04
3.18670312500000e+00 5.53368180778266e-02 8.36840180263821e-04
3.19879687500000e+00 5.47426121872549e-02 8.29423605158880e-04
3.21089062500000e+00 5.41547868702806e-02 8.22066884750931e-04
3.22298437500000e+00 5.35732736124038e-02 8.14769636623999e-04
3.23507812500000e+00 5.29980046348322e-02 8.07531478831837e-04
3.24717187500000e+00 5.24289128865812e-02 8.00352029948083e-04
3.25926562500000e+00 5.18659320366585e-02 7.93230909114937e-04
3.27135937500000e+00 5.13089964663330e-02 7.86167736090366e-04
3.28345312500000e+00 5.07580412614867e-02 7.79162131294012e-04
3.29554687500000e+00 5.02130022050480e-02 7.72213715851574e-04
3.30764062500000e+00 4.96738157695077e-02 7.65322111637970e-04
3.31973437500000e+00 4.91404191095136e-02 7.58486941319164e-04
3.33182812500000e+00 4.86127500545462e-02 7.51707828392659e-04
3.34392187500000e+00 4.80907471016717e-02 7.44984397226783e-04
3.35601562500000e+00 4.75743494083744e-02 7.38316273098736e-04
3.36810937500000e+00 4.70634967854640e-02 7.31703082231488e-04
3.38020312500000e+00 4.65581296900612e-02 7.25144451829409e-04
3.39229687500000e+00 4.60581892186571e-02 7.18640010112880e-04
3.40439062500000e+00 4.55636171002477e-02 7.12189386351719e-04
3.41648437500000e+00 4.50743556895421e-02 7.05792210897475e-04
3.42857812500000e+00 4.45903479602437e-02 6.99448115214799e-04
3.44067187500000e+00 4.41115374984035e-02 6.93156731911674e-04
3.45276562500000e+00 4.36378684958443e-02 6.86917694768596e-04
3.46485937500000e+00 4.31692857436566e-02 6.80730638766895e-04
3.47695312500000e+00 4.27057346257630e-02 6.74595200115994e-04
3.48904687500000e+00 4.22471611125529e-02 6.68511016279735e-04
3.50114062500000e+00 4.17935117545847e-02 6.62477726001846e-04
3.51323437500000e+00 4.13447336763562e-02 6.56494969330415e-04
3.52532812500000e+00 4.09007745701413e-02 6.50562387641473e-04
3.53742187500000e+00 4.04615826898937e-02 6.44679623661858e-04
3.54951562500000e+00 4.00271068452151e-02 6.38846321491125e-04
3.56160937500000e+00 3.95972963953892e-02 6.33062126622670e-04
3.57370312500000e+00 3.91721012434785e-02 6.27326685964063e-04
3.58579687500000e+00 3.87514718304861e-02 6.21639647856512e-04
3.59789062500000e+00 3.83353591295785e-02 6.16000662093739e-04
3.60998437500000e+00 3.79237146403717e-02 6.10409379939973e-04
3.62207812500000e+00 3.75164903832780e-02 6.04865454147226e-04
3.63417187500000e+00 3.71136388939140e-02 5.99368538971941e-04
3.64626562500000e+00 3.67151132175677e-02 5.93918290190868e-04
3.65835937500000e+00 3.63208669037265e-02 5.88514365116290e-04
3.67045312500000e+00 3.59308540006624e-02 5.83156422610609e-04
3.68254687500000e+00 3.55450290500764e-02 5.77844123100247e-04
3.69464062500000e+00 3.51633470818000e-02 5.72577128588940e-04
3.70673437500000e+00 3.47857636085537e-02 5.67355102670462e-04
3.71882812500000e+00 3.44122346207618e-02 5.62177710540690e-04
3.73092187500000e+00 3.40427165814225e-02 5.57044619009092e-04
3.74301562500000e+00 3.36771664210340e-02 5.51955496509646e-04
3.75510937500000e+00 3.33155415325737e-02 5.46910013111241e-04
3.76720312500000e+00 3.29577997665329e-02 5.41907840527501e-04
3.77929687500000e+00 3.26038994260035e-02 5.36948652126065e-04
3.79139062500000e+00 3.22537992618182e-02 5.32032122937419e-04
3.80348437500000e+00 3.19074584677426e-02 5.27157929663121e-04
3.81557812500000e+00 3.15648366757191e-02 5.22325750683638e-04
