Energy (eV)          EEDF (eV^-(3/2))     First Anisotropy
8.00000000000000e-02 8.46822870837131e-02 9.05776599708714e-05
2.40000000000000e-01 8.22825266607931e-02 1.47947552673283e-04
4.00000000000000e-01 7.99507716057422e-02 1.91057427740716e-04
5.60000000000000e-01 7.76850947553462e-02 2.21330685522577e-04
7.20000000000000e-01 7.54836235590934e-02 2.44605191948726e-04
8.80000000000000e-01 7.33445385315527e-02 2.63164903202744e-04
1.04000000000000e+00 7.12660717485960e-02 2.78229762274339e-04
1.20000000000000e+00 6.92465053862337e-02 2.90558629851109e-04
1.36000000000000e+00 6.72841703008576e-02 3.00668985887204e-04
1.52000000000000e+00 6.53774446497165e-02 3.08936190818230e-04
1.68000000000000e+00 6.35247525504859e-02 3.15644871474419e-04
1.84000000000000e+00 6.17245627788230e-02 3.21018174192245e-04
2.00000000000000e+00 5.99753875028312e-02 3.25235635615483e-04
2.16000000000000e+00 5.82757810533874e-02 3.28444714021724e-04
2.32000000000000e+00 5.66243387293167e-02 3.30768563250678e-04
2.48000000000000e+00 5.50196956364263e-02 3.32311465382906e-04
2.64000000000000e+00 5.34605255594393e-02 3.33162743204771e-04
2.80000000000000e+00 5.19455398658962e-02 3.33399650826568e-04
2.96000000000000e+00 5.04734864411182e-02 3.33089556880800e-04
3.12000000000000e+00 4.90431486533515e-02 3.32291625339100e-04
3.28000000000000e+00 4.76533443482380e-02 3.31058131531311e-04
3.44000000000000e+00 4.63029248717814e-02 3.29435508024799e-04
3.60000000000000e+00 4.49907741210006e-02 3.27465186943002e-04
3.76000000000000e+00 4.37158076214856e-02 3.25184286481426e-04
3.92000000000000e+00 4.24769716310948e-02 3.22626176487314e-04
4.08000000000000e+00 4.12732422690518e-02 3.19820948964691e-04
4.24000000000000e+00 4.01036246697216e-02 3.16795812965390e-04
4.40000000000000e+00 3.89671521603688e-02 3.13575428703401e-04
4.56000000000000e+00 3.78628854622151e-02 3.10182192341574e-04
4.72000000000000e+00 3.67899119141390e-02 3.06636480383062e-04
4.88000000000000e+00 3.57473447183737e-02 3.02956860707843e-04
5.04000000000000e+00 3.47343222075814e-02 2.99160275855860e-04
5.20000000000000e+00 3.37500071326968e-02 2.95262203052654e-04
5.36000000000000e+00 3.27935859709525e-02 2.91276794615569e-04
5.52000000000000e+00 3.18642682535136e-02 2.87217001706829e-04
5.68000000000000e+00 3.09612859121667e-02 2.83094683869324e-04
5.84000000000000e+00 3.00838926445212e-02 2.78920706358849e-04
6.00000000000000e+00 2.92313632972017e-02 2.74705026947892e-04
6.16000000000000e+00 2.84029932665182e-02 2.70456773602791e-04
6.32000000000000e+00 2.75980979161210e-02 2.66184314213774e-04
6.48000000000000e+00 2.68160120111583e-02 2.61895319375703e-04
6.64000000000000e+00 2.60560891684690e-02 2.57596819067804e-04
6.80000000000000e+00 2.53177013223556e-02 2.53295253956926e-04
6.96000000000000e+00 2.46002382054970e-02 2.48996521945999e-04
7.12000000000000e+00 2.39031068445706e-02 2.44706020503349e-04
7.28000000000000e+00 2.32257310701686e-02 2.40428685236296e-04
7.44000000000000e+00 2.25675510406013e-02 2.36169025111426e-04
7.60000000000000e+00 2.19280227791964e-02 2.31931154672415e-04
7.76000000000000e+00 2.13066177247092e-02 2.27718823562231e-04
7.92000000000000e+00 2.07028222944745e-02 2.23535443618997e-04
8.08000000000000e+00 2.01161374599375e-02 2.19384113782629e-04
8.24000000000000e+00 1.95460783342135e-02 2.15267643021638e-04
8.40000000000000e+00 1.89921737713358e-02 2.11188571465544e-04
8.56000000000000e+00 1.84539659768599e-02 2.07149189907605e-04
8.72000000000000e+00 1.79310101295031e-02 2.03151557824539e-04
8.88000000000000e+00 1.74228740135052e-02 1.99197520044186e-04
9.04000000000000e+00 1.69291376614088e-02 1.95288722178318e-04
9.20000000000000e+00 1.64493930069620e-02 1.91426624925725e-04
9.36000000000000e+00 1.59832435478566e-02 1.87612517340103e-04
9.52000000000000e+00 1.55303040180253e-02 1.83847529147916e-04
9.68000000000000e+00 1.50902000692243e-02 1.80132642193152e-04
9.84000000000000e+00 1.46625679616393e-02 1.76468701078496e-04
1.00000000000000e+01 1.42470542632602e-02 1.72856423066026e-04
1.01600000000000e+01 1.38433155577741e-02 1.69296407294668e-04
1.03200000000000e+01 1.34510181607364e-02 1.65789143366501e-04
1.04800000000000e+01 1.30698378437855e-02 1.62335019349365e-04
1.06400000000000e+01 1.26994595666724e-02 1.58934329239096e-04
1.08000000000000e+01 1.23395772168842e-02 1.55587279920976e-04
1.09600000000000e+01 1.19898933566466e-02 1.52293997666626e-04
1.11200000000000e+01 1.16501189770955e-02 1.49054534199587e-04
1.12800000000000e+01 1.13199732594154e-02 1.45868872360069e-04
1.14400000000000e+01 1.09991833427461e-02 1.42736931396919e-04
1.16000000000000e+01 1.06874840986674e-02 1.39658571912597e-04
1.17600000000000e+01 1.03846179120743e-02 1.36633600484931e-04
1.19200000000000e+01 1.00903344682608e-02 1.33661773987601e-04
1.20800000000000e+01 9.80439054603939e-03 1.30742803629605e-04
1.22400000000000e+01 9.52654981672130e-03 1.27876358732416e-04
1.24000000000000e+01 9.25658264879445e-03 1.25062070262201e-04
1.25600000000000e+01 8.99426591813613e-03 1.22299534133125e-04
1.27200000000000e+01 8.73938282360402e-03 1.19588314296658e-04
1.28800000000000e+01 8.49172270785301e-03 1.16927945630701e-04
1.30400000000000e+01 8.25108088322985e-03 1.14317936641365e-04
1.32000000000000e+01 8.01725846260164e-03 1.11757771989359e-04
1.33600000000000e+01 7.79006219497837e-03 1.09246914852069e-04
1.35200000000000e+01 7.56930430579365e-03 1.06784809131719e-04
1.36800000000000e+01 7.35480234171166e-03 1.04370881519211e-04
1.38400000000000e+01 7.14637901983194e-03 1.02004543422652e-04
1.40000000000000e+01 6.94386208116757e-03 9.96851927689861e-05
1.41600000000000e+01 6.74708414827553e-03 9.74122156865220e-05
1.43200000000000e+01 6.55588258692149e-03 9.51849880757176e-05
1.44800000000000e+01 6.37009937166493e-03 9.30028770750508e-05
1.46400000000000e+01 6.18958095525329e-03 9.08652424283849e-05
1.48000000000000e+01 6.01417814171729e-03 8.87714377598284e-05
1.49600000000000e+01 5.84374596306251e-03 8.67208117617030e-05
1.51200000000000e+01 5.67814355945539e-03 8.47127093008761e-05
1.52800000000000e+01 5.51723406280448e-03 8.27464724484030e-05
1.54400000000000e+01 5.36088448364093e-03 8.08214414370979e-05
1.56000000000000e+01 5.20896560120447e-03 7.89369555513690e-05
1.57600000000000e+01 5.06135185664425e-03 7.70923539534056e-05
1.59200000000000e+01 4.91792124924625e-03 7.52869764495367e-05
1.60800000000000e+01 4.77855523560131e-03 7.35201642003537e-05
1.62400000000000e+01 4.64313863163069e-03 7.17912603779836e-05
1.64000000000000e+01 4.51155951738798e-03 7.00996107736819e-05
1.65600000000000e+01 4.38370914455889e-03 6.84445643587322e-05
1.67200000000000e+01 4.25948184658219e-03 6.68254738014655e-05
1.68800000000000e+01 4.13877495131783e-03 6.52416959430411e-05
1.70400000000000e+01 4.02148869618979e-03 6.36925922344762e-05
1.72000000000000e+01 3.90752614573373e-03 6.21775291372642e-05
1.73600000000000e+01 3.79679311148115e-03 6.06958784897965e-05
1.75200000000000e+01 3.68919807411393e-03 5.92470178416540e-05
1.76800000000000e+01 3.58465210782489e-03 5.78303307577299e-05
1.78400000000000e+01 3.48306880682183e-03 5.64452070940306e-05
1.80000000000000e+01 3.38436421391437e-03 5.50910432468897e-05
1.81600000000000e+01 3.28845675112445e-03 5.37672423772318e-05
1.83200000000000e+01 3.19526715226330e-03 5.24732146114318e-05
1.84800000000000e+01 3.10471839741900e-03 5.12083772202268e-05
1.86400000000000e+01 3.01673564930063e-03 4.99721547770505e-05
1.88000000000000e+01 2.93124619138626e-03 4.87639792970862e-05
1.89600000000000e+01 2.84817936782376e-03 4.75832903582586e-05
1.91200000000000e+01 2.76746652503470e-03 4.64295352053186e-05
1.92800000000000e+01 2.68904095497316e-03 4.53021688381016e-05
1.94400000000000e+01 2.61283783999241e-03 4.42006540849889e-05
1.96000000000000e+01 2.53879419927404e-03 4.31244616625366e-05
1.97600000000000e+01 2.46684883677521e-03 4.20730702221843e-05
1.99200000000000e+01 2.39694229065093e-03 4.10459663849013e-05
2.00800000000000e+01 2.32901678410968e-03 4.00426447645875e-05
2.02400000000000e+01 2.26301617766173e-03 3.90626079809859e-05
2.04000000000000e+01 2.19888592272056e-03 3.81053666628357e-05
2.05600000000000e+01 2.13657301651928e-03 3.71704394419443e-05
2.07200000000000e+01 2.07602595830454e-03 3.62573529388183e-05
2.08800000000000e+01 2.01719470677186e-03 3.53656417404633e-05
2.10400000000000e+01 1.96003063870722e-03 3.44948483709188e-05
2.12000000000000e+01 1.90448650880061e-03 3.36445232550719e-05
2.13600000000000e+01 1.85051641059849e-03 3.28142246762532e-05
2.15200000000000e+01 1.79807573856268e-03 3.20035187280941e-05
2.16800000000000e+01 1.74712115120454e-03 3.12119792611002e-05
2.18400000000000e+01 1.69761053526382e-03 3.04391878243598e-05
2.20000000000000e+01 1.64950297090263e-03 2.96847336027919e-05
2.21600000000000e+01 1.60275869788577e-03 2.89482133503101e-05
2.23200000000000e+01 1.55733908271944e-03 2.82292313192548e-05
2.24800000000000e+01 1.51320658672119e-03 2.75273991864318e-05
2.26400000000000e+01 1.47032473499473e-03 2.68423359760704e-05
2.28000000000000e+01 1.42865808628392e-03 2.61736679799949e-05
2.29600000000000e+01 1.38817220368108e-03 2.55210286752908e-05
2.31200000000000e+01 1.34883362616535e-03 2.48840586397240e-05
2.32800000000000e+01 1.31060984094762e-03 2.42624054651626e-05
2.34400000000000e+01 1.27346925659916e-03 2.36557236692294e-05
2.36000000000000e+01 1.23738117694176e-03 2.30636746054038e-05
2.37600000000000e+01 1.20231577567775e-03 2.24859263717755e-05
2.39200000000000e+01 1.16824407173895e-03 2.19221537186409e-05
2.40800000000000e+01 1.13513790533428e-03 2.13720379551223e-05
2.42400000000000e+01 1.10296991467605e-03 2.08352668549766e-05
2.44000000000000e+01 1.07171351336579e-03 2.03115345617504e-05
2.45600000000000e+01 1.04134286842101e-03 1.98005414934303e-05
2.47200000000000e+01 1.01183287892461e-03 1.93019942467234e-05
2.48800000000000e+01 9.83159155279231e-04 1.88156055010961e-05
2.50400000000000e+01 9.55297999049697e-04 1.83410939226953e-05
2.52000000000000e+01 9.28226383376519e-04 1.78781840682581e-05
2.53600000000000e+01 9.01921933944541e-04 1.74266062891186e-05
2.55200000000000e+01 8.76362910490871e-04 1.69860966354058e-05
2.56800000000000e+01 8.51528188836858e-04 1.65563967605237e-05
2.58400000000000e+01 8.27397243429247e-04 1.61372538259985e-05
2.60000000000000e+01 8.03950130376102e-04 1.57284204067680e-05
2.61600000000000e+01 7.81167470963445e-04 1.53296543969874e-05
2.63200000000000e+01 7.59030435639027e-04 1.49407189164158e-05
2.64800000000000e+01 7.37520728449957e-04 1.45613822174468e-05
2.66400000000000e+01 7.16620571921356e-04 1.41914175928379e-05
2.68000000000000e+01 6.96312692363517e-04 1.38306032841910e-05
2.69600000000000e+01 6.76580305595438e-04 1.34787223912321e-05
2.71200000000000e+01 6.57407103072937e-04 1.31355627819330e-05
2.72800000000000e+01 6.38777238409857e-04 1.28009170035157e-05
2.74400000000000e+01 6.20675314281254e-04 1.24745821943738e-05
2.76000000000000e+01 6.03086369697716e-04 1.21563599969444e-05
2.77600000000000e+01 5.85995867640317e-04 1.18460564715610e-05
2.79200000000000e+01 5.69389683045972e-04 1.15434820113126e-05
2.80800000000000e+01 5.53254091133264e-04 1.12484512579315e-05
2.82400000000000e+01 5.37575756059108e-04 1.09607830187331e-05
2.84000000000000e+01 5.22341719896857e-04 1.06803001846252e-05
2.85600000000000e+01 5.07539391926758e-04 1.04068296492012e-05
2.87200000000000e+01 4.93156538229894e-04 1.01402022289330e-05
2.88800000000000e+01 4.79181271577024e-04 9.88025258447432e-06
2.90400000000000e+01 4.65602041603946e-04 9.62681914308494e-06
2.92000000000000e+01 4.52407625265288e-04 9.37974402218156e-06
2.93600000000000e+01 4.39587117558814e-04 9.13887295402503e-06
2.95200000000000e+01 4.27129922512588e-04 8.90405521154544e-06
2.96800000000000e+01 4.15025744427554e-04 8.67514353530881e-06
2.98400000000000e+01 4.03264579368281e-04 8.45199406162833e-06
3.00000000000000e+01 3.91836706894851e-04 8.23446625181913e-06
3.01600000000000e+01 3.80732682029047e-04 8.02242282259569e-06
3.03200000000000e+01 3.69943327448214e-04 7.81572967761087e-06
3.04800000000000e+01 3.59459725900323e-04 7.61425584013269e-06
3.06400000000000e+01 3.49273212833994e-04 7.41787338685432e-06
3.08000000000000e+01 3.39375369237353e-04 7.22645738283305e-06
3.09600000000000e+01 3.29758014679849e-04 7.03988581755248e-06
3.11200000000000e+01 3.20413200551228e-04 6.85803954210036e-06
3.12800000000000e+01 3.11333203492128e-04 6.68080220745533e-06
3.14400000000000e+01 3.02510519010824e-04 6.50806020387457e-06
3.16000000000000e+01 2.93937855280867e-04 6.33970260137273e-06
3.17600000000000e+01 2.85608127114497e-04 6.17562109128405e-06
3.19200000000000e+01 2.77514450106829e-04 6.01570992889734e-06
3.20800000000000e+01 2.69650134945991e-04 5.85986587715345e-06
3.22400000000000e+01 2.62008681884497e-04 5.70798815139463e-06
3.24000000000000e+01 2.54583775367297e-04 5.55997836515472e-06
3.25600000000000e+01 2.47369278812059e-04 5.41574047697839e-06
3.27200000000000e+01 2.40359229537370e-04 5.27518073825811e-06
3.28800000000000e+01 2.33547833834658e-04 5.13820764207679e-06
3.30400000000000e+01 2.26929462179777e-04 5.00473187304331e-06
3.32000000000000e+01 2.20498644580282e-04 4.87466625810851e-06
3.33600000000000e+01 2.14250066054553e-04 4.74792571834899e-06
3.35200000000000e+01 2.08178562239040e-04 4.62442722170610e-06
3.36800000000000e+01 2.02279115119988e-04 4.50408973666639e-06
3.38400000000000e+01 1.96546848886116e-04 4.38683418687085e-06
3.40000000000000e+01 1.90977025898826e-04 4.27258340663932e-06
3.41600000000000e+01 1.85565042776615e-04 4.16126209739685e-06
3.43200000000000e+01 1.80306426590438e-04 4.05279678498855e-06
3.44800000000000e+01 1.75196831166900e-04 3.94711577786942e-06
3.46400000000000e+01 1.70232033496197e-04 3.84414912615563e-06
3.48000000000000e+01 1.65407930241866e-04 3.74382858152373e-06
3.49600000000000e+01 1.60720534349424e-04 3.64608755794414e-06
3.51200000000000e+01 1.56165971751132e-04 3.55086109323570e-06
3.52800000000000e+01 1.51740478164126e-04 3.45808581142757e-06
3.54400000000000e+01 1.47440395979290e-04 3.36769988591507e-06
3.56000000000000e+01 1.43262171238295e-04 3.27964300339612e-06
3.57600000000000e+01 1.39202350696301e-04 3.19385632857504e-06
3.59200000000000e+01 1.35257578967896e-04 3.11028246962028e-06
3.60800000000000e+01 1.31424595753919e-04 3.02886544436298e-06
3.62400000000000e+01 1.27700233146867e-04 2.94955064722343e-06
3.64000000000000e+01 1.24081413012662e-04 2.87228481685228e-06
3.65600000000000e+01 1.20565144446618e-04 2.79701600447368e-06
3.67200000000000e+01 1.17148521301498e-04 2.72369354291752e-06
3.68800000000000e+01 1.13828719785626e-04 2.65226801632839e-06
3.70400000000000e+01 1.10602996129059e-04 2.58269123053848e-06
3.72000000000000e+01 1.07468684315901e-04 2.51491618409200e-06
3.73600000000000e+01 1.04423193880878e-04 2.44889703990909e-06
3.75200000000000e+01 1.01464007768356e-04 2.38458909757691e-06
3.76800000000000e+01 9.85886802520234e-05 2.32194876625593e-06
3.78400000000000e+01 9.57948349135392e-05 2.26093353818979e-06
3.80000000000000e+01 9.30801626784520e-05 2.20150196280678e-06
3.81600000000000e+01 9.04424199077833e-05 2.14361362140146e-06
3.83200000000000e+01 8.78794265436906e-05 2.08722910238508e-06
3.84800000000000e+01 8.53890643076801e-05 2.03230997709360e-06
3.86400000000000e+01 8.29692749498786e-05 1.97881877614201e-06
3.88000000000000e+01 8.06180585479187e-05 1.92671896631431e-06
3.89600000000000e+01 7.83334718540307e-05 1.87597492797810e-06
3.91200000000000e+01 7.61136266889751e-05 1.82655193301335e-06
3.92800000000000e+01 7.39566883814887e-05 1.77841612324475e-06
3.94400000000000e+01 7.18608742519543e-05 1.73153448936755e-06
3.96000000000000e+01 6.98244521390403e-05 1.68587485035638e-06
3.97600000000000e+01 6.78457389680943e-05 1.64140583334740e-06
3.99200000000000e+01 6.59230993601040e-05 1.59809685398396e-06
4.00800000000000e+01 6.40549442800803e-05 1.55591809721581e-06
4.02400000000000e+01 6.22397297237408e-05 1.51484049854258e-06
4.04000000000000e+01 6.04759554414127e-05 1.47483572569213e-06
4.05600000000000e+01 5.87621636980964e-05 1.43587616072461e-06
4.07200000000000e+01 5.70969380686683e-05 1.39793488255311e-06
4.08800000000000e+01 5.54789022672244e-05 1.36098564987207e-06
4.10400000000000e+01 5.39067190096001e-05 1.32500288448473e-06
4.12000000000000e+01 5.23790889081224e-05 1.28996165502112e-06
4.13600000000000e+01 5.08947493976845e-05 1.25583766103792e-06
4.15200000000000e+01 4.94524736922530e-05 1.22260721749220e-06
4.16800000000000e+01 4.80510697709466e-05 1.19024723958086e-06
4.18400000000000e+01 4.66893793928468e-05 1.15873522793762e-06
4.20000000000000e+01 4.53662771397283e-05 1.12804925417998e-06
4.21600000000000e+01 4.40806694859165e-05 1.09816794679826e-06
4.23200000000000e+01 4.28314938945031e-05 1.06907047737941e-06
4.24800000000000e+01 4.16177179391746e-05 1.04073654715795e-06
4.26400000000000e+01 4.04383384509263e-05 1.01314637388707e-06
4.28000000000000e+01 3.92923806889565e-05 9.86280679022447e-07
4.29600000000000e+01 3.81788975350572e-05 9.60120675212075e-07
4.31200000000000e+01 3.70969687108341e-05 9.34648054085243e-07
4.32800000000000e+01 3.60457000171087e-05 9.09844974333799e-07
4.34400000000000e+01 3.50242225948756e-05 8.85694050079231e-07
4.36000000000000e+01 3.40316922072025e-05 8.62178339519167e-07
4.37600000000000e+01 3.30672885414797e-05 8.39281333846869e-07
4.39200000000000e+01 3.21302145314437e-05 8.16986946437650e-07
4.40800000000000e+01 3.12196956984124e-05 7.95279502296080e-07
4.42400000000000e+01 3.03349795111895e-05 7.74143727758023e-07
4.44000000000000e+01 2.94753347641080e-05 7.53564740441782e-07
4.45600000000000e+01 2.86400509726985e-05 7.33528039442572e-07
4.47200000000000e+01 2.78284377864841e-05 7.14019495764779e-07
4.48800000000000e+01 2.70398244184147e-05 6.95025342986491e-07
4.50400000000000e+01 2.62735590904713e-05 6.76532168151019e-07
4.52000000000000e+01 2.55290084949805e-05 6.58526902880124e-07
4.53600000000000e+01 2.48055572711940e-05 6.40996814703820e-07
4.55200000000000e+01 2.41026074967019e-05 6.23929498601781e-07
4.56800000000000e+01 2.34195781932582e-05 6.07312868751342e-07
4.58400000000000e+01 2.27559048466100e-05 5.91135150477393e-07
4.60000000000000e+01 2.21110389399342e-05 5.75384872399371e-07
4.61600000000000e+01 2.14844475004965e-05 5.60050858770776e-07
4.63200000000000e+01 2.08756126591564e-05 5.45122222006726e-07
4.64800000000000e+01 2.02840312223557e-05 5.30588355395095e-07
4.66400000000000e+01 1.97092142562357e-05 5.16438925986964e-07
4.68000000000000e+01 1.91506866825405e-05 5.02663867662114e-07
4.69600000000000e+01 1.86079868859715e-05 4.89253374365466e-07
4.71200000000000e+01 1.80806663326681e-05 4.76197893510433e-07
4.72800000000000e+01 1.75682891995015e-05 4.63488119545223e-07
4.74400000000000e+01 1.70704320138723e-05 4.51114987678200e-07
4.76000000000000e+01 1.65866833037166e-05 4.39069667758571e-07
4.77600000000000e+01 1.61166432574300e-05 4.27343558308713e-07
4.79200000000000e+01 1.56599233934285e-05 4.15928280704464e-07
4.80800000000000e+01 1.52161462390746e-05 4.04815673499886e-07
4.82400000000000e+01 1.47849450187007e-05 3.93997786893062e-07
4.84000000000000e+01 1.43659633504742e-05 3.83466877329535e-07
4.85600000000000e+01 1.39588549518532e-05 3.73215402240083e-07
4.87200000000000e+01 1.35632833533886e-05 3.63236014909606e-07
4.88800000000000e+01 1.31789216206365e-05 3.53521559473994e-07
4.90400000000000e+01 1.28054520839520e-05 3.44065066041864e-07
4.92000000000000e+01 1.24425660759389e-05 3.34859745938184e-07
4.93600000000000e+01 1.20899636763411e-05 3.25898987066823e-07
4.95200000000000e+01 1.17473534641621e-05 3.17176349389161e-07
4.96800000000000e+01 1.14144522768100e-05 3.08685560515927e-07
4.98400000000000e+01 1.10909849760672e-05 3.00420511409576e-07
5.00000000000000e+01 1.07766842206928e-05 2.92375252194470e-07
5.01600000000000e+01 1.04712902454683e-05 2.84543988072241e-07
5.03200000000000e+01 1.01745506465059e-05 2.76921075339819e-07
5.04800000000000e+01 9.88622017263969e-06 2.69501017507593e-07
