Energy (eV)          EEDF (eV^-(3/2))     First Anisotropy
3.20270270270270e-02 6.24293917226044e-02 3.84267168315099e-05
9.60810810810811e-02 6.18496482078553e-02 6.33718486307440e-05
1.60135135135135e-01 6.12752884169541e-02 8.34421732886870e-05
2.24189189189189e-01 6.07062623535758e-02 9.85590252615335e-05
2.88243243243243e-01 6.01425204866515e-02 1.11058941945446e-04
3.52297297297297e-01 5.95840137450807e-02 1.21828506454813e-04
4.16351351351351e-01 5.90306935134585e-02 1.31328089175806e-04
4.80405405405405e-01 5.84825116278426e-02 1.39836617268484e-04
5.44459459459459e-01 5.79394203715602e-02 1.47539685538933e-04
6.08513513513513e-01 5.74013724710546e-02 1.54568893609972e-04
6.72567567567568e-01 5.68683210909443e-02 1.61021971048101e-04
7.36621621621622e-01 5.63402198325184e-02 1.66974100054253e-04
8.00675675675676e-01 5.58170227270133e-02 1.72484750825211e-04
8.64729729729730e-01 5.52986842325531e-02 1.77602039133666e-04
9.28783783783784e-01 5.47851592301841e-02 1.82365628579610e-04
9.92837837837838e-01 5.42764030199470e-02 1.86808733516733e-04
1.05689189189189e+00 5.37723713193207e-02 1.90959544495004e-04
1.12094594594595e+00 5.32730202495264e-02 1.94842265947545e-04
1.18500000000000e+00 5.27783063489231e-02 1.98477891646391e-04
1.24905405405405e+00 5.22881865507819e-02 2.01884793227266e-04
1.31310810810811e+00 5.18026181965664e-02 2.05079174737755e-04
1.37716216216216e+00 5.13215590159963e-02 2.08075429253464e-04
1.44121621621622e+00 5.08449671388273e-02 2.10886421651634e-04
1.50527027027027e+00 5.03728010797216e-02 2.13523717858526e-04
1.56932432432432e+00 4.99050197356984e-02 2.15997767626138e-04
1.63337837837838e+00 4.94415823916534e-02 2.18318057805506e-04
1.69743243243243e+00 4.89824487046318e-02 2.20493237706428e-04
1.76148648648649e+00 4.85275787120259e-02 2.22531223584240e-04
1.82554054054054e+00 4.80769328193669e-02 2.24439288133956e-04
1.88959459459459e+00 4.76304717975811e-02 2.26224133215506e-04
1.95364864864865e+00 4.71881567867406e-02 2.27891954710982e-04
2.01770270270270e+00 4.67499492830944e-02 2.29448496767348e-04
2.08175675675676e+00 4.63158111449823e-02 2.30899098440350e-04
2.14581081081081e+00 4.58857045825927e-02 2.32248735534953e-04
2.20986486486486e+00 4.54595921551716e-02 2.33502054344853e-04
2.27391891891892e+00 4.50374367735847e-02 2.34663403720348e-04
2.33797297297297e+00 4.46192016893064e-02 2.35736862025794e-04
2.40202702702703e+00 4.42048504987725e-02 2.36726260821678e-04
2.46608108108108e+00 4.37943471345614e-02 2.37635207092352e-04
2.53013513513514e+00 4.33876558626262e-02 2.38467100598198e-04
2.59418918918919e+00 4.29847412840200e-02 2.39225151636077e-04
2.65824324324324e+00 4.25855683253515e-02 2.39912395835339e-04
2.72229729729730e+00 4.21901022420200e-02 2.40531707353782e-04
2.78635135135135e+00 4.17983086104864e-02 2.41085811882180e-04
2.85040540540541e+00 4.14101533255552e-02 2.41577296223688e-04
2.91445945945946e+00 4.10256026014971e-02 2.42008619025772e-04
2.97851351351351e+00 4.06446229636473e-02 2.42382119530259e-04
3.04256756756757e+00 4.02671812508146e-02 2.42700025460437e-04
3.10662162162162e+00 3.98932446084120e-02 2.42964461229878e-04
3.17067567567568e+00 3.95227804858124e-02 2.43177453490717e-04
3.23472972972973e+00 3.91557566370210e-02 2.43340938085541e-04
3.29878378378378e+00 3.87921411131935e-02 2.43456765530008e-04
3.36283783783784e+00 3.84319022644191e-02 2.43526705990899e-04
3.42689189189189e+00 3.80750087335504e-02 2.43552454796907e-04
3.49094594594595e+00 3.77214294536441e-02 2.43535635749245e-04
3.55500000000000e+00 3.73711336482935e-02 2.43477805888269e-04
3.61905405405405e+00 3.70240908249032e-02 2.43380459090329e-04
3.68310810810811e+00 3.66802707759899e-02 2.43245029508929e-04
3.74716216216216e+00 3.63396435726847e-02 2.43072894825383e-04
3.81121621621622e+00 3.60021795659099e-02 2.42865379052092e-04
3.87527027027027e+00 3.56678493809706e-02 2.42623755967877e-04
3.93932432432432e+00 3.53366239151282e-02 2.42349250745413e-04
4.00337837837838e+00 3.50084743376042e-02 2.42043042994344e-04
4.06743243243243e+00 3.46833720836879e-02 2.41706268878158e-04
4.13148648648649e+00 3.43612888555615e-02 2.41340023051027e-04
4.19554054054054e+00 3.40421966173600e-02 2.40945361228281e-04
4.25959459459459e+00 3.37260675928392e-02 2.40523301153862e-04
4.32364864864865e+00 3.34128742651940e-02 2.40074824909069e-04
4.38770270270270e+00 3.31025893716826e-02 2.39600880414051e-04
4.45175675675676e+00 3.27951859041740e-02 2.39102382801933e-04
4.51581081081081e+00 3.24906371046111e-02 2.38580216407304e-04
4.57986486486486e+00 3.21889164627748e-02 2.38035235313991e-04
4.64391891891892e+00 3.18899977159568e-02 2.37468265162073e-04
4.70797297297297e+00 3.15938548440331e-02 2.36880104238181e-04
4.77202702702703e+00 3.13004620697889e-02 2.36271524471980e-04
4.83608108108108e+00 3.10097938547355e-02 2.35643273018314e-04
4.90013513513513e+00 3.07218248969670e-02 2.34996072532336e-04
4.96418918918919e+00 3.04365301307227e-02 2.34330622621461e-04
5.02824324324324e+00 3.01538847218520e-02 2.33647600652880e-04
5.09229729729730e+00 2.98738640679624e-02 2.32947662489205e-04
5.15635135135135e+00 2.95964437945486e-02 2.32231443777844e-04
5.22040540540541e+00 2.93215997529390e-02 2.31499560046382e-04
5.28445945945946e+00 2.90493080197729e-02 2.30752607895091e-04
5.34851351351351e+00 2.87795448928133e-02 2.29991165605254e-04
5.41256756756757e+00 2.85122868909507e-02 2.29215793690392e-04
5.47662162162162e+00 2.82475107506113e-02 2.28427035968331e-04
5.54067567567568e+00 2.79851934237905e-02 2.27625419537105e-04
5.60472972972973e+00 2.77253120774659e-02 2.26811455772930e-04
5.66878378378378e+00 2.74678440897185e-02 2.25985640794963e-04
5.73283783783784e+00 2.72127670496217e-02 2.25148455883407e-04
5.79689189189189e+00 2.69600587538997e-02 2.24300368386163e-04
5.86094594594595e+00 2.67096972050444e-02 2.23441831615267e-04
5.92500000000000e+00 2.64616606106810e-02 2.22573285695371e-04
5.98905405405405e+00 2.62159273799665e-02 2.21695157923120e-04
6.05310810810811e+00 2.59724761233849e-02 2.20807863175969e-04
6.11716216216216e+00 2.57312856492393e-02 2.19911804334820e-04
6.18121621621622e+00 2.54923349634250e-02 2.19007372571884e-04
6.24527027027027e+00 2.52556032663921e-02 2.18094948086811e-04
6.30932432432432e+00 2.50210699513754e-02 2.17174899932609e-04
6.37337837837838e+00 2.47887146037202e-02 2.16247586708887e-04
6.43743243243243e+00 2.45585169976145e-02 2.15313356815890e-04
6.50148648648649e+00 2.43304570957942e-02 2.14372548677390e-04
6.56554054054054e+00 2.41045150467019e-02 2.13425491382560e-04
6.62959459459459e+00 2.38806711827960e-02 2.12472504484127e-04
6.69364864864865e+00 2.36589060198539e-02 2.11513898605159e-04
6.75770270270270e+00 2.34392002539234e-02 2.10549975639449e-04
6.82175675675676e+00 2.32215347609728e-02 2.09581028925045e-04
6.88581081081081e+00 2.30058905942302e-02 2.08607343809287e-04
6.94986486486486e+00 2.27922489825678e-02 2.07629197430305e-04
7.01391891891892e+00 2.25805913297904e-02 2.06646859253058e-04
7.07797297297297e+00 2.23708992117873e-02 2.05660591228257e-04
7.14202702702703e+00 2.21631543761385e-02 2.04670647927898e-04
7.20608108108108e+00 2.19573387396199e-02 2.03677277046887e-04
7.27013513513513e+00 2.17534343866589e-02 2.02680719175631e-04
7.33418918918919e+00 2.15514235686157e-02 2.01681208277167e-04
7.39824324324324e+00 2.13512887011180e-02 2.00678971813869e-04
7.46229729729730e+00 2.11530123636337e-02 1.99674230853400e-04
7.52635135135135e+00 2.09565772971279e-02 1.98667200517201e-04
7.59040540540540e+00 2.07619664025872e-02 1.97658089749719e-04
7.65445945945946e+00 2.05691627402998e-02 1.96647101745829e-04
7.71851351351351e+00 2.03781495273569e-02 1.95634434052276e-04
7.78256756756757e+00 2.01889101372002e-02 1.94620278650385e-04
7.84662162162162e+00 2.00014280974196e-02 1.93604822359489e-04
7.91067567567568e+00 1.98156870883429e-02 1.92588246606653e-04
7.97472972972973e+00 1.96316709423185e-02 1.91570727811775e-04
8.03878378378378e+00 1.94493636413709e-02 1.90552437468914e-04
8.10283783783784e+00 1.92687493167298e-02 1.89533542210697e-04
8.16689189189189e+00 1.90898122467575e-02 1.88514204173110e-04
8.23094594594595e+00 1.89125368556011e-02 1.87494580768401e-04
8.29500000000000e+00 1.87369077124818e-02 1.86474825033761e-04
8.35905405405405e+00 1.85629095294927e-02 1.85455085696586e-04
8.42310810810811e+00 1.83905271611145e-02 1.84435507277533e-04
8.48716216216216e+00 1.82197456020630e-02 1.83416230208498e-04
8.55121621621622e+00 1.80505499868045e-02 1.82397390877158e-04
8.61527027027027e+00 1.78829255876473e-02 1.81379121947033e-04
8.67932432432432e+00 1.77168578134773e-02 1.80361552136713e-04
8.74337837837838e+00 1.75523322090630e-02 1.79344806526297e-04
8.80743243243243e+00 1.73893344530314e-02 1.78329006604943e-04
8.87148648648649e+00 1.72278503573763e-02 1.77314270304867e-04
8.93554054054054e+00 1.70678658656578e-02 1.76300712293540e-04
8.99959459459459e+00 1.69093670517958e-02 1.75288443759735e-04
9.06364864864865e+00 1.67523401193858e-02 1.74277572693623e-04
9.12770270270270e+00 1.65967713997945e-02 1.73268203924685e-04
9.19175675675676e+00 1.64426473516634e-02 1.72260439147228e-04
9.25581081081081e+00 1.62899545592110e-02 1.71254377187940e-04
9.31986486486486e+00 1.61386797310792e-02 1.70250113799511e-04
9.38391891891892e+00 1.59888096996642e-02 1.69247741917452e-04
9.44797297297297e+00 1.58403314193208e-02 1.68247351690088e-04
9.51202702702703e+00 1.56932319658667e-02 1.67249030497256e-04
9.57608108108108e+00 1.55474985349788e-02 1.66252863196012e-04
9.64013513513513e+00 1.54031184410919e-02 1.65258931922210e-04
9.70418918918919e+00 1.52600791167436e-02 1.64267316326602e-04
9.76824324324324e+00 1.51183681108823e-02 1.63278093598387e-04
9.83229729729730e+00 1.49779730883732e-02 1.62291338478326e-04
9.89635135135135e+00 1.48388818284827e-02 1.61307123485033e-04
9.96040540540540e+00 1.47010822238272e-02 1.60325518724678e-04
1.00244594594595e+01 1.45645622797337e-02 1.59346592147357e-04
1.00885135135135e+01 1.44293101125094e-02 1.58370409257740e-04
1.01525675675676e+01 1.42953139500119e-02 1.57397033965073e-04
1.02166216216216e+01 1.41625621271840e-02 1.56426527696700e-04
1.02806756756757e+01 1.40310430898918e-02 1.55458949939737e-04
1.03447297297297e+01 1.39007453887426e-02 1.54494358601069e-04
1.04087837837838e+01 1.37716576819486e-02 1.53532808532903e-04
1.04728378378378e+01 1.36437687342698e-02 1.52574353816047e-04
1.05368918918919e+01 1.35170674123452e-02 1.51619046343547e-04
1.06009459459459e+01 1.33915426886188e-02 1.50666936181901e-04
1.06650000000000e+01 1.32671836355634e-02 1.49718071678839e-04
1.07290540540541e+01 1.31439794294685e-02 1.48772499441327e-04
1.07931081081081e+01 1.30219193448345e-02 1.47830264439443e-04
1.08571621621622e+01 1.29009927580288e-02 1.46891409984148e-04
1.09212162162162e+01 1.27811891418442e-02 1.45955977827410e-04
1.09852702702703e+01 1.26624980690276e-02 1.45024008139803e-04
1.10493243243243e+01 1.25449092069978e-02 1.44095539924131e-04
1.11133783783784e+01 1.24284123202093e-02 1.43170609721804e-04
1.11774324324324e+01 1.23129972692023e-02 1.42249253602843e-04
1.12414864864865e+01 1.21986540065989e-02 1.41331505922725e-04
1.13055405405405e+01 1.20853725803698e-02 1.40417399633856e-04
1.13695945945946e+01 1.19731431288915e-02 1.39506966374388e-04
1.14336486486486e+01 1.18619558841006e-02 1.38600236444952e-04
1.14977027027027e+01 1.17518011666933e-02 1.37697238894477e-04
1.15617567567568e+01 1.16426693891718e-02 1.36798001496949e-04
1.16258108108108e+01 1.15345510511811e-02 1.35902550834292e-04
1.16898648648649e+01 1.14274367424515e-02 1.35010912273167e-04
1.17539189189189e+01 1.13213171382680e-02 1.34123110045038e-04
1.18179729729730e+01 1.12161830023132e-02 1.33239167223062e-04
1.18820270270270e+01 1.11120251822648e-02 1.32359106070243e-04
1.19460810810811e+01 1.10088346116836e-02 1.31482946930865e-04
1.20101351351351e+01 1.09066023091771e-02 1.30610709925235e-04
1.20741891891892e+01 1.08053193750472e-02 1.29742413884199e-04
1.21382432432432e+01 1.07049769939260e-02 1.28878076611356e-04
1.22022972972973e+01 1.06055664306499e-02 1.28017714954572e-04
1.22663513513514e+01 1.05070790328072e-02 1.27161344782880e-04
1.23304054054054e+01 1.04095062267266e-02 1.26308981055664e-04
1.23944594594595e+01 1.03128395199402e-02 1.25460637799728e-04
1.24585135135135e+01 1.02170704972836e-02 1.24616328176213e-04
1.25225675675676e+01 1.01221908232763e-02 1.23776064457869e-04
1.25866216216216e+01 1.00281922383298e-02 1.22939858093818e-04
1.26506756756757e+01 9.93506656104921e-03 1.22107719687071e-04
1.27147297297297e+01 9.84280568454571e-03 1.21279659288851e-04
1.27787837837838e+01 9.75140157795143e-03 1.20455685447147e-04
1.28428378378378e+01 9.66084628568133e-03 1.19635806654319e-04
1.29068918918919e+01 9.57113192461347e-03 1.18820030431978e-04
1.29709459459459e+01 9.48225068622623e-03 1.18008363553010e-04
1.30350000000000e+01 9.39419483313703e-03 1.17200812099741e-04
1.30990540540541e+01 9.30695670116927e-03 1.16397381441860e-04
1.31631081081081e+01 9.22052869598524e-03 1.15598076292745e-04
1.32271621621622e+01 9.13490329508520e-03 1.14802900687676e-04
1.32912162162162e+01 9.05007304453159e-03 1.14011858038361e-04
1.33552702702703e+01 8.96603056088272e-03 1.13224951111442e-04
1.34193243243243e+01 8.88276852800539e-03 1.12442182285084e-04
1.34833783783784e+01 8.80027969833749e-03 1.11663552710826e-04
1.35474324324324e+01 8.71855689222386e-03 1.10889063584134e-04
1.36114864864865e+01 8.63759299547103e-03 1.10118715338023e-04
1.36755405405405e+01 8.55738096114459e-03 1.09352507836772e-04
1.37395945945946e+01 8.47791380657414e-03 1.08590440425022e-04
1.38036486486486e+01 8.39918461509260e-03 1.07832511906947e-04
1.38677027027027e+01 8.32118653312101e-03 1.07078720593889e-04
1.39317567567568e+01 8.24391277185164e-03 1.06329064283811e-04
1.39958108108108e+01 8.16735660441032e-03 1.05583540307487e-04
1.40598648648649e+01 8.09151136748520e-03 1.04842145508263e-04
1.41239189189189e+01 8.01637045856431e-03 1.04104876286819e-04
1.41879729729730e+01 7.94192733751196e-03 1.03371728581232e-04
1.42520270270270e+01 7.86817552387914e-03 1.02642698085525e-04
1.43160810810811e+01 7.79510859792229e-03 1.01917779527972e-04
1.43801351351351e+01 7.72272020001727e-03 1.01196967761097e-04
1.44441891891892e+01 7.65100402858774e-03 1.00480257067258e-04
1.45082432432432e+01 7.57995384157199e-03 9.97676413236347e-05
1.45722972972973e+01 7.50956345389294e-03 9.90591140427219e-05
1.46363513513514e+01 7.43982673887822e-03 9.83546683531777e-05
1.47004054054054e+01 7.37073762579616e-03 9.76542970390879e-05
1.47644594594595e+01 7.30229010123071e-03 9.69579925211289e-05
1.48285135135135e+01 7.23447820668160e-03 9.62657468946826e-05
1.48925675675676e+01 7.16729603989559e-03 9.55775519112846e-05
1.49566216216216e+01 7.10073775252883e-03 9.48933990156100e-05
1.50206756756757e+01 7.03479755143603e-03 9.42132793272422e-05
1.50847297297297e+01 6.96946969639316e-03 9.35371838272486e-05
1.51487837837838e+01 6.90474850092178e-03 9.28651027359753e-05
1.52128378378378e+01 6.84062833177119e-03 9.21970264499875e-05
1.52768918918919e+01 6.77710360715808e-03 9.15329449430666e-05
1.53409459459459e+01 6.71416879796712e-03 9.08728479072316e-05
1.54050000000000e+01 6.65181842560676e-03 9.02167247862840e-05
1.54690540540541e+01 6.59004706317205e-03 8.95645647583707e-05
1.55331081081081e+01 6.52884933335539e-03 8.89163567685539e-05
1.55971621621622e+01 6.46821990957290e-03 8.82720895116881e-05
1.56612162162162e+01 6.40815351392838e-03 8.76317514640324e-05
1.57252702702703e+01 6.34864491830450e-03 8.69953308664053e-05
1.57893243243243e+01 6.28968894237861e-03 8.63628158879457e-05
1.58533783783784e+01 6.23128045431372e-03 8.57341940761820e-05
1.59174324324324e+01 6.17341437029214e-03 8.51094531831079e-05
1.59814864864865e+01 6.11608565297734e-03 8.44885806356517e-05
1.60455405405405e+01 6.05928931253063e-03 8.38715636595198e-05
1.61095945945946e+01 6.00302040474160e-03 8.32583893078911e-05
1.61736486486486e+01 5.94727403201328e-03 8.26490444454045e-05
1.62377027027027e+01 5.89204534153971e-03 8.20435157760623e-05
1.63017567567568e+01 5.83732952626050e-03 8.14417898274949e-05
1.63658108108108e+01 5.78312182308426e-03 8.08438529780645e-05
1.64298648648649e+01 5.72941751381359e-03 8.02496914414067e-05
1.64939189189189e+01 5.67621192341308e-03 7.96592912927832e-05
1.65579729729730e+01 5.62350042090565e-03 7.90726384538859e-05
1.66220270270270e+01 5.57127841768387e-03 7.84897188332783e-05
1.66860810810811e+01 5.51954136807072e-03 7.79105178510742e-05
1.67501351351351e+01 5.46828476890762e-03 7.73350211511290e-05
1.68141891891892e+01 5.41750415824060e-03 7.67632141432968e-05
1.68782432432432e+01 5.36719511615632e-03 7.61950821096406e-05
1.69422972972973e+01 5.31735326318946e-03 7.56306102284149e-05
1.70063513513514e+01 5.26797426113304e-03 7.50697835596484e-05
1.70704054054054e+01 5.21905381148542e-03 7.45125870684628e-05
1.71344594594595e+01 5.17058765623562e-03 7.39590056109247e-05
1.71985135135135e+01 5.12257157634880e-03 7.34090239566963e-05
1.72625675675676e+01 5.07500139252753e-03 7.28626267751539e-05
1.73266216216216e+01 5.02787296373463e-03 7.23197986574192e-05
1.73906756756757e+01 4.98118218793117e-03 7.17805241027238e-05
1.74547297297297e+01 4.93492500063562e-03 7.12447876390335e-05
1.75187837837838e+01 4.88909737537964e-03 7.07125734118154e-05
1.75828378378378e+01 4.84369532334388e-03 7.01838657988710e-05
1.76468918918919e+01 4.79871489223335e-03 6.96586490141547e-05
1.77109459459459e+01 4.75415216696605e-03 6.91369071990725e-05
1.77750000000000e+01 4.71000326831333e-03 6.86186244425644e-05
1.78390540540541e+01 4.66626435356749e-03 6.81037847681981e-05
1.79031081081081e+01 4.62293161521537e-03 6.75923721537068e-05
1.79671621621622e+01 4.58000128158570e-03 6.70843705183115e-05
1.80312162162162e+01 4.53746961555500e-03 6.65797637417217e-05
1.80952702702703e+01 4.49533291517524e-03 6.60785356517009e-05
1.81593243243243e+01 4.45358751241128e-03 6.55806701303841e-05
1.82233783783784e+01 4.41222977352407e-03 6.50861507498685e-05
1.82874324324324e+01 4.37125609874242e-03 6.45949613160502e-05
1.83514864864865e+01 4.33066292127500e-03 6.41070855174738e-05
1.84155405405405e+01 4.29044670789622e-03 6.36225070058453e-05
1.84795945945946e+01 4.25060395775411e-03 6.31412094133550e-05
1.85436486486486e+01 4.21113120293851e-03 6.26631763409337e-05
1.86077027027027e+01 4.17202500731773e-03 6.21883913751172e-05
1.86717567567568e+01 4.13328196708966e-03 6.17168380765189e-05
1.87358108108108e+01 4.09489870964641e-03 6.12484999962334e-05
1.87998648648649e+01 4.05687189410879e-03 6.07833606645194e-05
1.88639189189189e+01 4.01919821021832e-03 6.03214036067762e-05
1.89279729729730e+01 3.98187437885559e-03 5.98626123324284e-05
1.89920270270270e+01 3.94489715095885e-03 5.94069704265484e-05
1.90560810810811e+01 3.90826330783587e-03 5.89544612339300e-05
1.91201351351351e+01 3.87196966087377e-03 5.85050683296128e-05
1.91841891891892e+01 3.83601305069017e-03 5.80587752144509e-05
1.92482432432432e+01 3.80039034761720e-03 5.76155653844737e-05
1.93122972972973e+01 3.76509845067991e-03 5.71754223454758e-05
1.93763513513513e+01 3.73013428806580e-03 5.67383296025381e-05
1.94404054054054e+01 3.69549481612755e-03 5.63042706742243e-05
1.95044594594595e+01 3.66117701983852e-03 5.58732290823041e-05
1.95685135135135e+01 3.62717791181923e-03 5.54451883655737e-05
1.96325675675676e+01 3.59349453277916e-03 5.50201320697588e-05
1.96966216216216e+01 3.56012395056638e-03 5.45980437609733e-05
1.97606756756757e+01 3.52706326059618e-03 5.41789070158256e-05
1.98247297297297e+01 3.49430958492318e-03 5.37627055004320e-05
1.98887837837838e+01 3.46186007249524e-03 5.33494226963259e-05
1.99528378378378e+01 3.42971189889681e-03 5.29390423079735e-05
2.00168918918919e+01 3.39786226561839e-03 5.25315479985639e-05
2.00809459459459e+01 3.36630840045694e-03 5.21269234498723e-05
2.01450000000000e+01 3.33504755663885e-03 5.17251523745609e-05
2.02090540540541e+01 3.30407701320841e-03 5.13262185068517e-05
