Energy (eV)          EEDF (eV^-(3/2))     First Anisotropy
8.45833333333333e-02 7.80277123916502e-02 8.35172149835111e-05
2.53750000000000e-01 7.58140011264287e-02 1.36412933094819e-04
4.22916666666667e-01 7.36630947041613e-02 1.76155898639332e-04
5.92083333333333e-01 7.15732112889401e-02 2.04061180969906e-04
7.61250000000000e-01 6.95426196074869e-02 2.25512147252443e-04
9.30416666666667e-01 6.75696375069736e-02 2.42615051900845e-04
1.09958333333333e+00 6.56526305530107e-02 2.56494973860840e-04
1.26875000000000e+00 6.37900106789122e-02 2.67851791769077e-04
1.43791666666667e+00 6.19802348934240e-02 2.77162782101486e-04
1.60708333333333e+00 6.02218039519130e-02 2.84774153597620e-04
1.77625000000000e+00 5.85132611587742e-02 2.90948432769233e-04
1.94541666666667e+00 5.68531911555256e-02 2.95891444127563e-04
2.11458333333333e+00 5.52402187196608e-02 2.99768789817031e-04
2.28375000000000e+00 5.36730076541829e-02 3.02716483150533e-04
2.45291666666667e+00 5.21502596778066e-02 3.04848120509840e-04
2.62208333333333e+00 5.06707133291525e-02 3.06259890833203e-04
2.79125000000000e+00 4.92331429421953e-02 3.07034183172085e-04
2.96041666666667e+00 4.78363576290724e-02 3.07242254644327e-04
3.12958333333333e+00 4.64792002783656e-02 3.06946243281262e-04
3.29875000000000e+00 4.51605466118649e-02 3.06200717586242e-04
3.46791666666667e+00 4.38793042519356e-02 3.05053891963808e-04
3.63708333333333e+00 4.26344118048313e-02 3.03548590755194e-04
3.80625000000000e+00 4.14248379933108e-02 3.01723024563291e-04
3.97541666666667e+00 4.02495808013940e-02 2.99611424837084e-04
4.14458333333333e+00 3.91076666349550e-02 2.97244565007163e-04
4.31375000000000e+00 3.79981495246328e-02 2.94650193959733e-04
4.48291666666667e+00 3.69201103414826e-02 2.91853401443827e-04
4.65208333333333e+00 3.58726560280214e-02 2.88876925785820e-04
4.82125000000000e+00 3.48549188660521e-02 2.85741416131256e-04
4.99041666666667e+00 3.38660557572972e-02 2.82465658873132e-04
5.15958333333333e+00 3.29052475187843e-02 2.79066771900606e-04
5.32875000000000e+00 3.19716982104993e-02 2.75560373270585e-04
5.49791666666667e+00 3.10646344755931e-02 2.71960729683010e-04
5.66708333333333e+00 3.01833048945979e-02 2.68280885629208e-04
5.83625000000000e+00 2.93269793681481e-02 2.64532777198914e-04
6.00541666666667e+00 2.84949485118150e-02 2.60727333870531e-04
6.17458333333333e+00 2.76865230641526e-02 2.56874567969079e-04
6.34375000000000e+00 2.69010333200665e-02 2.52983654429898e-04
6.51291666666667e+00 2.61378285757420e-02 2.49063003106567e-04
6.68208333333333e+00 2.53962765859742e-02 2.45120322803735e-04
6.85125000000000e+00 2.46757630440888e-02 2.41162678915165e-04
7.02041666666667e+00 2.39756910728124e-02 2.37196546281929e-04
7.18958333333333e+00 2.32954807267395e-02 2.33227856258930e-04
7.35875000000000e+00 2.26345685150246e-02 2.29262039409153e-04
7.52791666666667e+00 2.19924069343884e-02 2.25304065055088e-04
7.69708333333333e+00 2.13684640129357e-02 2.21358476630130e-04
7.86625000000000e+00 2.07622228721337e-02 2.17429423949088e-04
8.03541666666667e+00 2.01731812984628e-02 2.13520693372543e-04
8.20458333333333e+00 1.96008513251266e-02 2.09635734832838e-04
8.37375000000000e+00 1.90447588301056e-02 2.05777686632952e-04
8.54291666666667e+00 1.85044431432533e-02 2.01949398814953e-04
8.71208333333333e+00 1.79794566627329e-02 1.98153454123306e-04
8.88125000000000e+00 1.74693644861931e-02 1.94392187322847e-04
9.05041666666667e+00 1.69737440503748e-02 1.90667703537445e-04
9.21958333333333e+00 1.64921847793784e-02 1.86981894705587e-04
9.38875000000000e+00 1.60242877462456e-02 1.83336454797662e-04
9.55791666666667e+00 1.55696653423854e-02 1.79732894361106e-04
9.72708333333333e+00 1.51279409550207e-02 1.76172553564316e-04
9.89625000000000e+00 1.46987486566793e-02 1.72656614293651e-04
1.00654166666667e+01 1.42817329019719e-02 1.69186111790881e-04
1.02345833333333e+01 1.38765482317878e-02 1.65761945189868e-04
1.04037500000000e+01 1.34828589872662e-02 1.62384886635581e-04
1.05729166666667e+01 1.31003390373026e-02 1.59055591671410e-04
1.07420833333333e+01 1.27286714960762e-02 1.55774607201900e-04
1.09112500000000e+01 1.23675484717773e-02 1.52542378148105e-04
1.10804166666667e+01 1.20166708109096e-02 1.49359257031959e-04
1.12495833333333e+01 1.16757478408017e-02 1.46225509783726e-04
1.14187500000000e+01 1.13444971386418e-02 1.43141321147346e-04
1.15879166666667e+01 1.10226442969633e-02 1.40106802646339e-04
1.17570833333333e+01 1.07099226878507e-02 1.37121997213552e-04
1.19262500000000e+01 1.04060732506796e-02 1.34186883504855e-04
1.20954166666667e+01 1.01108442770275e-02 1.31301382549823e-04
1.22645833333333e+01 9.82399119471677e-03 1.28465361446224e-04
1.24337500000000e+01 9.54527637277612e-03 1.25678636804557e-04
1.26029166666667e+01 9.27446892416614e-03 1.22940980321454e-04
1.27720833333333e+01 9.01134450796512e-03 1.20252121726598e-04
1.29412500000000e+01 8.75568515018128e-03 1.17611751530986e-04
1.31104166666667e+01 8.50727906281516e-03 1.15019525711878e-04
1.32795833333333e+01 8.26592046264457e-03 1.12475068058936e-04
1.34487500000000e+01 8.03140940662005e-03 1.09977972361891e-04
1.36179166666667e+01 7.80355162590977e-03 1.07527806358402e-04
1.37870833333333e+01 7.58215835987470e-03 1.05124113595262e-04
1.39562500000000e+01 7.36704620487723e-03 1.02766415162862e-04
1.41254166666667e+01 7.15803696206690e-03 1.00454213028400e-04
1.42945833333333e+01 6.95495748525917e-03 9.81869915043227e-05
1.44637500000000e+01 6.75763954207818e-03 9.59642186152103e-05
1.46329166666667e+01 6.56591967434440e-03 9.37853489161891e-05
1.48020833333333e+01 6.37963905868210e-03 9.16498246424113e-05
1.49712500000000e+01 6.19864337900111e-03 8.95570767771421e-05
1.51404166666667e+01 6.02278269844252e-03 8.75065274373294e-05
1.53095833333333e+01 5.85191133164070e-03 8.54975907636309e-05
1.54787500000000e+01 5.68588772762759e-03 8.35296737452302e-05
1.56479166666667e+01 5.52457435237883e-03 8.16021782403056e-05
1.58170833333333e+01 5.36783757174862e-03 7.97145016547942e-05
1.59862500000000e+01 5.21554754395229e-03 7.78660375690085e-05
1.61554166666667e+01 5.06757811183490e-03 7.60561774492750e-05
1.63245833333333e+01 4.92380669558105e-03 7.42843111546715e-05
1.64937500000000e+01 4.78411419399869e-03 7.25498274021924e-05
1.66629166666667e+01 4.64838488570487e-03 7.08521152165329e-05
1.68320833333333e+01 4.51650633078926e-03 6.91905642968552e-05
1.70012500000000e+01 4.38836928018400e-03 6.75645653505613e-05
1.71704166666667e+01 4.26386758502823e-03 6.59735113206225e-05
1.73395833333333e+01 4.14289810653382e-03 6.44167976386468e-05
1.75087500000000e+01 4.02536063278334e-03 6.28938224519328e-05
1.76779166666667e+01 3.91115779559616e-03 6.14039876615116e-05
1.78470833333333e+01 3.80019498790862e-03 5.99466990831050e-05
1.80162500000000e+01 3.69238028739511e-03 5.85213665877588e-05
1.81854166666667e+01 3.58762438021452e-03 5.71274049786105e-05
1.83545833333333e+01 3.48584048527551e-03 5.57642340775231e-05
1.85237500000000e+01 3.38694428412412e-03 5.44312787960300e-05
1.86929166666667e+01 3.29085385100108e-03 5.31279698745585e-05
1.88620833333333e+01 3.19748958341576e-03 5.18537439094078e-05
1.90312500000000e+01 3.10677413778896e-03 5.06080433678187e-05
1.92004166666667e+01 3.01863236529843e-03 4.93903172098114e-05
1.93695833333333e+01 2.93299124823403e-03 4.82000208676185e-05
1.95387500000000e+01 2.84977984092533e-03 4.70366162162908e-05
1.97079166666667e+01 2.76892921089638e-03 4.58995720953089e-05
1.98770833333333e+01 2.69037238051867e-03 4.47883642504776e-05
2.00462500000000e+01 2.61404427279162e-03 4.37024752694990e-05
2.02154166666667e+01 2.53988165736694e-03 4.26413950179966e-05
2.03845833333333e+01 2.46782309705703e-03 4.16046205521336e-05
2.05537500000000e+01 2.39780889807116e-03 4.05916560269472e-05
2.07229166666667e+01 2.32978106050641e-03 3.96020130592926e-05
2.08920833333333e+01 2.26368322930611e-03 3.86352106180100e-05
2.10612500000000e+01 2.19946064858692e-03 3.76907749114499e-05
2.12304166666667e+01 2.13706011622668e-03 3.67682396880410e-05
2.13995833333333e+01 2.07642993890155e-03 3.58671461096301e-05
2.15687500000000e+01 2.01751989016883e-03 3.49870426235037e-05
2.17379166666667e+01 1.96028116881261e-03 3.41274852097475e-05
2.19070833333333e+01 1.90466635761953e-03 3.32880372423877e-05
2.20762500000000e+01 1.85062938490938e-03 3.24682693502732e-05
2.22454166666667e+01 1.79812548632764e-03 3.16677596190907e-05
2.24145833333333e+01 1.74711116704804e-03 3.08860934441014e-05
2.25837500000000e+01 1.69754416646839e-03 3.01228633834628e-05
2.27529166666667e+01 1.64938342316453e-03 2.93776693216524e-05
2.29220833333333e+01 1.60258904023432e-03 2.86501183169042e-05
2.30912500000000e+01 1.55712225289882e-03 2.79398244498923e-05
2.32604166666667e+01 1.51294539635614e-03 2.72464089543555e-05
2.34295833333333e+01 1.47002187400513e-03 2.65695000617637e-05
2.35987500000000e+01 1.42831612771344e-03 2.59087328477427e-05
2.37679166666667e+01 1.38779360833128e-03 2.52637493348771e-05
2.39370833333333e+01 1.34842074655499e-03 2.46341983366487e-05
2.41062500000000e+01 1.31016492564304e-03 2.40197353035231e-05
2.42754166666667e+01 1.27299445436949e-03 2.34200224022099e-05
2.44445833333333e+01 1.23687854030779e-03 2.28347283605136e-05
2.46137500000000e+01 1.20178726479353e-03 2.22635283146225e-05
2.47829166666667e+01 1.16769155811582e-03 2.17061038684992e-05
2.49520833333333e+01 1.13456317501978e-03 2.11621429409496e-05
2.51212500000000e+01 1.10237467173153e-03 2.06313396153350e-05
2.52904166666667e+01 1.07109938320220e-03 2.01133941822495e-05
2.54595833333333e+01 1.04071140064462e-03 1.96080129898308e-05
2.56287500000000e+01 1.01118555045095e-03 1.91149082968530e-05
2.57979166666667e+01 9.82497373319514e-04 1.86337983013997e-05
2.59670833333333e+01 9.54623103656469e-04 1.81644069952073e-05
2.61362500000000e+01 9.27539650230460e-04 1.77064640208723e-05
2.63054166666667e+01 9.01224577026515e-04 1.72597046888474e-05
2.64745833333333e+01 8.75656084357546e-04 1.68238698364136e-05
2.66437500000000e+01 8.50812991113223e-04 1.63987056895527e-05
2.68129166666667e+01 8.26674717197952e-04 1.59839638702601e-05
2.69820833333333e+01 8.03221266210146e-04 1.55794012605792e-05
2.71512500000000e+01 7.80433209154096e-04 1.51847798695422e-05
2.73204166666667e+01 7.58291668330991e-04 1.47998668325041e-05
2.74895833333333e+01 7.36778301455633e-04 1.44244342805446e-05
2.76587500000000e+01 7.15875286710926e-04 1.40582592127475e-05
2.78279166666667e+01 6.95565307971699e-04 1.37011234890184e-05
2.79970833333333e+01 6.75831540239419e-04 1.33528137050446e-05
2.81662500000000e+01 6.56657635928791e-04 1.30131210700862e-05
2.83354166666667e+01 6.38027711314100e-04 1.26818413945226e-05
2.85045833333333e+01 6.19926333172418e-04 1.23587749704759e-05
2.86737500000000e+01 6.02338506200881e-04 1.20437264551962e-05
2.88429166666667e+01 5.85249660584392e-04 1.17365048544016e-05
2.90120833333333e+01 5.68645639746944e-04 1.14369234085940e-05
2.91812500000000e+01 5.52512688806457e-04 1.11447994820571e-05
2.93504166666667e+01 5.36837443171072e-04 1.08599545428923e-05
2.95195833333333e+01 5.21606917306548e-04 1.05822140549994e-05
2.96887500000000e+01 5.06808494143210e-04 1.03114073726465e-05
2.98579166666667e+01 4.92429914615733e-04 1.00473677179706e-05
3.00270833333333e+01 4.78459267362221e-04 9.78993207854569e-06
3.01962500000000e+01 4.64884979004859e-04 9.53894110744280e-06
3.03654166666667e+01 4.51695804555103e-04 9.29423909884227e-06
3.05345833333333e+01 4.38880817967103e-04 9.05567389107628e-06
3.07037500000000e+01 4.26429403220063e-04 8.82309677206109e-06
3.08729166666667e+01 4.14331245517240e-04 8.59636245356738e-06
3.10420833333333e+01 4.02576322622787e-04 8.37532897959475e-06
3.12112500000000e+01 3.91154896679760e-04 8.15985763703061e-06
3.13804166666667e+01 3.80057506137246e-04 7.94981292903730e-06
3.15495833333333e+01 3.69274957805598e-04 7.74506248859415e-06
3.17187500000000e+01 3.58798319349463e-04 7.54547699421677e-06
3.18879166666667e+01 3.48618911882798e-04 7.35093014284419e-06
3.20570833333333e+01 3.38728302682871e-04 7.16129856836721e-06
3.22262500000000e+01 3.29118298302669e-04 6.97646176222732e-06
3.23954166666667e+01 3.19780937778556e-04 6.79630204612170e-06
3.25645833333333e+01 3.10708485948355e-04 6.62070449532564e-06
3.27337500000000e+01 3.01893427132094e-04 6.44955686397955e-06
3.29029166666667e+01 2.93328458901600e-04 6.28274955787329e-06
3.30720833333333e+01 2.85006485952559e-04 6.12017556236305e-06
3.32412500000000e+01 2.76920614306728e-04 5.96173037214854e-06
3.34104166666667e+01 2.69064145596981e-04 5.80731196435054e-06
3.35795833333333e+01 2.61430571447376e-04 5.65682073081781e-06
3.37487500000000e+01 2.54013568153844e-04 5.51015941219258e-06
3.39179166666667e+01 2.46806991442040e-04 5.36723307145446e-06
3.40870833333333e+01 2.39804871313274e-04 5.22794903041168e-06
3.42562500000000e+01 2.33001407164217e-04 5.09221680785205e-06
3.44254166666667e+01 2.26390962978441e-04 4.95994809369130e-06
3.45945833333333e+01 2.19968062599566e-04 4.83105668944295e-06
3.47637500000000e+01 2.13727385253785e-04 4.70545845025281e-06
3.49329166666667e+01 2.07663761139208e-04 4.58307125976039e-06
3.51020833333333e+01 2.01772167090789e-04 4.46381497434464e-06
3.52712500000000e+01 1.96047722472447e-04 4.34761136884244e-06
3.54404166666667e+01 1.90485685131298e-04 4.23438411220554e-06
3.56095833333333e+01 1.85081447421877e-04 4.12405871532321e-06
3.57787500000000e+01 1.79830532437362e-04 4.01656248022982e-06
3.59479166666667e+01 1.74728590298509e-04 3.91182447661844e-06
3.61170833333333e+01 1.69771394507370e-04 3.80977549304614e-06
3.62862500000000e+01 1.64954838489645e-04 3.71034798943994e-06
3.64554166666667e+01 1.60274932190631e-04 3.61347607451056e-06
3.66245833333333e+01 1.55727798731115e-04 3.51909546015193e-06
3.67937500000000e+01 1.51309671235181e-04 3.42714341706080e-06
3.69629166666667e+01 1.47016889707779e-04 3.33755875307856e-06
3.71320833333333e+01 1.42845897967729e-04 3.25028177060282e-06
3.73012500000000e+01 1.38793240737439e-04 3.16525422514247e-06
3.74704166666667e+01 1.34855560778786e-04 3.08241930460278e-06
3.76395833333333e+01 1.31029596080266e-04 3.00172158953355e-06
3.78087500000000e+01 1.27312177187003e-04 2.92310701444828e-06
3.79779166666667e+01 1.23700224573576e-04 2.84652284805708e-06
3.81470833333333e+01 1.20190746064241e-04 2.77191765618338e-06
3.83162500000000e+01 1.16780834383404e-04 2.69924126568237e-06
3.84854166666667e+01 1.13467664745794e-04 2.62844474561819e-06
3.86545833333333e+01 1.10248492490428e-04 2.55948037268765e-06
3.88237500000000e+01 1.07120650833362e-04 2.49230159758104e-06
3.89929166666667e+01 1.04081548657222e-04 2.42686302709220e-06
3.91620833333333e+01 1.01128668341200e-04 2.36312039189598e-06
3.93312500000000e+01 9.82595636993819e-05 2.30103051520126e-06
3.95004166666667e+01 9.54718579531469e-05 2.24055129577701e-06
3.96695833333333e+01 9.27632417409462e-05 2.18164167793724e-06
3.98387500000000e+01 9.01314712268898e-05 2.12426162234347e-06
4.00079166666667e+01 8.75743662408839e-05 2.06837208992535e-06
4.01770833333333e+01 8.50898084532930e-05 2.01393501393416e-06
4.03462500000000e+01 8.26757396397309e-05 1.96091327275932e-06
4.05154166666667e+01 8.03301599750602e-05 1.90927067471838e-06
4.06845833333333e+01 7.80511263592703e-05 1.85897193204735e-06
4.08537500000000e+01 7.58367508255797e-05 1.80998263560278e-06
4.10229166666667e+01 7.36851989755679e-05 1.76226924049331e-06
4.11920833333333e+01 7.15946884437375e-05 1.71579904188229e-06
4.13612500000000e+01 6.95634874370961e-05 1.67054015145367e-06
4.15304166666667e+01 6.75899132997462e-05 1.62646148385541e-06
4.16995833333333e+01 6.56723311046369e-05 1.58353273419641e-06
4.18687500000000e+01 6.38091523137723e-05 1.54172435616153e-06
4.20379166666667e+01 6.19988334615474e-05 1.50100754923544e-06
4.22070833333333e+01 6.02398748631518e-05 1.46135423778284e-06
4.23762500000000e+01 5.85308193854427e-05 1.42273705070411e-06
4.25454166666667e+01 5.68702512392061e-05 1.38512930940753e-06
4.27145833333333e+01 5.52567947945431e-05 1.34850500836774e-06
4.28837500000000e+01 5.36891134532733e-05 1.31283879622018e-06
4.30529166666667e+01 5.21659085411075e-05 1.27810596444888e-06
4.32220833333333e+01 5.06859182211540e-05 1.24428242932474e-06
4.33912500000000e+01 4.92479164594673e-05 1.21134471434238e-06
4.35604166666667e+01 4.78507120088678e-05 1.17926993959077e-06
4.37295833333333e+01 4.64931474124379e-05 1.14803580497856e-06
4.38987500000000e+01 4.51740980545247e-05 1.11762057392308e-06
4.40679166666667e+01 4.38924712286245e-05 1.08800306337115e-06
4.42370833333333e+01 4.26472052234132e-05 1.05916262822429e-06
4.44062500000000e+01 4.14372684521461e-05 1.03107914619502e-06
4.45754166666667e+01 4.02616585976528e-05 1.00373300844561e-06
4.47445833333333e+01 3.91194017740638e-05 9.77105105131466e-07
4.49137500000000e+01 3.80095517281333e-05 9.51176811345029e-07
4.50829166666667e+01 3.69311890549653e-05 9.25929978340882e-07
4.52520833333333e+01 3.58834204291654e-05 9.01346920120542e-07
4.54212500000000e+01 3.48653778721463e-05 8.77410400389433e-07
4.55904166666667e+01 3.38762180327343e-05 8.54103624337432e-07
4.57595833333333e+01 3.29151214819943e-05 8.31410226193235e-07
4.59287500000000e+01 3.19812920410690e-05 8.09314257124468e-07
4.60979166666667e+01 3.10739561212981e-05 7.87800177543625e-07
4.62670833333333e+01 3.01923620774421e-05 7.66852845564809e-07
4.64362500000000e+01 2.93357795910552e-05 7.46457505781548e-07
4.66054166666667e+01 2.85034990651944e-05 7.26599782069049e-07
4.67745833333333e+01 2.76948310312035e-05 7.07265666880435e-07
4.69437500000000e+01 2.69091055830341e-05 6.88441510840959e-07
4.71129166666667e+01 2.61456718220275e-05 6.70114016018626e-07
4.72820833333333e+01 2.54038973128231e-05 6.52270226001130e-07
4.74512500000000e+01 2.46831675644190e-05 6.34897516249242e-07
4.76204166666667e+01 2.39828855208834e-05 6.17983587808832e-07
4.77895833333333e+01 2.33024710623202e-05 6.01516458113545e-07
4.79587500000000e+01 2.26413605288061e-05 5.85484452043981e-07
4.81279166666667e+01 2.19990062532346e-05 5.69876196055237e-07
4.82970833333333e+01 2.13748761036039e-05 5.54680609654039e-07
4.84662500000000e+01 2.07684530462914e-05 5.39886897113752e-07
4.86354166666667e+01 2.01792347175425e-05 5.25484541992830e-07
4.88045833333333e+01 1.96067330036598e-05 5.11463299238488e-07
4.89737500000000e+01 1.90504736403645e-05 4.97813187510983e-07
4.91429166666667e+01 1.85099958197339e-05 4.84524484069366e-07
4.93120833333333e+01 1.79848518051521e-05 4.71587717457081e-07
4.94812500000000e+01 1.74746065637773e-05 4.58993660392082e-07
4.96504166666667e+01 1.69788374059953e-05 4.46733324997442e-07
4.98195833333333e+01 1.64971336322532e-05 4.34797956027252e-07
4.99887500000000e+01 1.60290961958973e-05 4.23179024282065e-07
5.01579166666667e+01 1.55743373724528e-05 4.11868222163054e-07
5.03270833333333e+01 1.51324804356996e-05 4.00857457399417e-07
5.04962500000000e+01 1.47031593483722e-05 3.90138846951433e-07
5.06654166666667e+01 1.42860184587980e-05 3.79704712867920e-07
5.08345833333333e+01 1.38807122037937e-05 3.69547576479036e-07
5.10037500000000e+01 1.34869048249245e-05 3.59660152751782e-07
5.11729166666667e+01 1.31042700902387e-05 3.50035346431604e-07
5.13420833333333e+01 1.27324910217628e-05 3.40666246666950e-07
5.15112500000000e+01 1.23712596352095e-05 3.31546121784526e-07
5.16804166666667e+01 1.20202766847308e-05 3.22668415696901e-07
5.18495833333333e+01 1.16792514129761e-05 3.14026742927498e-07
5.20187500000000e+01 1.13479013123102e-05 3.05614883775175e-07
5.21879166666667e+01 1.10259518906826e-05 2.97426780970693e-07
5.23570833333333e+01 1.07131364423784e-05 2.89456535073046e-07
5.25262500000000e+01 1.04091958289703e-05 2.81698399995034e-07
5.26954166666667e+01 1.01138782645560e-05 2.74146779892407e-07
5.28645833333333e+01 9.82693910548943e-06 2.66796224904482e-07
5.30337500000000e+01 9.54814064943565e-06 2.59641427014367e-07
5.32029166666667e+01 9.27725193837448e-06 2.52677217155554e-07
5.33720833333333e+01 9.01404856573996e-06 2.45898561271606e-07
