Energy (eV)          EEDF (eV^-(3/2))     First Anisotropy
8.58653846153846e-05 2.70556426444294e+02 0.00000000000000e+00
2.57596153846154e-04 2.68765111752578e+02 0.00000000000000e+00
4.29326923076923e-04 2.66985657094539e+02 0.00000000000000e+00
6.01057692307692e-04 2.65217983946609e+02 0.00000000000000e+00
7.72788461538462e-04 2.63462014305123e+02 0.00000000000000e+00
9.44519230769231e-04 2.61717670682870e+02 0.00000000000000e+00
1.11625000000000e-03 2.59984876105667e+02 0.00000000000000e+00
1.28798076923077e-03 2.58263554108972e+02 0.00000000000000e+00
1.45971153846154e-03 2.56553628734498e+02 0.00000000000000e+00
1.63144230769231e-03 2.54855024526870e+02 0.00000000000000e+00
1.80317307692308e-03 2.53167666530292e+02 0.00000000000000e+00
1.97490384615385e-03 2.51491480285237e+02 0.00000000000000e+00
2.14663461538462e-03 2.49826391825167e+02 0.00000000000000e+00
2.31836538461538e-03 2.48172327673263e+02 0.00000000000000e+00
2.49009615384615e-03 2.46529214839187e+02 0.00000000000000e+00
2.66182692307692e-03 2.44896980815858e+02 0.00000000000000e+00
2.83355769230769e-03 2.43275553576255e+02 0.00000000000000e+00
3.00528846153846e-03 2.41664861570237e+02 0.00000000000000e+00
3.17701923076923e-03 2.40064833721387e+02 0.00000000000000e+00
3.34875000000000e-03 2.38475399423872e+02 0.00000000000000e+00
3.52048076923077e-03 2.36896488539333e+02 0.00000000000000e+00
3.69221153846154e-03 2.35328031393784e+02 0.00000000000000e+00
3.86394230769231e-03 2.33769958774544e+02 0.00000000000000e+00
4.03567307692308e-03 2.32222201927174e+02 0.00000000000000e+00
4.20740384615385e-03 2.30684692552453e+02 0.00000000000000e+00
4.37913461538462e-03 2.29157362803357e+02 0.00000000000000e+00
4.55086538461538e-03 2.27640145282067e+02 0.00000000000000e+00
4.72259615384615e-03 2.26132973036996e+02 0.00000000000000e+00
4.89432692307692e-03 2.24635779559832e+02 0.00000000000000e+00
5.06605769230769e-03 2.23148498782608e+02 0.00000000000000e+00
5.23778846153846e-03 2.21671065074781e+02 0.00000000000000e+00
5.40951923076923e-03 2.20203413240338e+02 0.00000000000000e+00
5.58125000000000e-03 2.18745478514920e+02 0.00000000000000e+00
5.75298076923077e-03 2.17297196562965e+02 0.00000000000000e+00
5.92471153846154e-03 2.15858503474865e+02 0.00000000000000e+00
6.09644230769231e-03 2.14429335764148e+02 0.00000000000000e+00
6.26817307692308e-03 2.13009630364680e+02 0.00000000000000e+00
6.43990384615385e-03 2.11599324627874e+02 0.00000000000000e+00
6.61163461538462e-03 2.10198356319935e+02 0.00000000000000e+00
6.78336538461539e-03 2.08806663619105e+02 0.00000000000000e+00
6.95509615384615e-03 2.07424185112940e+02 0.00000000000000e+00
7.12682692307692e-03 2.06050859795600e+02 0.00000000000000e+00
7.29855769230769e-03 2.04686627065156e+02 0.00000000000000e+00
7.47028846153846e-03 2.03331426720912e+02 0.00000000000000e+00
7.64201923076923e-03 2.01985198960757e+02 0.00000000000000e+00
7.81375000000000e-03 2.00647884378517e+02 0.00000000000000e+00
7.98548076923077e-03 1.99319423961341e+02 0.00000000000000e+00
8.15721153846154e-03 1.97999759087090e+02 0.00000000000000e+00
8.32894230769231e-03 1.96688831521756e+02 0.00000000000000e+00
8.50067307692308e-03 1.95386583416889e+02 0.00000000000000e+00
8.67240384615385e-03 1.94092957307047e+02 0.00000000000000e+00
8.84413461538461e-03 1.92807896107255e+02 0.00000000000000e+00
9.01586538461538e-03 1.91531343110492e+02 0.00000000000000e+00
9.18759615384615e-03 1.90263241985184e+02 0.00000000000000e+00
9.35932692307692e-03 1.89003536772722e+02 0.00000000000000e+00
9.53105769230769e-03 1.87752171884991e+02 0.00000000000000e+00
9.70278846153846e-03 1.86509092101913e+02 0.00000000000000e+00
9.87451923076923e-03 1.85274242569019e+02 0.00000000000000e+00
1.00462500000000e-02 1.84047568795021e+02 0.00000000000000e+00
1.02179807692308e-02 1.82829016649410e+02 0.00000000000000e+00
1.03897115384615e-02 1.81618532360067e+02 0.00000000000000e+00
1.05614423076923e-02 1.80416062510892e+02 0.00000000000000e+00
1.07331730769231e-02 1.79221554039442e+02 0.00000000000000e+00
1.09049038461538e-02 1.78034954234596e+02 0.00000000000000e+00
1.10766346153846e-02 1.76856210734225e+02 0.00000000000000e+00
1.12483653846154e-02 1.75685271522880e+02 0.00000000000000e+00
1.14200961538462e-02 1.74522084929500e+02 0.00000000000000e+00
1.15918269230769e-02 1.73366599625132e+02 0.00000000000000e+00
1.17635576923077e-02 1.72218764620662e+02 0.00000000000000e+00
1.19352884615385e-02 1.71078529264570e+02 0.00000000000000e+00
1.21070192307692e-02 1.69945843240689e+02 0.00000000000000e+00
1.22787500000000e-02 1.68820656565992e+02 0.00000000000000e+00
1.24504807692308e-02 1.67702919588379e+02 0.00000000000000e+00
1.26222115384615e-02 1.66592582984492e+02 0.00000000000000e+00
1.27939423076923e-02 1.65489597757533e+02 0.00000000000000e+00
1.29656730769231e-02 1.64393915235107e+02 0.00000000000000e+00
1.31374038461538e-02 1.63305487067070e+02 0.00000000000000e+00
1.33091346153846e-02 1.62224265223400e+02 0.00000000000000e+00
1.34808653846154e-02 1.61150201992071e+02 0.00000000000000e+00
1.36525961538462e-02 1.60083249976955e+02 0.00000000000000e+00
1.38243269230769e-02 1.59023362095725e+02 0.00000000000000e+00
1.39960576923077e-02 1.57970491577778e+02 0.00000000000000e+00
1.41677884615385e-02 1.56924591962176e+02 0.00000000000000e+00
1.43395192307692e-02 1.55885617095588e+02 0.00000000000000e+00
1.45112500000000e-02 1.54853521130260e+02 0.00000000000000e+00
1.46829807692308e-02 1.53828258521989e+02 0.00000000000000e+00
1.48547115384615e-02 1.52809784028114e+02 0.00000000000000e+00
1.50264423076923e-02 1.51798052705516e+02 0.00000000000000e+00
1.51981730769231e-02 1.50793019908643e+02 0.00000000000000e+00
1.53699038461538e-02 1.49794641287529e+02 0.00000000000000e+00
1.55416346153846e-02 1.48802872785848e+02 0.00000000000000e+00
1.57133653846154e-02 1.47817670638960e+02 0.00000000000000e+00
1.58850961538462e-02 1.46838991371988e+02 0.00000000000000e+00
1.60568269230769e-02 1.45866791797894e+02 0.00000000000000e+00
1.62285576923077e-02 1.44901029015574e+02 0.00000000000000e+00
1.64002884615385e-02 1.43941660407968e+02 0.00000000000000e+00
1.65720192307692e-02 1.42988643640176e+02 0.00000000000000e+00
1.67437500000000e-02 1.42041936657593e+02 0.00000000000000e+00
1.69154807692308e-02 1.41101497684049e+02 0.00000000000000e+00
1.70872115384615e-02 1.40167285219969e+02 0.00000000000000e+00
1.72589423076923e-02 1.39239258040542e+02 0.00000000000000e+00
1.74306730769231e-02 1.38317375193899e+02 0.00000000000000e+00
1.76024038461538e-02 1.37401595999306e+02 0.00000000000000e+00
1.77741346153846e-02 1.36491880045374e+02 0.00000000000000e+00
1.79458653846154e-02 1.35588187188268e+02 0.00000000000000e+00
1.81175961538462e-02 1.34690477549941e+02 0.00000000000000e+00
1.82893269230769e-02 1.33798711516375e+02 0.00000000000000e+00
1.84610576923077e-02 1.32912849735827e+02 0.00000000000000e+00
1.86327884615385e-02 1.32032853117098e+02 0.00000000000000e+00
1.88045192307692e-02 1.31158682827807e+02 0.00000000000000e+00
1.89762500000000e-02 1.30290300292673e+02 0.00000000000000e+00
1.91479807692308e-02 1.29427667191821e+02 0.00000000000000e+00
1.93197115384615e-02 1.28570745459083e+02 0.00000000000000e+00
1.94914423076923e-02 1.27719497280323e+02 0.00000000000000e+00
1.96631730769231e-02 1.26873885091767e+02 0.00000000000000e+00
1.98349038461538e-02 1.26033871578343e+02 0.00000000000000e+00
2.00066346153846e-02 1.25199419672040e+02 0.00000000000000e+00
2.01783653846154e-02 1.24370492550267e+02 0.00000000000000e+00
2.03500961538462e-02 1.23547053634230e+02 0.00000000000000e+00
2.05218269230769e-02 1.22729066587318e+02 0.00000000000000e+00
2.06935576923077e-02 1.21916495313501e+02 0.00000000000000e+00
2.08652884615385e-02 1.21109303955732e+02 0.00000000000000e+00
2.10370192307692e-02 1.20307456894372e+02 0.00000000000000e+00
2.12087500000000e-02 1.19510918745613e+02 0.00000000000000e+00
2.13804807692308e-02 1.18719654359917e+02 0.00000000000000e+00
2.15522115384615e-02 1.17933628820467e+02 0.00000000000000e+00
2.17239423076923e-02 1.17152807441626e+02 0.00000000000000e+00
2.18956730769231e-02 1.16377155767404e+02 0.00000000000000e+00
2.20674038461538e-02 1.15606639569940e+02 0.00000000000000e+00
2.22391346153846e-02 1.14841224847990e+02 0.00000000000000e+00
2.24108653846154e-02 1.14080877825428e+02 0.00000000000000e+00
2.25825961538462e-02 1.13325564949754e+02 0.00000000000000e+00
2.27543269230769e-02 1.12575252890615e+02 0.00000000000000e+00
2.29260576923077e-02 1.11829908538333e+02 0.00000000000000e+00
2.30977884615385e-02 1.11089499002445e+02 0.00000000000000e+00
2.32695192307692e-02 1.10353991610250e+02 0.00000000000000e+00
2.34412500000000e-02 1.09623353905368e+02 0.00000000000000e+00
2.36129807692308e-02 1.08897553646310e+02 0.00000000000000e+00
2.37847115384615e-02 1.08176558805051e+02 0.00000000000000e+00
2.39564423076923e-02 1.07460337565620e+02 0.00000000000000e+00
2.41281730769231e-02 1.06748858322694e+02 0.00000000000000e+00
2.42999038461538e-02 1.06042089680205e+02 0.00000000000000e+00
2.44716346153846e-02 1.05340000449953e+02 0.00000000000000e+00
2.46433653846154e-02 1.04642559650233e+02 0.00000000000000e+00
2.48150961538462e-02 1.03949736504463e+02 0.00000000000000e+00
2.49868269230769e-02 1.03261500439827e+02 0.00000000000000e+00
2.51585576923077e-02 1.02577821085931e+02 0.00000000000000e+00
2.53302884615385e-02 1.01898668273456e+02 0.00000000000000e+00
2.55020192307692e-02 1.01224012032830e+02 0.00000000000000e+00
2.56737500000000e-02 1.00553822592907e+02 0.00000000000000e+00
2.58454807692308e-02 9.98880703796492e+01 0.00000000000000e+00
2.60172115384615e-02 9.92267260148256e+01 0.00000000000000e+00
2.61889423076923e-02 9.85697603147137e+01 0.00000000000000e+00
2.63606730769231e-02 9.79171442888121e+01 0.00000000000000e+00
2.65324038461538e-02 9.72688491385615e+01 0.00000000000000e+00
2.67041346153846e-02 9.66248462560735e+01 0.00000000000000e+00
2.68758653846154e-02 9.59851072228684e+01 0.00000000000000e+00
2.70475961538462e-02 9.53496038086212e+01 0.00000000000000e+00
2.72193269230769e-02 9.47183079699157e+01 0.00000000000000e+00
2.73910576923077e-02 9.40911918490071e+01 0.00000000000000e+00
2.75627884615385e-02 9.34682277725927e+01 0.00000000000000e+00
2.77345192307692e-02 9.28493882505906e+01 0.00000000000000e+00
2.79062500000000e-02 9.22346459749269e+01 0.00000000000000e+00
2.80779807692308e-02 9.16239738183303e+01 0.00000000000000e+00
2.82497115384615e-02 9.10173448331352e+01 0.00000000000000e+00
2.84214423076923e-02 9.04147322500929e+01 0.00000000000000e+00
2.85931730769231e-02 8.98161094771895e+01 0.00000000000000e+00
2.87649038461538e-02 8.92214500984733e+01 0.00000000000000e+00
2.89366346153846e-02 8.86307278728887e+01 0.00000000000000e+00
2.91083653846154e-02 8.80439167331183e+01 0.00000000000000e+00
2.92800961538462e-02 8.74609907844326e+01 0.00000000000000e+00
2.94518269230769e-02 8.68819243035472e+01 0.00000000000000e+00
2.96235576923077e-02 8.63066917374881e+01 0.00000000000000e+00
2.97952884615385e-02 8.57352677024636e+01 0.00000000000000e+00
2.99670192307692e-02 8.51676269827444e+01 0.00000000000000e+00
3.01387500000000e-02 8.46037445295510e+01 0.00000000000000e+00
3.03104807692308e-02 8.40435954599480e+01 0.00000000000000e+00
3.04822115384615e-02 8.34871550557467e+01 0.00000000000000e+00
3.06539423076923e-02 8.29343987624134e+01 0.00000000000000e+00
3.08256730769231e-02 8.23853021879867e+01 0.00000000000000e+00
3.09974038461538e-02 8.18398411020009e+01 0.00000000000000e+00
3.11691346153846e-02 8.12979914344164e+01 0.00000000000000e+00
3.13408653846154e-02 8.07597292745582e+01 0.00000000000000e+00
3.15125961538462e-02 8.02250308700599e+01 0.00000000000000e+00
3.16843269230769e-02 7.96938726258166e+01 0.00000000000000e+00
3.18560576923077e-02 7.91662311029426e+01 0.00000000000000e+00
3.20277884615385e-02 7.86420830177383e+01 0.00000000000000e+00
3.21995192307692e-02 7.81214052406614e+01 0.00000000000000e+00
3.23712500000000e-02 7.76041747953075e+01 0.00000000000000e+00
3.25429807692308e-02 7.70903688573952e+01 0.00000000000000e+00
3.27147115384615e-02 7.65799647537597e+01 0.00000000000000e+00
3.28864423076923e-02 7.60729399613517e+01 0.00000000000000e+00
3.30581730769231e-02 7.55692721062436e+01 0.00000000000000e+00
3.32299038461538e-02 7.50689389626427e+01 0.00000000000000e+00
3.34016346153846e-02 7.45719184519097e+01 0.00000000000000e+00
3.35733653846154e-02 7.40781886415849e+01 0.00000000000000e+00
3.37450961538462e-02 7.35877277444202e+01 0.00000000000000e+00
3.39168269230769e-02 7.31005141174177e+01 0.00000000000000e+00
3.40885576923077e-02 7.26165262608747e+01 0.00000000000000e+00
3.42602884615385e-02 7.21357428174348e+01 0.00000000000000e+00
3.44320192307692e-02 7.16581425711455e+01 0.00000000000000e+00
3.46037500000000e-02 7.11837044465223e+01 0.00000000000000e+00
3.47754807692308e-02 7.07124075076181e+01 0.00000000000000e+00
3.49472115384615e-02 7.02442309570998e+01 0.00000000000000e+00
3.51189423076923e-02 6.97791541353304e+01 0.00000000000000e+00
3.52906730769231e-02 6.93171565194574e+01 0.00000000000000e+00
3.54624038461538e-02 6.88582177225069e+01 0.00000000000000e+00
3.56341346153846e-02 6.84023174924845e+01 0.00000000000000e+00
3.58058653846154e-02 6.79494357114811e+01 0.00000000000000e+00
3.59775961538462e-02 6.74995523947854e+01 0.00000000000000e+00
3.61493269230769e-02 6.70526476900019e+01 0.00000000000000e+00
3.63210576923077e-02 6.66087018761750e+01 0.00000000000000e+00
3.64927884615385e-02 6.61676953629188e+01 0.00000000000000e+00
3.66645192307692e-02 6.57296086895521e+01 0.00000000000000e+00
3.68362500000000e-02 6.52944225242405e+01 0.00000000000000e+00
3.70079807692308e-02 6.48621176631425e+01 0.00000000000000e+00
3.71797115384615e-02 6.44326750295627e+01 0.00000000000000e+00
3.73514423076923e-02 6.40060756731095e+01 0.00000000000000e+00
3.75231730769231e-02 6.35823007688592e+01 0.00000000000000e+00
3.76949038461539e-02 6.31613316165251e+01 0.00000000000000e+00
3.78666346153846e-02 6.27431496396326e+01 0.00000000000000e+00
3.80383653846154e-02 6.23277363846989e+01 0.00000000000000e+00
3.82100961538462e-02 6.19150735204192e+01 0.00000000000000e+00
3.83818269230769e-02 6.15051428368577e+01 0.00000000000000e+00
3.85535576923077e-02 6.10979262446437e+01 0.00000000000000e+00
3.87252884615385e-02 6.06934057741738e+01 0.00000000000000e+00
3.88970192307692e-02 6.02915635748187e+01 0.00000000000000e+00
3.90687500000000e-02 5.98923819141353e+01 0.00000000000000e+00
3.92404807692308e-02 5.94958431770846e+01 0.00000000000000e+00
3.94122115384615e-02 5.91019298652543e+01 0.00000000000000e+00
3.95839423076923e-02 5.87106245960863e+01 0.00000000000000e+00
3.97556730769231e-02 5.83219101021100e+01 0.00000000000000e+00
3.99274038461538e-02 5.79357692301803e+01 0.00000000000000e+00
4.00991346153846e-02 5.75521849407205e+01 0.00000000000000e+00
4.02708653846154e-02 5.71711403069703e+01 0.00000000000000e+00
4.04425961538462e-02 5.67926185142393e+01 0.00000000000000e+00
4.06143269230769e-02 5.64166028591645e+01 0.00000000000000e+00
4.07860576923077e-02 5.60430767489736e+01 0.00000000000000e+00
4.09577884615385e-02 5.56720237007524e+01 0.00000000000000e+00
4.11295192307692e-02 5.53034273407179e+01 0.00000000000000e+00
4.13012500000000e-02 5.49372714034954e+01 0.00000000000000e+00
4.14729807692308e-02 5.45735397314009e+01 0.00000000000000e+00
4.16447115384615e-02 5.42122162737282e+01 0.00000000000000e+00
4.18164423076923e-02 5.38532850860403e+01 0.00000000000000e+00
4.19881730769231e-02 5.34967303294661e+01 0.00000000000000e+00
4.21599038461538e-02 5.31425362700013e+01 0.00000000000000e+00
4.23316346153846e-02 5.27906872778143e+01 0.00000000000000e+00
4.25033653846154e-02 5.24411678265560e+01 0.00000000000000e+00
4.26750961538462e-02 5.20939624926755e+01 0.00000000000000e+00
4.28468269230769e-02 5.17490559547385e+01 0.00000000000000e+00
4.30185576923077e-02 5.14064329927520e+01 0.00000000000000e+00
4.31902884615385e-02 5.10660784874922e+01 0.00000000000000e+00
4.33620192307692e-02 5.07279774198375e+01 0.00000000000000e+00
4.35337500000000e-02 5.03921148701057e+01 0.00000000000000e+00
4.37054807692308e-02 5.00584760173958e+01 0.00000000000000e+00
4.38772115384615e-02 4.97270461389337e+01 0.00000000000000e+00
4.40489423076923e-02 4.93978106094225e+01 0.00000000000000e+00
4.42206730769231e-02 4.90707549003976e+01 0.00000000000000e+00
4.43924038461538e-02 4.87458645795849e+01 0.00000000000000e+00
4.45641346153846e-02 4.84231253102645e+01 0.00000000000000e+00
4.47358653846154e-02 4.81025228506378e+01 0.00000000000000e+00
4.49075961538462e-02 4.77840430531991e+01 0.00000000000000e+00
4.50793269230769e-02 4.74676718641111e+01 0.00000000000000e+00
4.52510576923077e-02 4.71533953225852e+01 0.00000000000000e+00
4.54227884615385e-02 4.68411995602649e+01 0.00000000000000e+00
4.55945192307692e-02 4.65310708006141e+01 0.00000000000000e+00
4.57662500000000e-02 4.62229953583093e+01 0.00000000000000e+00
4.59379807692308e-02 4.59169596386354e+01 0.00000000000000e+00
4.61097115384615e-02 4.56129501368859e+01 0.00000000000000e+00
4.62814423076923e-02 4.53109534377671e+01 0.00000000000000e+00
4.64531730769231e-02 4.50109562148060e+01 0.00000000000000e+00
4.66249038461539e-02 4.47129452297621e+01 0.00000000000000e+00
4.67966346153846e-02 4.44169073320435e+01 0.00000000000000e+00
4.69683653846154e-02 4.41228294581264e+01 0.00000000000000e+00
4.71400961538462e-02 4.38306986309787e+01 0.00000000000000e+00
4.73118269230769e-02 4.35405019594874e+01 0.00000000000000e+00
4.74835576923077e-02 4.32522266378895e+01 0.00000000000000e+00
4.76552884615385e-02 4.29658599452073e+01 0.00000000000000e+00
4.78270192307692e-02 4.26813892446867e+01 0.00000000000000e+00
4.79987500000000e-02 4.23988019832397e+01 0.00000000000000e+00
4.81704807692308e-02 4.21180856908907e+01 0.00000000000000e+00
4.83422115384615e-02 4.18392279802256e+01 0.00000000000000e+00
4.85139423076923e-02 4.15622165458459e+01 0.00000000000000e+00
4.86856730769231e-02 4.12870391638253e+01 0.00000000000000e+00
4.88574038461538e-02 4.10136836911702e+01 0.00000000000000e+00
4.90291346153846e-02 4.07421380652840e+01 0.00000000000000e+00
4.92008653846154e-02 4.04723903034349e+01 0.00000000000000e+00
4.93725961538462e-02 4.02044285022270e+01 0.00000000000000e+00
4.95443269230769e-02 3.99382408370751e+01 0.00000000000000e+00
4.97160576923077e-02 3.96738155616826e+01 0.00000000000000e+00
4.98877884615385e-02 3.94111410075238e+01 0.00000000000000e+00
5.00595192307692e-02 3.91502055833282e+01 0.00000000000000e+00
5.02312500000000e-02 3.88909977745698e+01 0.00000000000000e+00
5.04029807692308e-02 3.86335061429584e+01 0.00000000000000e+00
5.05747115384615e-02 3.83777193259350e+01 0.00000000000000e+00
5.07464423076923e-02 3.81236260361706e+01 0.00000000000000e+00
5.09181730769231e-02 3.78712150610679e+01 0.00000000000000e+00
5.10899038461538e-02 3.76204752622665e+01 0.00000000000000e+00
5.12616346153846e-02 3.73713955751516e+01 0.00000000000000e+00
5.14333653846154e-02 3.71239650083654e+01 0.00000000000000e+00
5.16050961538462e-02 3.68781726433225e+01 0.00000000000000e+00
5.17768269230769e-02 3.66340076337277e+01 0.00000000000000e+00
5.19485576923077e-02 3.63914592050977e+01 0.00000000000000e+00
5.21202884615385e-02 3.61505166542854e+01 0.00000000000000e+00
5.22920192307692e-02 3.59111693490075e+01 0.00000000000000e+00
5.24637500000000e-02 3.56734067273759e+01 0.00000000000000e+00
5.26354807692308e-02 3.54372182974309e+01 0.00000000000000e+00
5.28072115384615e-02 3.52025936366786e+01 0.00000000000000e+00
5.29789423076923e-02 3.49695223916310e+01 0.00000000000000e+00
5.31506730769231e-02 3.47379942773490e+01 0.00000000000000e+00
5.33224038461538e-02 3.45079990769884e+01 0.00000000000000e+00
5.34941346153846e-02 3.42795266413496e+01 0.00000000000000e+00
5.36658653846154e-02 3.40525668884291e+01 0.00000000000000e+00
5.38375961538462e-02 3.38271098029749e+01 0.00000000000000e+00
5.40093269230769e-02 3.36031454360446e+01 0.00000000000000e+00
5.41810576923077e-02 3.33806639045663e+01 0.00000000000000e+00
