Energy (eV)          EEDF (eV^-(3/2))     First Anisotropy
1.05263157894737e-03 6.15154556226913e-01 2.64926348148680e-08
3.15789473684211e-03 6.15154538456955e-01 7.87310100610701e-08
5.26315789473684e-03 6.15154495191056e-01 1.91063930804019e-07
7.36842105263158e-03 6.15154423629267e-01 3.35884882819806e-07
9.47368421052631e-03 6.15154324453376e-01 5.00769726896364e-07
1.15789473684211e-02 6.15154198973245e-01 6.85431400148751e-07
1.36842105263158e-02 6.15154046109129e-01 8.90065424290490e-07
1.57894736842105e-02 6.15153866241297e-01 1.10197687338697e-06
1.78947368421053e-02 6.15153662315320e-01 1.31340741588583e-06
2.00000000000000e-02 6.15153436244440e-01 1.52523733911896e-06
2.21052631578947e-02 6.15153189631865e-01 1.73889901812622e-06
2.42105263157895e-02 6.15152923272765e-01 1.95805248840372e-06
2.63157894736842e-02 6.15152637287015e-01 2.18411462001167e-06
2.84210526315789e-02 6.15152331872096e-01 2.41613589506359e-06
3.05263157894737e-02 6.15152007276612e-01 2.64825439208519e-06
3.26315789473684e-02 6.15151665073552e-01 2.87958259107015e-06
3.47368421052632e-02 6.15151305502918e-01 3.11710293778523e-06
3.68421052631579e-02 6.15150928261502e-01 3.36271469028018e-06
3.89473684210526e-02 6.15150533113462e-01 3.61587646184307e-06
4.10526315789474e-02 6.15150119883406e-01 3.87989007851817e-06
4.31578947368421e-02 6.15149687602611e-01 4.15632498296882e-06
4.52631578947368e-02 6.15149235808550e-01 4.44289793524448e-06
4.73684210526316e-02 6.15148764080784e-01 4.73935610159141e-06
4.94736842105263e-02 6.15148272033043e-01 5.04262535651015e-06
5.15789473684211e-02 6.15147759886285e-01 5.34358415598342e-06
5.36842105263158e-02 6.15147229050544e-01 5.64480113411871e-06
5.57894736842105e-02 6.15146679131773e-01 5.95517172097403e-06
5.78947368421053e-02 6.15146109758184e-01 6.27457919033309e-06
6.00000000000000e-02 6.15145520576568e-01 6.60299493725111e-06
6.21052631578947e-02 6.15144911236750e-01 6.94068416672843e-06
6.42105263157895e-02 6.15144281352773e-01 7.28807080589615e-06
6.63157894736842e-02 6.15143630514913e-01 7.64531886910771e-06
6.84210526315790e-02 6.15142958325709e-01 8.01239112226670e-06
7.05263157894737e-02 6.15142264398609e-01 8.37630292771108e-06
7.26315789473684e-02 6.15141550590023e-01 8.73194238568770e-06
7.47368421052632e-02 6.15140817310824e-01 9.09171947823249e-06
7.68421052631579e-02 6.15140064232596e-01 9.45995066103149e-06
7.89473684210526e-02 6.15139291035287e-01 9.83660786495516e-06
8.10526315789474e-02 6.15138497407228e-01 1.02217311695237e-05
8.31578947368421e-02 6.15137683033537e-01 1.06155620570886e-05
8.52631578947368e-02 6.15136847575603e-01 1.10182484730148e-05
8.73684210526316e-02 6.15135990706615e-01 1.14297069700661e-05
8.94736842105263e-02 6.15135112111713e-01 1.18498577140883e-05
9.15789473684211e-02 6.15134211486016e-01 1.22786998765807e-05
9.36842105263158e-02 6.15133288523804e-01 1.27163556521318e-05
9.57894736842105e-02 6.15132342910410e-01 1.31629047584079e-05
9.78947368421053e-02 6.15131374336541e-01 1.36183566803133e-05
1.00000000000000e-01 6.15130382494188e-01 1.40719278980250e-05
1.02105263157895e-01 6.15129368673883e-01 1.45116748992047e-05
1.04210526315789e-01 6.15128334278334e-01 1.49468045489555e-05
1.06315789473684e-01 6.15127279179539e-01 1.53876755441501e-05
1.08421052631579e-01 6.15126203248267e-01 1.58343059514599e-05
1.10526315789474e-01 6.15125106353833e-01 1.62867157688216e-05
1.12631578947368e-01 6.15123988364180e-01 1.67449246874487e-05
1.14736842105263e-01 6.15122849145949e-01 1.72089521327559e-05
1.16842105263158e-01 6.15121688564544e-01 1.76788173085538e-05
1.18947368421053e-01 6.15120506484196e-01 1.81545392209488e-05
1.21052631578947e-01 6.15119302768012e-01 1.86361366978154e-05
1.23157894736842e-01 6.15118077278025e-01 1.91236284192351e-05
1.25263157894737e-01 6.15116829875238e-01 1.96170329381659e-05
1.27368421052632e-01 6.15115560419662e-01 2.01163686989684e-05
1.29473684210526e-01 6.15114268770353e-01 2.06216540584871e-05
1.31578947368421e-01 6.15112954785444e-01 2.11329072917096e-05
1.33684210526316e-01 6.15111618322178e-01 2.16501466129381e-05
1.35789473684211e-01 6.15110259236926e-01 2.21733901977099e-05
1.37894736842105e-01 6.15108877385221e-01 2.27026561816788e-05
1.40000000000000e-01 6.15107472621773e-01 2.32379626696624e-05
1.42105263157895e-01 6.15106044800493e-01 2.37793277515023e-05
1.44210526315789e-01 6.15104593774508e-01 2.43267695193233e-05
1.46315789473684e-01 6.15103119396180e-01 2.48803060544661e-05
1.48421052631579e-01 6.15101621517120e-01 2.54399554414535e-05
1.50526315789474e-01 6.15100099988201e-01 2.60057357790666e-05
1.52631578947368e-01 6.15098554659572e-01 2.65776651825699e-05
1.54736842105263e-01 6.15096985380667e-01 2.71557617956400e-05
1.56842105263158e-01 6.15095392000217e-01 2.77400437825909e-05
1.58947368421053e-01 6.15093774366259e-01 2.83305293308313e-05
1.61052631578947e-01 6.15092132326145e-01 2.89272366658730e-05
1.63157894736842e-01 6.15090465726547e-01 2.95301840559041e-05
1.65263157894737e-01 6.15088774413466e-01 3.01393898014803e-05
1.67368421052632e-01 6.15087058232238e-01 3.07548722393066e-05
1.69473684210526e-01 6.15085317027542e-01 3.13766497379714e-05
1.71578947368421e-01 6.15083550643400e-01 3.20047398839964e-05
1.73684210526316e-01 6.15081758923281e-01 3.26391579925039e-05
1.75789473684211e-01 6.15079941710263e-01 3.32799153467720e-05
1.77894736842105e-01 6.15078098847317e-01 3.39270155289386e-05
1.80000000000000e-01 6.15076230177868e-01 3.45804481700241e-05
1.82105263157895e-01 6.15074335546737e-01 3.52401808858814e-05
1.84210526315789e-01 6.15072414801538e-01 3.59061510559766e-05
1.86315789473684e-01 6.15070467794452e-01 3.65782607109188e-05
1.88421052631579e-01 6.15068494384094e-01 3.72563785388829e-05
1.90526315789474e-01 6.15066494436979e-01 3.79403519602433e-05
1.92631578947368e-01 6.15064467828020e-01 3.86300193680986e-05
1.94736842105263e-01 6.15062414440637e-01 3.93252375670263e-05
1.96842105263158e-01 6.15060334164357e-01 4.00259201450480e-05
1.98947368421053e-01 6.15058226890970e-01 4.07320335733200e-05
2.01052631578947e-01 6.15056092512698e-01 4.13979248557340e-05
2.03157894736842e-01 6.15053935965271e-01 4.20223744710920e-05
2.05263157894737e-01 6.15051757215870e-01 4.26499627664929e-05
2.07368421052632e-01 6.15049556248446e-01 4.32805109199554e-05
2.09473684210526e-01 6.15047333046875e-01 4.39140030104727e-05
2.11578947368421e-01 6.15045087594942e-01 4.45504235629207e-05
2.13684210526316e-01 6.15042819876338e-01 4.51897575476193e-05
2.15789473684211e-01 6.15040529874646e-01 4.58319903557068e-05
2.17894736842105e-01 6.15038217573335e-01 4.64771077806761e-05
2.20000000000000e-01 6.15035882955749e-01 4.71250960174309e-05
2.22105263157895e-01 6.15033526005103e-01 4.77759416514003e-05
2.24210526315789e-01 6.15031146704476e-01 4.84296316441572e-05
2.26315789473684e-01 6.15028745036801e-01 4.90861533210874e-05
2.28421052631579e-01 6.15026320984859e-01 4.97454943679818e-05
2.30526315789474e-01 6.15023874531276e-01 5.04076428185934e-05
2.32631578947368e-01 6.15021405658516e-01 5.10725870397571e-05
2.34736842105263e-01 6.15018914348876e-01 5.17403157289294e-05
2.36842105263158e-01 6.15016400584478e-01 5.24108179083684e-05
2.38947368421053e-01 6.15013864347269e-01 5.30840829239522e-05
2.41052631578947e-01 6.15011305619012e-01 5.37601004174059e-05
2.43157894736842e-01 6.15008724381284e-01 5.44388603225059e-05
2.45263157894737e-01 6.15006120615475e-01 5.51203528742197e-05
2.47368421052632e-01 6.15003494302776e-01 5.58045685958810e-05
2.49473684210526e-01 6.15000845424185e-01 5.64914982826735e-05
2.51578947368421e-01 6.14998173960494e-01 5.71811330002627e-05
2.53684210526316e-01 6.14995479892295e-01 5.78734640847234e-05
2.55789473684211e-01 6.14992763199971e-01 5.85684831318699e-05
2.57894736842105e-01 6.14990023863693e-01 5.92661819864830e-05
2.60000000000000e-01 6.14987261863421e-01 5.99665527338309e-05
2.62105263157895e-01 6.14984477178900e-01 6.06695877104124e-05
2.64210526315789e-01 6.14981669789655e-01 6.13752794908731e-05
2.66315789473684e-01 6.14978839674992e-01 6.20836208711261e-05
2.68421052631579e-01 6.14975986813994e-01 6.27946048757845e-05
2.70526315789474e-01 6.14973111185521e-01 6.35082246139393e-05
2.72631578947368e-01 6.14970212768218e-01 6.42244729107300e-05
2.74736842105263e-01 6.14967291540548e-01 6.49433417785052e-05
2.76842105263158e-01 6.14964347480848e-01 6.56648215226659e-05
2.78947368421053e-01 6.14961380567442e-01 6.63888991493260e-05
2.81052631578947e-01 6.14958390778836e-01 6.71155560313817e-05
2.83157894736842e-01 6.14955378094037e-01 6.78447651567392e-05
2.85263157894737e-01 6.14952342492987e-01 6.85764888175269e-05
2.87368421052632e-01 6.14949283957074e-01 6.93106781519222e-05
2.89473684210526e-01 6.14946202469594e-01 7.00472756180845e-05
2.91578947368421e-01 6.14943098016021e-01 7.07862192470412e-05
2.93684210526316e-01 6.14939970584076e-01 7.15274495292460e-05
2.95789473684211e-01 6.14936820163387e-01 7.22709203188404e-05
2.97894736842105e-01 6.14933646744598e-01 7.30166043154186e-05
3.00000000000000e-01 6.14930450318580e-01 7.37563206246632e-05
3.02105263157895e-01 6.14927231723821e-01 7.44997354671224e-05
3.04210526315789e-01 6.14923990248478e-01 7.52904493744657e-05
3.06315789473684e-01 6.14920722830068e-01 7.61530959175201e-05
3.08421052631579e-01 6.14917426530274e-01 7.70854442045411e-05
3.10526315789474e-01 6.14914098530699e-01 7.80853208768557e-05
3.12631578947368e-01 6.14910736128798e-01 7.91506081207095e-05
3.14736842105263e-01 6.14907336733967e-01 8.02792420644897e-05
3.16842105263158e-01 6.14903897863768e-01 8.14692112291870e-05
3.18947368421053e-01 6.14900417140298e-01 8.27185550261025e-05
3.21052631578947e-01 6.14896892286683e-01 8.40253623059834e-05
3.23157894736842e-01 6.14893321123706e-01 8.53877699781799e-05
3.25263157894737e-01 6.14889701566547e-01 8.68039616538711e-05
3.27368421052632e-01 6.14886031621646e-01 8.82721663311579e-05
3.29473684210526e-01 6.14882309383674e-01 8.97906571374118e-05
3.31578947368421e-01 6.14878533032613e-01 9.13577500818058e-05
3.33684210526316e-01 6.14874700830939e-01 9.29718028726957e-05
3.35789473684211e-01 6.14870811120907e-01 9.46312138019846e-05
3.37894736842105e-01 6.14866862321918e-01 9.63344206030787e-05
3.40000000000000e-01 6.14862852927997e-01 9.80798993553508e-05
3.42105263157895e-01 6.14858781505343e-01 9.98661634622171e-05
3.44210526315789e-01 6.14854646689973e-01 1.01691762645045e-04
3.46315789473684e-01 6.14850447185439e-01 1.03555281941308e-04
3.48421052631579e-01 6.14846181760635e-01 1.05455340748189e-04
3.50526315789474e-01 6.14841849247663e-01 1.07390591912649e-04
3.52631578947368e-01 6.14837448539791e-01 1.09359720801844e-04
3.54736842105263e-01 6.14832978589465e-01 1.11361444468822e-04
3.56842105263158e-01 6.14828438406391e-01 1.13394510818885e-04
3.58947368421053e-01 6.14823827055693e-01 1.15457697743385e-04
3.61052631578947e-01 6.14819143656115e-01 1.17549812341890e-04
3.63157894736842e-01 6.14814387378302e-01 1.19669690152261e-04
3.65263157894737e-01 6.14809557443123e-01 1.21816194406548e-04
3.67368421052632e-01 6.14804653120062e-01 1.23988215305820e-04
3.69473684210526e-01 6.14799673725649e-01 1.26184669283692e-04
3.71578947368421e-01 6.14794618621964e-01 1.28404498205987e-04
3.73684210526316e-01 6.14789487215175e-01 1.30646668482779e-04
3.75789473684211e-01 6.14784278954157e-01 1.32910170124077e-04
3.77894736842105e-01 6.14778993329152e-01 1.35194015490809e-04
3.80000000000000e-01 6.14773629870522e-01 1.37497237620142e-04
3.82105263157895e-01 6.14768188147586e-01 1.39818888373132e-04
3.84210526315789e-01 6.14762667767555e-01 1.42158036634529e-04
3.86315789473684e-01 6.14757068374540e-01 1.44513766934634e-04
3.88421052631579e-01 6.14751389648627e-01 1.46885179206431e-04
3.90526315789474e-01 6.14745631304937e-01 1.49271390287092e-04
3.92631578947368e-01 6.14739793092602e-01 1.51671535835020e-04
3.94736842105263e-01 6.14733874793694e-01 1.54084774689218e-04
3.96842105263158e-01 6.14727876221896e-01 1.56510294447747e-04
3.98947368421053e-01 6.14721797221035e-01 1.58947309715680e-04
4.01052631578947e-01 6.14715637663930e-01 1.61341030133307e-04
4.03157894736842e-01 6.14709402260277e-01 1.63731333488505e-04
4.05263157894737e-01 6.14703087825871e-01 1.66211454992225e-04
4.07368421052632e-01 6.14696691283019e-01 1.68778865857163e-04
4.09473684210526e-01 6.14690209680049e-01 1.71430802229137e-04
4.11578947368421e-01 6.14683640187346e-01 1.74164570684078e-04
4.13684210526316e-01 6.14676980093502e-01 1.76977546539885e-04
4.15789473684211e-01 6.14670226801583e-01 1.79867172222425e-04
4.17894736842105e-01 6.14663377825514e-01 1.82830955651413e-04
4.20000000000000e-01 6.14656430786568e-01 1.85866468686392e-04
4.22105263157895e-01 6.14649383409956e-01 1.88971345611639e-04
4.24210526315789e-01 6.14642233521534e-01 1.92143281665007e-04
4.26315789473684e-01 6.14634979044589e-01 1.95380031614247e-04
4.28421052631579e-01 6.14627617996734e-01 1.98679408350158e-04
4.30526315789474e-01 6.14620148486891e-01 2.02039281523435e-04
4.32631578947368e-01 6.14612568712360e-01 2.05457576224111e-04
4.34736842105263e-01 6.14604876955984e-01 2.08932271691938e-04
4.36842105263158e-01 6.14597071583384e-01 2.12461400048801e-04
4.38947368421053e-01 6.14589151040288e-01 2.16043045084625e-04
4.41052631578947e-01 6.14581113849930e-01 2.19675341056440e-04
4.43157894736842e-01 6.14572958610531e-01 2.23356471518377e-04
4.45263157894737e-01 6.14564683992847e-01 2.27084668185537e-04
4.47368421052632e-01 6.14556288737799e-01 2.30858209836147e-04
4.49473684210526e-01 6.14547771654158e-01 2.34675421238271e-04
4.51578947368421e-01 6.14539131616308e-01 2.38534672067248e-04
4.53684210526316e-01 6.14530367562074e-01 2.42434375901474e-04
4.55789473684211e-01 6.14521478490605e-01 2.46372989214367e-04
4.57894736842105e-01 6.14512463460328e-01 2.50349010399958e-04
4.60000000000000e-01 6.14503321586950e-01 2.54360978833297e-04
4.62105263157895e-01 6.14494052041530e-01 2.58407473922272e-04
4.64210526315789e-01 6.14484654048595e-01 2.62487114208369e-04
4.66315789473684e-01 6.14475126884321e-01 2.66598556476018e-04
4.68421052631579e-01 6.14465469874757e-01 2.70740494897754e-04
4.70526315789474e-01 6.14455682394103e-01 2.74911660178053e-04
4.72631578947368e-01 6.14445763863045e-01 2.79110818587470e-04
4.74736842105263e-01 6.14435713747135e-01 2.83336771024151e-04
4.76842105263158e-01 6.14425531555227e-01 2.87588352002517e-04
4.78947368421053e-01 6.14415216837971e-01 2.91864428389653e-04
4.81052631578947e-01 6.14404769186370e-01 2.96163897962357e-04
4.83157894736842e-01 6.14394188230415e-01 3.00485687883369e-04
4.85263157894737e-01 6.14383473637776e-01 3.04828753211226e-04
4.87368421052632e-01 6.14372625112573e-01 3.09192076237314e-04
4.89473684210526e-01 6.14361642394147e-01 3.13574666996463e-04
4.91578947368421e-01 6.14350525255812e-01 3.17975563921260e-04
4.93684210526316e-01 6.14339273503598e-01 3.22393835159384e-04
4.95789473684211e-01 6.14327886974940e-01 3.26828581539285e-04
4.97894736842105e-01 6.14316365537233e-01 3.31278937175893e-04
5.00000000000000e-01 6.14304709086501e-01 3.35713054825200e-04
5.02105263157895e-01 6.14292919965098e-01 3.40102248723722e-04
5.04210526315789e-01 6.14281000320948e-01 3.44483380571409e-04
5.06315789473684e-01 6.14268949666647e-01 3.48889855427972e-04
5.08421052631579e-01 6.14256767566065e-01 3.53320245287834e-04
5.10526315789474e-01 6.14244453632772e-01 3.57773156800615e-04
5.12631578947368e-01 6.14232007528484e-01 3.62247230811034e-04
5.14736842105263e-01 6.14219428961552e-01 3.66741141694734e-04
5.16842105263158e-01 6.14206717685484e-01 3.71253596673313e-04
5.18947368421053e-01 6.14193873497515e-01 3.75783335171682e-04
5.21052631578947e-01 6.14180896237206e-01 3.80329128163586e-04
5.23157894736842e-01 6.14167785785080e-01 3.84889777550912e-04
5.25263157894737e-01 6.14154542061297e-01 3.89464115558018e-04
5.27368421052632e-01 6.14141165024358e-01 3.94051004130210e-04
5.29473684210526e-01 6.14127654669845e-01 3.98649334338359e-04
5.31578947368421e-01 6.14114011029195e-01 4.03258025814511e-04
5.33684210526316e-01 6.14100234168497e-01 4.07876026201180e-04
5.35789473684210e-01 6.14086324187333e-01 4.12502310585253e-04
5.37894736842105e-01 6.14072281217634e-01 4.17135880936309e-04
5.40000000000000e-01 6.14058105422578e-01 4.21775765613762e-04
5.42105263157895e-01 6.14043796995508e-01 4.26421018846750e-04
5.44210526315789e-01 6.14029356158882e-01 4.31070720211429e-04
5.46315789473684e-01 6.14014783163244e-01 4.35723974143874e-04
5.48421052631579e-01 6.14000078286229e-01 4.40379909431304e-04
5.50526315789474e-01 6.13985241831588e-01 4.45037678762844e-04
5.52631578947368e-01 6.13970274128240e-01 4.49696458252697e-04
5.54736842105263e-01 6.13955175529346e-01 4.54355446972218e-04
5.56842105263158e-01 6.13939946411411e-01 4.59013866499511e-04
5.58947368421053e-01 6.13924587173404e-01 4.63670960501971e-04
5.61052631578947e-01 6.13909098235904e-01 4.68325994290471e-04
5.63157894736842e-01 6.13893480040263e-01 4.72978254380224e-04
5.65263157894737e-01 6.13877733047800e-01 4.77627048095448e-04
5.67368421052632e-01 6.13861857739003e-01 4.82271703161387e-04
5.69473684210526e-01 6.13845854612762e-01 4.86911567287746e-04
5.71578947368421e-01 6.13829724185616e-01 4.91546007751966e-04
5.73684210526316e-01 6.13813466991023e-01 4.96174410906754e-04
5.75789473684211e-01 6.13797083578657e-01 5.00796181669287e-04
5.77894736842105e-01 6.13780574513719e-01 5.05410742923566e-04
5.80000000000000e-01 6.13763940376288e-01 5.10017534738196e-04
5.82105263157895e-01 6.13747181760696e-01 5.14616013433829e-04
5.84210526315790e-01 6.13730299274953e-01 5.19205650746778e-04
5.86315789473684e-01 6.13713293540183e-01 5.23785933548843e-04
5.88421052631579e-01 6.13696165190080e-01 5.28356363805781e-04
5.90526315789474e-01 6.13678914870352e-01 5.32916458441985e-04
5.92631578947368e-01 6.13661543238196e-01 5.37465750573828e-04
5.94736842105263e-01 6.13644050961660e-01 5.42003791706077e-04
5.96842105263158e-01 6.13626438718971e-01 5.46530153193028e-04
5.98947368421053e-01 6.13608707197826e-01 5.51044424487130e-04
6.01052631578947e-01 6.13590857094852e-01 5.55604096897846e-04
6.03157894736842e-01 6.13572885383176e-01 5.60377296546319e-04
6.05263157894737e-01 6.13554781944767e-01 5.65523930714128e-04
6.07368421052632e-01 6.13536533531035e-01 5.71087253264616e-04
6.09473684210526e-01 6.13518127350586e-01 5.77054965569445e-04
6.11578947368421e-01 6.13499551057193e-01 5.83415048551969e-04
6.13684210526316e-01 6.13480792738074e-01 5.90155756428756e-04
6.15789473684211e-01 6.13461840902468e-01 5.97265610643492e-04
6.17894736842105e-01 6.13442684470506e-01 6.04733393938077e-04
6.20000000000000e-01 6.13423312762366e-01 6.12548144513729e-04
6.22105263157895e-01 6.13403715487701e-01 6.20699150398550e-04
6.24210526315789e-01 6.13383882735336e-01 6.29175943917046e-04
6.26315789473684e-01 6.13363804963237e-01 6.37968296257414e-04
6.28421052631579e-01 6.13343472988719e-01 6.47066212197288e-04
6.30526315789474e-01 6.13322877978915e-01 6.56459924943779e-04
6.32631578947368e-01 6.13302011441487e-01 6.66139891053622e-04
6.34736842105263e-01 6.13280865215562e-01 6.76096785497550e-04
6.36842105263158e-01 6.13259431462915e-01 6.86321496843595e-04
6.38947368421053e-01 6.13237702659358e-01 6.96805122500157e-04
6.41052631578947e-01 6.13215671586365e-01 7.07538964089872e-04
6.43157894736842e-01 6.13193331322895e-01 7.18514522935743e-04
6.45263157894737e-01 6.13170675237434e-01 7.29723495633547e-04
6.47368421052632e-01 6.13147696980232e-01 7.41157769719813e-04
6.49473684210526e-01 6.13124390475740e-01 7.52809419419743e-04
6.51578947368421e-01 6.13100749915239e-01 7.64670701519899e-04
6.53684210526316e-01 6.13076769749657e-01 7.76734051325181e-04
6.55789473684210e-01 6.13052444682566e-01 7.88992078655604e-04
6.57894736842105e-01 6.13027769663362e-01 8.01437563991762e-04
6.60000000000000e-01 6.13002739880613e-01 8.14063454681877e-04
6.62105263157895e-01 6.12977350755578e-01 8.26862861213843e-04
6.64210526315789e-01 6.12951597935894e-01 8.39829053582672e-04
