Energy (eV)          EEDF (eV^-(3/2))     First Anisotropy
2.01612903225806e-02 1.62842110880362e-01 1.09222018066571e-04
6.04838709677419e-02 1.61038779011845e-01 1.79962951669573e-04
1.00806451612903e-01 1.59255417441706e-01 2.36530938027991e-04
1.41129032258065e-01 1.57491805017416e-01 2.78878068943025e-04
1.81451612903226e-01 1.55747723031360e-01 3.13680202478418e-04
2.21774193548387e-01 1.54022955212771e-01 3.43477357563962e-04
2.62096774193548e-01 1.52317287664496e-01 3.69591891012006e-04
3.02419354838710e-01 1.50630508868509e-01 3.92827002926100e-04
3.42741935483871e-01 1.48962409654774e-01 4.13718453562826e-04
3.83064516129032e-01 1.47312783157837e-01 4.32647055747084e-04
4.23387096774194e-01 1.45681424813081e-01 4.49896285930703e-04
4.63709677419355e-01 1.44068132312952e-01 4.65684728862693e-04
5.04032258064516e-01 1.42472705594385e-01 4.80185681645599e-04
5.44354838709677e-01 1.40894946812910e-01 4.93539666682883e-04
5.84677419354839e-01 1.39334660308813e-01 5.05862771466382e-04
6.25000000000000e-01 1.37791652592194e-01 5.17252410320943e-04
6.65322580645161e-01 1.36265732318328e-01 5.27791427725816e-04
7.05645161290323e-01 1.34756710256583e-01 5.37551092738710e-04
7.45967741935484e-01 1.33264399274302e-01 5.46593333459324e-04
7.86290322580645e-01 1.31788614313147e-01 5.54972438114510e-04
8.26612903225806e-01 1.30329172360157e-01 5.62736369158921e-04
8.66935483870968e-01 1.28885892431062e-01 5.69927794588634e-04
9.07258064516129e-01 1.27458595547484e-01 5.76584909626311e-04
9.47580645161290e-01 1.26047104709744e-01 5.82742096511958e-04
9.87903225806452e-01 1.24651244881378e-01 5.88430462433894e-04
1.02822580645161e+00 1.23270842955845e-01 5.93678279103841e-04
1.06854838709677e+00 1.21905727757778e-01 5.98511349489074e-04
1.10887096774194e+00 1.20555730000131e-01 6.02953315008058e-04
1.14919354838710e+00 1.19220682270575e-01 6.07025910423129e-04
1.18951612903226e+00 1.17900419010733e-01 6.10749182604679e-04
1.22983870967742e+00 1.16594776495648e-01 6.14141676474711e-04
1.27016129032258e+00 1.15303592813482e-01 6.17220594564984e-04
1.31048387096774e+00 1.14026707845400e-01 6.20001934678820e-04
1.35080645161290e+00 1.12763963245783e-01 6.22500609291452e-04
1.39112903225806e+00 1.11515202422555e-01 6.24730549613513e-04
1.43145161290323e+00 1.10280270517759e-01 6.26704796682037e-04
1.47177419354839e+00 1.09059014388358e-01 6.28435581449019e-04
1.51209677419355e+00 1.07851282587241e-01 6.29934395475770e-04
1.55241935483871e+00 1.06656925344443e-01 6.31212054544511e-04
1.59274193548387e+00 1.05475794541155e-01 6.32278751400406e-04
1.63306451612903e+00 1.04307743713967e-01 6.33144107445981e-04
1.67338709677419e+00 1.03152628013711e-01 6.33817219234382e-04
1.71370967741935e+00 1.02010304195298e-01 6.34306695343372e-04
1.75403225806452e+00 1.00880630599953e-01 6.34620693366970e-04
1.79435483870968e+00 9.97634671376498e-02 6.34766952380933e-04
1.83467741935484e+00 9.86586752697364e-02 6.34752822331818e-04
1.87500000000000e+00 9.75661179917562e-02 6.34585290708420e-04
1.91532258064516e+00 9.64856598164514e-02 6.34271006802242e-04
1.95564516129032e+00 9.54171667569680e-02 6.33816303826036e-04
1.99596774193548e+00 9.43605063102450e-02 6.33227219127334e-04
2.03629032258065e+00 9.33155474405766e-02 6.32509512695775e-04
2.07661290322581e+00 9.22821605633625e-02 6.31668684141454e-04
2.11693548387097e+00 9.12602175290381e-02 6.30709988302498e-04
2.15725806451613e+00 9.02495916071825e-02 6.29638449618418e-04
2.19758064516129e+00 8.92501574708026e-02 6.28458876075375e-04
2.23790322580645e+00 8.82617911763963e-02 6.27175869381532e-04
2.27822580645161e+00 8.72843701619510e-02 6.25793837710246e-04
2.31854838709677e+00 8.63177732181858e-02 6.24317007631949e-04
2.35887096774194e+00 8.53618804781059e-02 6.22749431728192e-04
2.39919354838710e+00 8.44165734021383e-02 6.21094998394138e-04
2.43951612903226e+00 8.34817347634316e-02 6.19357440291411e-04
2.47983870967742e+00 8.25572486333182e-02 6.17540342229457e-04
2.52016129032258e+00 8.16430003669388e-02 6.15647148524699e-04
2.56048387096774e+00 8.07388765890194e-02 6.13681169877130e-04
2.60080645161290e+00 7.98447651798230e-02 6.11645589808134e-04
2.64112903225806e+00 7.89605552612399e-02 6.09543470694832e-04
2.68145161290323e+00 7.80861371830376e-02 6.07377759428123e-04
2.72177419354839e+00 7.72214025092634e-02 6.05151292727418e-04
2.76209677419355e+00 7.63662440047967e-02 6.02866802137085e-04
2.80241935483871e+00 7.55205556220515e-02 6.00526919243065e-04
2.84274193548387e+00 7.46842324849000e-02 5.98134178543584e-04
2.88306451612903e+00 7.38571708845518e-02 5.95691022675369e-04
2.92338709677419e+00 7.30392682576952e-02 5.93199807419786e-04
2.96370967741935e+00 7.22304231768165e-02 5.90662803816419e-04
3.00403225806452e+00 7.14305353376224e-02 5.88082202227212e-04
3.04435483870968e+00 7.06395055466009e-02 5.85460115668942e-04
3.08467741935484e+00 6.98572357087206e-02 5.82798582969519e-04
3.12500000000000e+00 6.90836288152660e-02 5.80099571760011e-04
3.16532258064516e+00 6.83185889318057e-02 5.77364981312366e-04
3.20564516129032e+00 6.75620211862978e-02 5.74596645233016e-04
3.24596774193548e+00 6.68138317573257e-02 5.71796334023061e-04
3.28629032258065e+00 6.60739278624623e-02 5.68965757511825e-04
3.32661290322581e+00 6.53422177467636e-02 5.66106567171569e-04
3.36693548387097e+00 6.46186106713905e-02 5.63220358321360e-04
3.40725806451613e+00 6.39030169023564e-02 5.60308672226437e-04
3.44758064516129e+00 6.31953476993991e-02 5.57372998487560e-04
3.48790322580645e+00 6.24955153029854e-02 5.54414775774067e-04
3.52822580645161e+00 6.18034329294699e-02 5.51435394435844e-04
3.56854838709677e+00 6.11190147542204e-02 5.48436199045606e-04
3.60887096774194e+00 6.04421759030363e-02 5.45418488846823e-04
3.64919354838710e+00 5.97728324416239e-02 5.42383519751448e-04
3.68951612903226e+00 5.91109013651873e-02 5.39332505859817e-04
3.72983870967742e+00 5.84563005881355e-02 5.36266620915148e-04
3.77016129032258e+00 5.78089489339028e-02 5.33186999696632e-04
3.81048387096774e+00 5.71687661248803e-02 5.30094739352885e-04
3.85080645161290e+00 5.65356727724645e-02 5.26990900680688e-04
3.89112903225806e+00 5.59095903672102e-02 5.23876509351841e-04
3.93145161290323e+00 5.52904412690951e-02 5.20752557088996e-04
3.97177419354839e+00 5.46781486978912e-02 5.17620002794543e-04
4.01209677419355e+00 5.40726367236437e-02 5.14479773634539e-04
4.05241935483871e+00 5.34738302572547e-02 5.11332766383045e-04
4.09274193548387e+00 5.28816550397361e-02 5.08179847504402e-04
4.13306451612903e+00 5.22960376373546e-02 5.05021854731826e-04
4.17338709677419e+00 5.17169054281227e-02 5.01859598619503e-04
4.21370967741935e+00 5.11441865942774e-02 4.98693862484504e-04
4.25403225806452e+00 5.05778101133737e-02 4.95525403582234e-04
4.29435483870968e+00 5.00177057494773e-02 4.92354953931000e-04
4.33467741935484e+00 4.94638040444548e-02 4.89183221106121e-04
4.37500000000000e+00 4.89160363093599e-02 4.86010889005145e-04
4.41532258064516e+00 4.83743346159153e-02 4.82838618585086e-04
4.45564516129032e+00 4.78386317880891e-02 4.79667048573060e-04
4.49596774193548e+00 4.73088613937648e-02 4.76496796152055e-04
4.53629032258065e+00 4.67849577365032e-02 4.73328457622373e-04
4.57661290322581e+00 4.62668558473946e-02 4.70162609039650e-04
4.61693548387097e+00 4.57544914770026e-02 4.66999806830809e-04
4.65725806451613e+00 4.52478010873963e-02 4.63840588388789e-04
4.69758064516129e+00 4.47467218442712e-02 4.60685472882553e-04
4.73790322580645e+00 4.42511916081204e-02 4.57534961098560e-04
4.77822580645161e+00 4.37611489296711e-02 4.54389536455897e-04
4.81854838709677e+00 4.32765330390886e-02 4.51249666011871e-04
4.85887096774194e+00 4.27972838395105e-02 4.48115800226729e-04
4.89919354838710e+00 4.23233418995937e-02 4.44988373695907e-04
4.93951612903226e+00 4.18546484461448e-02 4.41867805618657e-04
4.97983870967742e+00 4.13911453568311e-02 4.38754500251437e-04
5.02016129032258e+00 4.09327751529737e-02 4.35648847346840e-04
5.06048387096774e+00 4.04794809924180e-02 4.32551222577976e-04
5.10080645161290e+00 4.00312066624868e-02 4.29461987949592e-04
5.14112903225806e+00 3.95878965730088e-02 4.26381492196576e-04
5.18145161290323e+00 3.91494957494240e-02 4.23310071169383e-04
5.22177419354839e+00 3.87159498259673e-02 4.20248048207575e-04
5.26209677419355e+00 3.82872050389263e-02 4.17195734501749e-04
5.30241935483871e+00 3.78632082199739e-02 4.14153429632104e-04
5.34274193548387e+00 3.74439067887974e-02 4.11121421339965e-04
5.38306451612903e+00 3.70292487489349e-02 4.08099986238863e-04
5.42338709677419e+00 3.66191826789462e-02 4.05089390522616e-04
5.46370967741935e+00 3.62136577268381e-02 4.02089889688576e-04
5.50403225806452e+00 3.58126236037580e-02 3.99101729035564e-04
5.54435483870968e+00 3.54160305777577e-02 3.96125143955575e-04
5.58467741935484e+00 3.50238294676265e-02 3.93160360216681e-04
5.62500000000000e+00 3.46359716367919e-02 3.90207594237721e-04
5.66532258064516e+00 3.42524089872881e-02 3.87267053354754e-04
5.70564516129032e+00 3.38730939537916e-02 3.84338936079609e-04
5.74596774193548e+00 3.34979794977230e-02 3.81423432351217e-04
5.78629032258065e+00 3.31270191014134e-02 3.78520723779532e-04
5.82661290322581e+00 3.27601667623360e-02 3.75630983882334e-04
5.86693548387097e+00 3.23973769874011e-02 3.72754378315216e-04
5.90725806451613e+00 3.20386047873147e-02 3.69891065095049e-04
5.94758064516129e+00 3.16838056709991e-02 3.67041194965446e-04
5.98790322580645e+00 3.13329356394960e-02 3.64204911158643e-04
6.02822580645161e+00 3.09859511822674e-02 3.61382349901681e-04
6.06854838709677e+00 3.06428092700250e-02 3.58573640922466e-04
6.10887096774194e+00 3.03034673499915e-02 3.55778907180126e-04
6.14919354838710e+00 2.99678833406240e-02 3.52998265208947e-04
6.18951612903226e+00 2.96360156263956e-02 3.50231825301366e-04
6.22983870967742e+00 2.93078230526342e-02 3.47479691685831e-04
6.27016129032258e+00 2.89832649204192e-02 3.44741962699812e-04
6.31048387096774e+00 2.86623009815342e-02 3.42018730957881e-04
6.35080645161290e+00 2.83448914334767e-02 3.39310083515265e-04
6.39112903225806e+00 2.80309969145211e-02 3.36616102027111e-04
6.43145161290323e+00 2.77205784988386e-02 3.33936862903193e-04
6.47177419354839e+00 2.74135976916689e-02 3.31272437458452e-04
6.51209677419355e+00 2.71100164245476e-02 3.28622892059472e-04
6.55241935483871e+00 2.68097970505842e-02 3.25988288386697e-04
6.59274193548387e+00 2.65129023393486e-02 3.23368683210962e-04
6.63306451612903e+00 2.62192954736043e-02 3.20764128771322e-04
6.67338709677419e+00 2.59289400433792e-02 3.18174673153932e-04
6.71370967741935e+00 2.56418000419093e-02 3.15600360046273e-04
6.75403225806452e+00 2.53578398611734e-02 3.13041228987213e-04
6.79435483870968e+00 2.50770242874778e-02 3.10497315488090e-04
6.83467741935484e+00 2.47993184970892e-02 3.07968651150629e-04
6.87500000000000e+00 2.45246880519162e-02 3.05455263781741e-04
6.91532258064516e+00 2.42530988952386e-02 3.02957177505204e-04
6.95564516129032e+00 2.39845173474843e-02 3.00474412870406e-04
6.99596774193548e+00 2.37189101020526e-02 2.98006986958366e-04
7.03629032258065e+00 2.34562442211839e-02 2.95554913484925e-04
7.07661290322581e+00 2.31964871318752e-02 2.93118202901122e-04
7.11693548387097e+00 2.29396066218403e-02 2.90696862491031e-04
7.15725806451613e+00 2.26855708355160e-02 2.88290896467032e-04
7.19758064516129e+00 2.24343482701107e-02 2.85900306158129e-04
7.23790322580645e+00 2.21859077713589e-02 2.83525089811285e-04
7.27822580645161e+00 2.19402185306861e-02 2.81165242873244e-04
7.31854838709677e+00 2.16972500803497e-02 2.78820758273873e-04
7.35887096774194e+00 2.14569722900106e-02 2.76491626211526e-04
7.39919354838710e+00 2.12193553629963e-02 2.74177834334634e-04
7.43951612903226e+00 2.09843698326060e-02 2.71879367820977e-04
7.47983870967742e+00 2.07519865584565e-02 2.69596209454874e-04
7.52016129032258e+00 2.05221767228686e-02 2.67328339702418e-04
7.56048387096774e+00 2.02949118272931e-02 2.65075736784699e-04
7.60080645161290e+00 2.00701636887772e-02 2.62838376749186e-04
7.64112903225806e+00 1.98479044364692e-02 2.60616233539349e-04
7.68145161290323e+00 1.96281065081625e-02 2.58409279062397e-04
7.72177419354839e+00 1.94107426468773e-02 2.56217483255293e-04
7.76209677419355e+00 1.91957858974809e-02 2.54040814149104e-04
7.80241935483871e+00 1.89832096033446e-02 2.51879238009325e-04
7.84274193548387e+00 1.87729874027730e-02 2.49732719161976e-04
7.88306451612903e+00 1.85650932265382e-02 2.47601220210681e-04
7.92338709677419e+00 1.83595012938360e-02 2.45484702255275e-04
7.96370967741935e+00 1.81561861093617e-02 2.43383124705929e-04
8.00403225806452e+00 1.79551224601486e-02 2.41296445419699e-04
8.04435483870968e+00 1.77562854124411e-02 2.39224620754180e-04
8.08467741935484e+00 1.75596503086030e-02 2.37167605619736e-04
8.12500000000000e+00 1.73651927640593e-02 2.35125353530465e-04
8.16532258064516e+00 1.71728886642729e-02 2.33097816653839e-04
8.20564516129032e+00 1.69827141617534e-02 2.31084945858976e-04
8.24596774193548e+00 1.67946456731004e-02 2.29086690763800e-04
8.28629032258064e+00 1.66086598760789e-02 2.27102999780997e-04
8.32661290322581e+00 1.64247337067267e-02 2.25133820162692e-04
8.36693548387097e+00 1.62428443564948e-02 2.23179098044049e-04
8.40725806451613e+00 1.60629692694185e-02 2.21238778485736e-04
8.44758064516129e+00 1.58850861393204e-02 2.19312805577751e-04
8.48790322580645e+00 1.57091729068391e-02 2.17401122290809e-04
8.52822580645161e+00 1.55352077573147e-02 2.15503670642265e-04
8.56854838709677e+00 1.53631691174568e-02 2.13620391863530e-04
8.60887096774194e+00 1.51930356528800e-02 2.11751226242519e-04
8.64919354838710e+00 1.50247862654582e-02 2.09896113225483e-04
8.68951612903226e+00 1.48584000907086e-02 2.08054991452355e-04
8.72983870967742e+00 1.46938564952038e-02 2.06227798791236e-04
8.77016129032258e+00 1.45311350740135e-02 2.04414472371973e-04
8.81048387096774e+00 1.43702156481737e-02 2.02614948618823e-04
8.85080645161290e+00 1.42110782621846e-02 2.00829163282305e-04
8.89112903225806e+00 1.40537031815359e-02 1.99057051470265e-04
8.93145161290323e+00 1.38980708902595e-02 1.97298547678087e-04
8.97177419354839e+00 1.37441620885094e-02 1.95553585818116e-04
9.01209677419355e+00 1.35919576901681e-02 1.93822099248291e-04
9.05241935483871e+00 1.34414388204802e-02 1.92104020851148e-04
9.09274193548387e+00 1.32925868135492e-02 1.90399282906520e-04
9.13306451612903e+00 1.31453832105136e-02 1.88707817221539e-04
9.17338709677419e+00 1.29998097567627e-02 1.87029555262019e-04
9.21370967741935e+00 1.28558483998393e-02 1.85364428018241e-04
9.25403225806452e+00 1.27134812872016e-02 1.83712366082921e-04
9.29435483870968e+00 1.25726907640083e-02 1.82073299674985e-04
9.33467741935484e+00 1.24334593709302e-02 1.80447158662722e-04
9.37500000000000e+00 1.22957698419846e-02 1.78833872586300e-04
9.41532258064516e+00 1.21596051023941e-02 1.77233370679698e-04
9.45564516129032e+00 1.20249482664695e-02 1.75645581892014e-04
9.49596774193548e+00 1.18917826355154e-02 1.74070434908244e-04
9.53629032258064e+00 1.17600916957599e-02 1.72507858169508e-04
9.57661290322581e+00 1.16298591163064e-02 1.70957779892674e-04
9.61693548387097e+00 1.15010687471084e-02 1.69420128089498e-04
9.65725806451613e+00 1.13737046169669e-02 1.67894830585224e-04
9.69758064516129e+00 1.12477509315498e-02 1.66381815077958e-04
9.73790322580645e+00 1.11231920713067e-02 1.64881009031387e-04
9.77822580645161e+00 1.10000125899147e-02 1.63392339775590e-04
9.81854838709677e+00 1.08781972119770e-02 1.61915734609065e-04
9.85887096774194e+00 1.07577308312580e-02 1.60451120686135e-04
9.89919354838710e+00 1.06385985088105e-02 1.58998425075962e-04
9.93951612903226e+00 1.05207854711226e-02 1.57557574777828e-04
9.97983870967742e+00 1.04042771082862e-02 1.56128496735999e-04
1.00201612903226e+01 1.02890589721848e-02 1.54711117928729e-04
1.00604838709677e+01 1.01751167744774e-02 1.53305365230394e-04
1.01008064516129e+01 1.00624363852850e-02 1.51911165064085e-04
1.01411290322581e+01 9.95100383229209e-03 1.50528444665100e-04
1.01814516129032e+01 9.84080529572363e-03 1.49157131281709e-04
1.02217741935484e+01 9.73182710994908e-03 1.47797151438764e-04
1.02620967741935e+01 9.62405576067153e-03 1.46448432077748e-04
1.03024193548387e+01 9.51747788325357e-03 1.45110899850185e-04
1.03427419354839e+01 9.41208026206778e-03 1.43784482154955e-04
1.03830645161290e+01 9.30784982580716e-03 1.42469106462898e-04
1.04233870967742e+01 9.20477364894025e-03 1.41164699626222e-04
1.04637096774194e+01 9.10283894907354e-03 1.39871188945256e-04
1.05040322580645e+01 9.00203308536742e-03 1.38588501505740e-04
1.05443548387097e+01 8.90234355790398e-03 1.37316565149323e-04
1.05846774193548e+01 8.80375800330706e-03 1.36055307840337e-04
1.06250000000000e+01 8.70626419606222e-03 1.34804657018031e-04
1.06653225806452e+01 8.60985004604114e-03 1.33564540595002e-04
1.07056451612903e+01 8.51450359700282e-03 1.32334886633057e-04
1.07459677419355e+01 8.42021302511140e-03 1.31115623057949e-04
1.07862903225806e+01 8.32696663832544e-03 1.29906678556437e-04
1.08266129032258e+01 8.23475287235856e-03 1.28707981989147e-04
1.08669354838710e+01 8.14356029185611e-03 1.27519461790010e-04
1.09072580645161e+01 8.05337758809945e-03 1.26341046889267e-04
1.09475806451613e+01 7.96419357760447e-03 1.25172666137616e-04
1.09879032258065e+01 7.87599720152871e-03 1.24014249146121e-04
1.10282258064516e+01 7.78877752189641e-03 1.22865725735307e-04
1.10685483870968e+01 7.70252372266554e-03 1.21727025371924e-04
1.11088709677419e+01 7.61722510757152e-03 1.20598078032947e-04
1.11491935483871e+01 7.53287109880199e-03 1.19478813665232e-04
1.11895161290323e+01 7.44945123642227e-03 1.18369162972065e-04
1.12298387096774e+01 7.36695517484625e-03 1.17269056896176e-04
1.12701612903226e+01 7.28537268380399e-03 1.16178426091427e-04
1.13104838709677e+01 7.20469364631587e-03 1.15097201731742e-04
1.13508064516129e+01 7.12490805743952e-03 1.14025315004019e-04
1.13911290322581e+01 7.04600602371374e-03 1.12962697844835e-04
1.14314516129032e+01 6.96797775985842e-03 1.11909282455266e-04
1.14717741935484e+01 6.89081358965150e-03 1.10865000805105e-04
1.15120967741935e+01 6.81450394402582e-03 1.09829785390576e-04
1.15524193548387e+01 6.73903935988358e-03 1.08803568758387e-04
1.15927419354839e+01 6.66441047955925e-03 1.07786284195658e-04
1.16330645161290e+01 6.59060804773272e-03 1.06777865274716e-04
1.16733870967742e+01 6.51762291222383e-03 1.05778245387720e-04
1.17137096774194e+01 6.44544602220425e-03 1.04787358456531e-04
1.17540322580645e+01 6.37406842707563e-03 1.03805138485927e-04
1.17943548387097e+01 6.30348127595172e-03 1.02831520209852e-04
1.18346774193548e+01 6.23367581476992e-03 1.01866438664263e-04
1.18750000000000e+01 6.16464338701111e-03 1.00909828750252e-04
1.19153225806452e+01 6.09637543201910e-03 9.99616258991779e-05
1.19556451612903e+01 6.02886348393930e-03 9.90217658526106e-05
1.19959677419355e+01 5.96209917066915e-03 9.80901844680451e-05
1.20362903225806e+01 5.89607421336265e-03 9.71668183170011e-05
1.20766129032258e+01 5.83078042376128e-03 9.62516042886125e-05
1.21169354838710e+01 5.76620970483439e-03 9.53444791842317e-05
1.21572580645161e+01 5.70235404921853e-03 9.44453803330996e-05
1.21975806451613e+01 5.63920553822496e-03 9.35542452034285e-05
1.22379032258065e+01 5.57675634136239e-03 9.26710119630025e-05
1.22782258064516e+01 5.51499871383835e-03 9.17956191069242e-05
1.23185483870968e+01 5.45392499713883e-03 9.09280050770924e-05
1.23588709677419e+01 5.39352761756071e-03 9.00681088391433e-05
1.23991935483871e+01 5.33379908527323e-03 8.92158695172241e-05
1.24395161290323e+01 5.27473199385866e-03 8.83712269195131e-05
1.24798387096774e+01 5.21631901797275e-03 8.75341211886224e-05
1.25201612903226e+01 5.15855291386907e-03 8.67044924443672e-05
1.25604838709677e+01 5.10142651801877e-03 8.58822813245001e-05
1.26008064516129e+01 5.04493274622313e-03 8.50674286416991e-05
1.26411290322581e+01 4.98906459317181e-03 8.42598758762628e-05
1.26814516129032e+01 4.93381513025171e-03 8.34595648477859e-05
1.27217741935484e+01 4.87917750602106e-03 8.26664373796565e-05
