Energy (eV)          EEDF (eV^-(3/2))     First Anisotropy
2.13947368421053e-03 9.79411452542673e+00 7.92052761007763e-03
6.41842105263158e-03 9.61762706903572e+00 1.30049218228432e-02
1.06973684210526e-02 9.44431987178504e+00 1.69727260403425e-02
1.49763157894737e-02 9.27413562635568e+00 1.98708762507556e-02
1.92552631578947e-02 9.10701805747638e+00 2.21936521602013e-02
2.35342105263158e-02 8.94291190527340e+00 2.41311927089190e-02
2.78131578947368e-02 8.78176290405804e+00 2.57835146825252e-02
3.20921052631579e-02 8.62351776675496e+00 2.72119727065045e-02
3.63710526315789e-02 8.46812416691954e+00 2.84578833655627e-02
4.06500000000000e-02 8.31553072016464e+00 2.95508831380588e-02
4.49289473684211e-02 8.16568696846176e+00 3.05132262445135e-02
4.92078947368421e-02 8.01854336302065e+00 3.13622149208509e-02
5.34868421052632e-02 7.87405124816843e+00 3.21116739430893e-02
5.77657894736842e-02 7.73216284445427e+00 3.27728954308983e-02
6.20447368421053e-02 7.59283123367293e+00 3.33552712627937e-02
6.63236842105263e-02 7.45601034326972e+00 3.38667319315942e-02
7.06026315789474e-02 7.32165493050595e+00 3.43140601839792e-02
7.48815789473684e-02 7.18972056810530e+00 3.47031210015636e-02
7.91605263157895e-02 7.06016362951390e+00 3.50390340586615e-02
8.34394736842105e-02 6.93294127400685e+00 3.53263053971748e-02
8.77184210526316e-02 6.80801143299263e+00 3.55689297151521e-02
9.19973684210526e-02 6.68533279606968e+00 3.57704710923725e-02
9.62763157894737e-02 6.56486479698981e+00 3.59341274263628e-02
1.00555263157895e-01 6.44656760062305e+00 3.60627825458951e-02
1.04834210526316e-01 6.33040208955662e+00 3.61590487921416e-02
1.09113157894737e-01 6.21632985185154e+00 3.62253023061128e-02
1.13392105263158e-01 6.10431316632115e+00 3.62637121364439e-02
1.17671052631579e-01 5.99431499335435e+00 3.62762648833728e-02
1.21950000000000e-01 5.88629895981784e+00 3.62647857222109e-02
1.26228947368421e-01 5.78022934728334e+00 3.62309557540216e-02
1.30507894736842e-01 5.67607108250902e+00 3.61763273880586e-02
1.34786842105263e-01 5.57378972345535e+00 3.61023376093313e-02
1.39065789473684e-01 5.47335144809588e+00 3.60103190148253e-02
1.43344736842105e-01 5.37472304518433e+00 3.59015099359740e-02
1.47623684210526e-01 5.27787190066463e+00 3.57770630786080e-02
1.51902631578947e-01 5.18276598939571e+00 3.56380531008185e-02
1.56181578947368e-01 5.08937386269157e+00 3.54854835596504e-02
1.60460526315789e-01 4.99766463806146e+00 3.53202926193040e-02
1.64739473684211e-01 4.90760799055960e+00 3.51433585284956e-02
1.69018421052632e-01 4.81917414114266e+00 3.49555045151238e-02
1.73297368421053e-01 4.73233384694333e+00 3.47575028082939e-02
1.77576315789474e-01 4.64705839295467e+00 3.45500786137400e-02
1.81855263157895e-01 4.56331958113610e+00 3.43339136996460e-02
1.86134210526316e-01 4.48108972118440e+00 3.41096493074499e-02
1.90413157894737e-01 4.40034162256647e+00 3.38778891503192e-02
1.94692105263158e-01 4.32104858394386e+00 3.36392019773370e-02
1.98971052631579e-01 4.24318438587576e+00 3.33941238939760e-02
2.03250000000000e-01 4.16672328100429e+00 3.31431606609678e-02
2.07528947368421e-01 4.09163998561579e+00 3.28867894725319e-02
2.11807894736842e-01 4.01790967226052e+00 3.26254608729388e-02
2.16086842105263e-01 3.94550796053411e+00 3.23596005176856e-02
2.20365789473684e-01 3.87441090907962e+00 3.20896105294166e-02
2.24644736842105e-01 3.80459500854004e+00 3.18158710361341e-02
2.28923684210526e-01 3.73603717262555e+00 3.15387414619367e-02
2.33202631578947e-01 3.66871473160305e+00 3.12585617085054e-02
2.37481578947368e-01 3.60260542396140e+00 3.09756533941339e-02
2.41760526315790e-01 3.53768738909984e+00 3.06903207415028e-02
2.46039473684211e-01 3.47393916082825e+00 3.04028516326972e-02
2.50318421052632e-01 3.41133965952067e+00 3.01135185907685e-02
2.54597368421053e-01 3.34986818518983e+00 2.98225794799375e-02
2.58876315789474e-01 3.28950441129310e+00 2.95302783702601e-02
2.63155263157895e-01 3.23022837734335e+00 2.92368463449100e-02
2.67434210526316e-01 3.17202048234614e+00 2.89425020577033e-02
2.71713157894737e-01 3.11486147890335e+00 2.86474524689989e-02
2.75992105263158e-01 3.05873246606976e+00 2.83518934380297e-02
2.80271052631579e-01 3.00361488385985e+00 2.80560102689013e-02
2.84550000000000e-01 2.94949050654504e+00 2.77599783304330e-02
2.88828947368421e-01 2.89634143665825e+00 2.74639634426187e-02
2.93107894736842e-01 2.84415009957281e+00 2.71681224122647e-02
2.97386842105263e-01 2.79289923718196e+00 2.68726035367882e-02
3.01665789473684e-01 2.74257190221969e+00 2.65775469176248e-02
3.05944736842105e-01 2.69315145310559e+00 2.62830849306112e-02
3.10223684210526e-01 2.64462154784408e+00 2.59893425899950e-02
3.14502631578947e-01 2.59696613920226e+00 2.56964378842304e-02
3.18781578947368e-01 2.55016946896922e+00 2.54044821809823e-02
3.23060526315790e-01 2.50421606276767e+00 2.51135804493528e-02
3.27339473684211e-01 2.45909072532193e+00 2.48238316111344e-02
3.31618421052632e-01 2.41477853503958e+00 2.45353288729006e-02
3.35897368421053e-01 2.37126483909814e+00 2.42481599081075e-02
3.40176315789474e-01 2.32853524894842e+00 2.39624071602141e-02
3.44455263157895e-01 2.28657563520011e+00 2.36781481296844e-02
3.48734210526316e-01 2.24537212296744e+00 2.33954555235495e-02
3.53013157894737e-01 2.20491108759853e+00 2.31143975303881e-02
3.57292105263158e-01 2.16517914974777e+00 2.28350380206177e-02
3.61571052631579e-01 2.12616317136305e+00 2.25574367307000e-02
3.65850000000000e-01 2.08785025103397e+00 2.22816495049727e-02
3.70128947368421e-01 2.05022771974091e+00 2.20077284029153e-02
3.74407894736842e-01 2.01328313693992e+00 2.17357219088616e-02
3.78686842105263e-01 1.97700428616895e+00 2.14656751311971e-02
3.82965789473684e-01 1.94137917102200e+00 2.11976298905248e-02
3.87244736842105e-01 1.90639601143222e+00 2.09316249136122e-02
3.91523684210526e-01 1.87204323944372e+00 2.06676959677231e-02
3.95802631578947e-01 1.83830949571090e+00 2.04058759835661e-02
4.00081578947368e-01 1.80518362549985e+00 2.01461952277569e-02
4.04360526315790e-01 1.77265467501123e+00 1.98886813656115e-02
4.08639473684211e-01 1.74071188797541e+00 1.96333596101876e-02
4.12918421052632e-01 1.70934470187397e+00 1.93802528641704e-02
4.17197368421053e-01 1.67854274445764e+00 1.91293817710911e-02
4.21476315789474e-01 1.64829583051508e+00 1.88807648470981e-02
4.25755263157895e-01 1.61859395830227e+00 1.86344186064765e-02
4.30034210526316e-01 1.58942730624459e+00 1.83903576032007e-02
4.34313157894737e-01 1.56078622987121e+00 1.81485945554448e-02
4.38592105263158e-01 1.53266125838366e+00 1.79091404256108e-02
4.42871052631579e-01 1.50504309176049e+00 1.76720044928601e-02
4.47150000000000e-01 1.47792259750537e+00 1.74371944650782e-02
4.51428947368421e-01 1.45129080763534e+00 1.72047165072926e-02
4.55707894736842e-01 1.42513891587428e+00 1.69745753377759e-02
4.59986842105263e-01 1.39945827457890e+00 1.67467743197084e-02
4.64265789473684e-01 1.37424039188655e+00 1.65213154835844e-02
4.68544736842105e-01 1.34947692905318e+00 1.62981996193107e-02
4.72823684210526e-01 1.32515969750172e+00 1.60774263318250e-02
4.77102631578947e-01 1.30128065630391e+00 1.58589940910027e-02
4.81381578947368e-01 1.27783190937982e+00 1.56429003149854e-02
4.85660526315790e-01 1.25480570289307e+00 1.54291413843214e-02
4.89939473684211e-01 1.23219442281474e+00 1.52177127129741e-02
4.94218421052632e-01 1.20999059227532e+00 1.50086088161064e-02
4.98497368421053e-01 1.18818686909819e+00 1.48018233204551e-02
5.02776315789474e-01 1.16677604348935e+00 1.45973490278510e-02
5.07055263157895e-01 1.14575103553353e+00 1.43951779758610e-02
5.11334210526316e-01 1.12510489285831e+00 1.41953014449981e-02
5.15613157894737e-01 1.10483078844348e+00 1.39977100206328e-02
5.19892105263158e-01 1.08492201821945e+00 1.38023936269727e-02
5.24171052631579e-01 1.06537199899118e+00 1.36093415570021e-02
5.28450000000000e-01 1.04617426615606e+00 1.34185425288616e-02
5.32728947368421e-01 1.02732247157085e+00 1.32299846886543e-02
5.37007894736842e-01 1.00881038154776e+00 1.30436556579571e-02
5.41286842105263e-01 9.90631874696144e-01 1.28595425791890e-02
5.45565789473684e-01 9.72780939902548e-01 1.26776321164549e-02
5.49844736842105e-01 9.55251674430831e-01 1.24979105024243e-02
5.54123684210526e-01 9.38038281853401e-01 1.23203635620050e-02
5.58402631578947e-01 9.21135070248734e-01 1.21449767328226e-02
5.62681578947368e-01 9.04536450233882e-01 1.19717351080668e-02
5.66960526315790e-01 8.88236933119816e-01 1.18006234345914e-02
5.71239473684211e-01 8.72231129173927e-01 1.16316261486511e-02
5.75518421052632e-01 8.56513745758947e-01 1.14647274100250e-02
5.79797368421053e-01 8.41079585586205e-01 1.12999110989285e-02
5.84076315789474e-01 8.25923545068544e-01 1.11371608481409e-02
5.88355263157895e-01 8.11040612559921e-01 1.09764600736776e-02
5.92634210526316e-01 7.96425866701210e-01 1.08177919707244e-02
5.96913157894737e-01 7.82074474859034e-01 1.06611395458430e-02
6.01192105263158e-01 7.67981691439734e-01 1.05064856311641e-02
6.05471052631579e-01 7.54142856406166e-01 1.03538128962326e-02
6.09750000000000e-01 7.40553393672470e-01 1.02031038775600e-02
6.14028947368421e-01 7.27208809593562e-01 1.00543409731954e-02
6.18307894736842e-01 7.14104691537670e-01 9.90750646699123e-03
6.22586842105263e-01 7.01236706367724e-01 9.76258255175769e-03
6.26865789473684e-01 6.88600599010970e-01 9.61955132329003e-03
6.31144736842105e-01 6.76192191106053e-01 9.47839480499743e-03
6.35423684210526e-01 6.64007379549357e-01 9.33909495745976e-03
6.39702631578947e-01 6.52042135208619e-01 9.20163368608677e-03
6.43981578947369e-01 6.40292501538023e-01 9.06599286377053e-03
6.48260526315790e-01 6.28754593272010e-01 8.93215432416346e-03
6.52539473684211e-01 6.17424595188456e-01 8.80009988001765e-03
6.56818421052632e-01 6.06298760798341e-01 8.66981134067093e-03
6.61097368421053e-01 5.95373411108902e-01 8.54127050506415e-03
6.65376315789474e-01 5.84644933451476e-01 8.41445917823762e-03
6.69655263157895e-01 5.74109780241753e-01 8.28935918705101e-03
6.73934210526316e-01 5.63764467808497e-01 8.16595237301711e-03
6.78213157894737e-01 5.53605575282782e-01 8.04422060933842e-03
6.82492105263158e-01 5.43629743412039e-01 7.92414580614392e-03
6.86771052631579e-01 5.33833673502811e-01 7.80570991430003e-03
6.91050000000000e-01 5.24214126289941e-01 7.68889494111985e-03
6.95328947368421e-01 5.14767920867048e-01 7.57368294295943e-03
6.99607894736842e-01 5.05491933671215e-01 7.46005603765990e-03
7.03886842105263e-01 4.96383097412978e-01 7.34799641638708e-03
7.08165789473684e-01 4.87438400063545e-01 7.23748633620122e-03
7.12444736842105e-01 4.78654883892708e-01 7.12850813309568e-03
7.16723684210526e-01 4.70029644445706e-01 7.02104422511393e-03
7.21002631578948e-01 4.61559829626921e-01 6.91507711430095e-03
7.25281578947369e-01 4.53242638723816e-01 6.81058939874408e-03
7.29560526315790e-01 4.45075321482114e-01 6.70756376513068e-03
7.33839473684211e-01 4.37055177226487e-01 6.60598299809645e-03
7.38118421052632e-01 4.29179553936902e-01 6.50582998910475e-03
7.42397368421053e-01 4.21445847372895e-01 6.40708772907827e-03
7.46676315789474e-01 4.13851500240391e-01 6.30973931677748e-03
7.50955263157895e-01 4.06394001317650e-01 6.21376796675137e-03
7.55234210526316e-01 3.99070884625984e-01 6.11915700206863e-03
7.59513157894737e-01 3.91879728640337e-01 6.02588986329341e-03
7.63792105263158e-01 3.84818155453973e-01 5.93395010964763e-03
7.68071052631579e-01 3.77883830026008e-01 5.84332141928580e-03
7.72350000000000e-01 3.71074459383992e-01 5.75398759759742e-03
7.76628947368421e-01 3.64387791866676e-01 5.66593257010597e-03
7.80907894736842e-01 3.57821616402589e-01 5.57914038870720e-03
7.85186842105263e-01 3.51373761755384e-01 5.49359523757303e-03
7.89465789473684e-01 3.45042095806790e-01 5.40928142620080e-03
7.93744736842105e-01 3.38824524873101e-01 5.32618339623043e-03
7.98023684210526e-01 3.32718992984229e-01 5.24428572166885e-03
8.02302631578947e-01 3.26723481231869e-01 5.16357310838279e-03
8.06581578947368e-01 3.20836007080974e-01 5.08403040041044e-03
8.10860526315790e-01 3.15054623714990e-01 5.00564257325163e-03
8.15139473684211e-01 3.09377419411273e-01 4.92839473846620e-03
8.19418421052632e-01 3.03802516889455e-01 4.85227214801088e-03
8.23697368421053e-01 2.98328072691441e-01 4.77726018770802e-03
8.27976315789474e-01 2.92952276589665e-01 4.70334438132914e-03
8.32255263157895e-01 2.87673350970375e-01 4.63051039443906e-03
8.36534210526316e-01 2.82489550246521e-01 4.55874402804871e-03
8.40813157894737e-01 2.77399160297153e-01 4.48803122322533e-03
8.45092105263158e-01 2.72400497878513e-01 4.41835806048864e-03
8.49371052631579e-01 2.67491910089068e-01 4.34971075864560e-03
8.53650000000000e-01 2.62671773806776e-01 4.28207567906224e-03
8.57928947368421e-01 2.57938495152986e-01 4.21543931960413e-03
8.62207894736842e-01 2.53290508980205e-01 4.14978831758563e-03
8.66486842105263e-01 2.48726278339494e-01 4.08510945253125e-03
8.70765789473684e-01 2.44244293972819e-01 4.02138964030841e-03
8.75044736842105e-01 2.39843073827785e-01 3.95861593656421e-03
8.79323684210526e-01 2.35521162549204e-01 3.89677553575117e-03
8.83602631578947e-01 2.31277131015829e-01 3.83585576968771e-03
8.87881578947369e-01 2.27109575854349e-01 3.77584411074399e-03
8.92160526315790e-01 2.23017118975841e-01 3.71672816627423e-03
8.96439473684211e-01 2.18998407132406e-01 3.65849568069953e-03
9.00718421052632e-01 2.15052111457165e-01 3.60113453744382e-03
9.04997368421053e-01 2.11176927025314e-01 3.54463275355828e-03
9.09276315789474e-01 2.07371572434117e-01 3.48897848153338e-03
9.13555263157895e-01 2.03634789367512e-01 3.43416001097590e-03
9.17834210526316e-01 1.99965342180456e-01 3.38016576342347e-03
9.22113157894737e-01 1.96362017501051e-01 3.32698429458310e-03
9.26392105263158e-01 1.92823623815067e-01 3.27460429306908e-03
9.30671052631579e-01 1.89348991085898e-01 3.22301457878135e-03
9.34950000000000e-01 1.85936970357233e-01 3.17220410498043e-03
9.39228947368421e-01 1.82586433373519e-01 3.12216195339667e-03
9.43507894736842e-01 1.79296272216465e-01 3.07287733544871e-03
9.47786842105263e-01 1.76065398928948e-01 3.02433959335669e-03
9.52065789473684e-01 1.72892745155629e-01 2.97653819543424e-03
9.56344736842105e-01 1.69777261798609e-01 2.92946273769331e-03
9.60623684210526e-01 1.66717918658641e-01 2.88310294248188e-03
9.64902631578948e-01 1.63713704106108e-01 2.83744865682273e-03
9.69181578947369e-01 1.60763624737818e-01 2.79248985390047e-03
9.73460526315790e-01 1.57866705048822e-01 2.74821662863665e-03
9.77739473684211e-01 1.55021987117853e-01 2.70461919846068e-03
9.82018421052632e-01 1.52228530282440e-01 2.66168790399832e-03
9.86297368421053e-01 1.49485410828163e-01 2.61941320481940e-03
9.90576315789474e-01 1.46791721690673e-01 2.57778568006980e-03
9.94855263157895e-01 1.44146572148172e-01 2.53679602902820e-03
9.99134210526316e-01 1.41549087527154e-01 2.49643506515973e-03
1.00341315789474e+00 1.38998408929109e-01 2.45669372364920e-03
1.00769210526316e+00 1.36493692905622e-01 2.41756305479525e-03
1.01197105263158e+00 1.34034111223019e-01 2.37903421748117e-03
1.01625000000000e+00 1.31618850572171e-01 2.34109848328816e-03
1.02052894736842e+00 1.29247112320149e-01 2.30374724500426e-03
1.02480789473684e+00 1.26918112183631e-01 2.26697200684679e-03
1.02908684210526e+00 1.24631080032848e-01 2.23076437417958e-03
1.03336578947368e+00 1.22385259615574e-01 2.19511606235047e-03
1.03764473684211e+00 1.20179908325868e-01 2.16001890303758e-03
1.04192368421053e+00 1.18014296901351e-01 2.12546483513472e-03
1.04620263157895e+00 1.15887709239937e-01 2.09144589517381e-03
1.05048157894737e+00 1.13799442143529e-01 2.05795422539016e-03
1.05476052631579e+00 1.11748805102690e-01 2.02498207949378e-03
1.05903947368421e+00 1.09735120016011e-01 1.99252181417374e-03
1.06331842105263e+00 1.07757721018832e-01 1.96056587673051e-03
1.06759736842105e+00 1.05815954261306e-01 1.92910682629053e-03
1.07187631578947e+00 1.03909177643300e-01 1.89813732178662e-03
1.07615526315789e+00 1.02036760651567e-01 1.86765011352113e-03
1.08043421052632e+00 1.00198084134528e-01 1.83763805001885e-03
1.08471315789474e+00 9.83925401122905e-02 1.80809408289556e-03
1.08899210526316e+00 9.66195315308622e-02 1.77901125936854e-03
1.09327105263158e+00 9.48784721100220e-02 1.75038271439906e-03
1.09755000000000e+00 9.31687861341606e-02 1.72220167694850e-03
1.10182894736842e+00 9.14899082754032e-02 1.69446147440620e-03
1.10610789473684e+00 8.98412833657050e-02 1.66715552560940e-03
1.11038684210526e+00 8.82223662547489e-02 1.64027733352563e-03
1.11466578947368e+00 8.66326216156874e-02 1.61382049096467e-03
1.11894473684211e+00 8.50715237804738e-02 1.58777868460541e-03
1.12322368421053e+00 8.35385565285230e-02 1.56214568849108e-03
1.12750263157895e+00 8.20332129539946e-02 1.53691535721502e-03
1.13178157894737e+00 8.05549952853691e-02 1.51208163113574e-03
1.13606052631579e+00 7.91034147321504e-02 1.48763854003942e-03
1.14033947368421e+00 7.76779912888740e-02 1.46358019707858e-03
1.14461842105263e+00 7.62782536111730e-02 1.43990079007438e-03
1.14889736842105e+00 7.49037388587740e-02 1.41659459573053e-03
1.15317631578947e+00 7.35539925102998e-02 1.39365597118255e-03
1.15745526315789e+00 7.22285682455190e-02 1.37107934799532e-03
1.16173421052632e+00 7.09270277867652e-02 1.34885923659768e-03
1.16601315789474e+00 6.96489407637238e-02 1.32699022937209e-03
1.17029210526316e+00 6.83938845416619e-02 1.30546699531191e-03
1.17457105263158e+00 6.71614441114990e-02 1.28428427443181e-03
1.17885000000000e+00 6.59512119425071e-02 1.26343688181764e-03
1.18312894736842e+00 6.47627878564463e-02 1.24291971043623e-03
1.18740789473684e+00 6.35957788682379e-02 1.22272772615714e-03
1.19168684210526e+00 6.24497990833502e-02 1.20285596254801e-03
1.19596578947368e+00 6.13244695609721e-02 1.18329952457315e-03
1.20024473684211e+00 6.02194181968560e-02 1.16405359114859e-03
1.20452368421053e+00 5.91342795755226e-02 1.14511341050380e-03
1.20880263157895e+00 5.80686948744866e-02 1.12647429533553e-03
1.21308157894737e+00 5.70223117371567e-02 1.10813162618578e-03
1.21736052631579e+00 5.59947841637855e-02 1.09008085376498e-03
1.22163947368421e+00 5.49857723743637e-02 1.07231749463083e-03
1.22591842105263e+00 5.39949427192402e-02 1.05483712506711e-03
1.23019736842105e+00 5.30219675680437e-02 1.03763539063390e-03
1.23447631578947e+00 5.20665251800956e-02 1.02070800022161e-03
1.23875526315789e+00 5.11282996195317e-02 1.00405072178205e-03
1.24303421052632e+00 5.02069806435640e-02 9.87659385201996e-04
1.24731315789474e+00 4.93022636063177e-02 9.71529884262224e-04
1.25159210526316e+00 4.84138493386042e-02 9.55658172828536e-04
1.25587105263158e+00 4.75414440687253e-02 9.40040260877056e-04
1.26015000000000e+00 4.66847593186705e-02 9.24672217118738e-04
1.26442894736842e+00 4.58435118146154e-02 9.09550170780387e-04
1.26870789473684e+00 4.50174233753722e-02 8.94670308056189e-04
1.27298684210526e+00 4.42062208385039e-02 8.80028868406836e-04
1.27726578947368e+00 4.34096359638910e-02 8.65622146956823e-04
1.28154473684211e+00 4.26274053504318e-02 8.51446496113368e-04
1.28582368421053e+00 4.18592703325394e-02 8.37498322260709e-04
1.29010263157895e+00 4.11049769112158e-02 8.23774082314408e-04
1.29438157894737e+00 4.03642756644629e-02 8.10270285910940e-04
1.29866052631579e+00 3.96369216697579e-02 7.96983496879213e-04
1.30293947368421e+00 3.89226744080095e-02 7.83910330161085e-04
1.30721842105263e+00 3.82212976992670e-02 7.71047447500420e-04
1.31149736842105e+00 3.75325596241280e-02 7.58391563874982e-04
1.31577631578947e+00 3.68562324329428e-02 7.45939443309575e-04
1.32005526315790e+00 3.61920924847850e-02 7.33687895840605e-04
1.32433421052632e+00 3.55399201686760e-02 7.21633779379033e-04
1.32861315789474e+00 3.48994998352348e-02 7.09774000949932e-04
1.33289210526316e+00 3.42706197124200e-02 6.98105513978020e-04
1.33717105263158e+00 3.36530718486120e-02 6.86625315461506e-04
1.34145000000000e+00 3.30466520394243e-02 6.75330447673677e-04
1.34572894736842e+00 3.24511597640955e-02 6.64217999289111e-04
1.35000789473684e+00 3.18663981072936e-02 6.53285102855109e-04
