Energy (eV)          EEDF (eV^-(3/2))     First Anisotropy
2.79062500000000e-04 2.68507888695268e+02 0.00000000000000e+00
8.37187500000000e-04 2.62772912671015e+02 0.00000000000000e+00
1.39531250000000e-03 2.57160428206161e+02 0.00000000000000e+00
1.95343750000000e-03 2.51667819041800e+02 0.00000000000000e+00
2.51156250000000e-03 2.46292524798878e+02 0.00000000000000e+00
3.06968750000000e-03 2.41032039784676e+02 0.00000000000000e+00
3.62781250000000e-03 2.35883911824783e+02 0.00000000000000e+00
4.18593750000000e-03 2.30845741120012e+02 0.00000000000000e+00
4.74406250000000e-03 2.25915179127740e+02 0.00000000000000e+00
5.30218750000000e-03 2.21089927467127e+02 0.00000000000000e+00
5.86031250000000e-03 2.16367736847734e+02 0.00000000000000e+00
6.41843750000000e-03 2.11746406021011e+02 0.00000000000000e+00
6.97656250000000e-03 2.07223780754190e+02 0.00000000000000e+00
7.53468750000000e-03 2.02797752826083e+02 0.00000000000000e+00
8.09281250000000e-03 1.98466259044342e+02 0.00000000000000e+00
8.65093750000000e-03 1.94227280283699e+02 0.00000000000000e+00
9.20906250000000e-03 1.90078840544751e+02 0.00000000000000e+00
9.76718750000000e-03 1.86019006032846e+02 0.00000000000000e+00
1.03253125000000e-02 1.82045884256650e+02 0.00000000000000e+00
1.08834375000000e-02 1.78157623145959e+02 0.00000000000000e+00
1.14415625000000e-02 1.74352410188357e+02 0.00000000000000e+00
1.19996875000000e-02 1.70628471584313e+02 0.00000000000000e+00
1.25578125000000e-02 1.66984071420327e+02 0.00000000000000e+00
1.31159375000000e-02 1.63417510859732e+02 0.00000000000000e+00
1.36740625000000e-02 1.59927127350781e+02 0.00000000000000e+00
1.42321875000000e-02 1.56511293851651e+02 0.00000000000000e+00
1.47903125000000e-02 1.53168418071996e+02 0.00000000000000e+00
1.53484375000000e-02 1.49896941730703e+02 0.00000000000000e+00
1.59065625000000e-02 1.46695339829496e+02 0.00000000000000e+00
1.64646875000000e-02 1.43562119942061e+02 0.00000000000000e+00
1.70228125000000e-02 1.40495821518351e+02 0.00000000000000e+00
1.75809375000000e-02 1.37495015203751e+02 0.00000000000000e+00
1.81390625000000e-02 1.34558302172782e+02 0.00000000000000e+00
1.86971875000000e-02 1.31684313477045e+02 0.00000000000000e+00
1.92553125000000e-02 1.28871709407079e+02 0.00000000000000e+00
1.98134375000000e-02 1.26119178867859e+02 0.00000000000000e+00
2.03715625000000e-02 1.23425438767628e+02 0.00000000000000e+00
2.09296875000000e-02 1.20789233419785e+02 0.00000000000000e+00
2.14878125000000e-02 1.18209333957547e+02 0.00000000000000e+00
2.20459375000000e-02 1.15684537761112e+02 0.00000000000000e+00
2.26040625000000e-02 1.13213667897058e+02 0.00000000000000e+00
2.31621875000000e-02 1.10795572569717e+02 0.00000000000000e+00
2.37203125000000e-02 1.08429124584261e+02 0.00000000000000e+00
2.42784375000000e-02 1.06113220821269e+02 0.00000000000000e+00
2.48365625000000e-02 1.03846781722498e+02 0.00000000000000e+00
2.53946875000000e-02 1.01628750787656e+02 0.00000000000000e+00
2.59528125000000e-02 9.94580940819067e+01 0.00000000000000e+00
2.65109375000000e-02 9.73337997539068e+01 0.00000000000000e+00
2.70690625000000e-02 9.52548775641288e+01 0.00000000000000e+00
2.76271875000000e-02 9.32203584232616e+01 0.00000000000000e+00
2.81853125000000e-02 9.12292939404698e+01 0.00000000000000e+00
2.87434375000000e-02 8.92807559813010e+01 0.00000000000000e+00
2.93015625000000e-02 8.73738362350364e+01 0.00000000000000e+00
2.98596875000000e-02 8.55076457912820e+01 0.00000000000000e+00
3.04178125000000e-02 8.36813147256026e+01 0.00000000000000e+00
3.09759375000000e-02 8.18939916940071e+01 0.00000000000000e+00
3.15340625000000e-02 8.01448435360947e+01 0.00000000000000e+00
3.20921875000000e-02 7.84330548866765e+01 0.00000000000000e+00
3.26503125000000e-02 7.67578277956942e+01 0.00000000000000e+00
3.32084375000000e-02 7.51183813562551e+01 0.00000000000000e+00
3.37665625000000e-02 7.35139513406124e+01 0.00000000000000e+00
3.43246875000000e-02 7.19437898439209e+01 0.00000000000000e+00
3.48828125000000e-02 7.04071649356012e+01 0.00000000000000e+00
3.54409375000000e-02 6.89033603181501e+01 0.00000000000000e+00
3.59990625000000e-02 6.74316749932389e+01 0.00000000000000e+00
3.65571875000000e-02 6.59914229349428e+01 0.00000000000000e+00
3.71153125000000e-02 6.45819327699503e+01 0.00000000000000e+00
3.76734375000000e-02 6.32025474646025e+01 0.00000000000000e+00
3.82315625000000e-02 6.18526240186170e+01 0.00000000000000e+00
3.87896875000000e-02 6.05315331653532e+01 0.00000000000000e+00
3.93478125000000e-02 5.92386590784800e+01 0.00000000000000e+00
3.99059375000000e-02 5.79733990849082e+01 0.00000000000000e+00
4.04640625000000e-02 5.67351633838548e+01 0.00000000000000e+00
4.10221875000000e-02 5.55233747719071e+01 0.00000000000000e+00
4.15803125000000e-02 5.43374683739599e+01 0.00000000000000e+00
4.21384375000000e-02 5.31768913798982e+01 0.00000000000000e+00
4.26965625000000e-02 5.20411027869059e+01 0.00000000000000e+00
4.32546875000000e-02 5.09295731472766e+01 0.00000000000000e+00
4.38128125000000e-02 4.98417843216118e+01 0.00000000000000e+00
4.43709375000000e-02 4.87772292372905e+01 0.00000000000000e+00
4.49290625000000e-02 4.77354116520974e+01 0.00000000000000e+00
4.54871875000000e-02 4.67158459228991e+01 0.00000000000000e+00
4.60453125000000e-02 4.57180567792623e+01 0.00000000000000e+00
4.66034375000000e-02 4.47415791019062e+01 0.00000000000000e+00
4.71615625000000e-02 4.37859577058872e+01 0.00000000000000e+00
4.77196875000000e-02 4.28507471284147e+01 0.00000000000000e+00
4.82778125000000e-02 4.19355114211982e+01 0.00000000000000e+00
4.88359375000000e-02 4.10398239472309e+01 0.00000000000000e+00
4.93940625000000e-02 4.01632671819120e+01 0.00000000000000e+00
4.99521875000000e-02 3.93054325184183e+01 0.00000000000000e+00
5.05103125000000e-02 3.84659200772317e+01 0.00000000000000e+00
5.10684375000000e-02 3.76443385197360e+01 0.00000000000000e+00
5.16265625000000e-02 3.68403048657940e+01 0.00000000000000e+00
5.21846875000000e-02 3.60534443152213e+01 0.00000000000000e+00
5.27428125000000e-02 3.52833900730737e+01 0.00000000000000e+00
5.33009375000000e-02 3.45297831786654e+01 0.00000000000000e+00
5.38590625000000e-02 3.37922723382394e+01 0.00000000000000e+00
5.44171875000000e-02 3.30705137612127e+01 0.00000000000000e+00
5.49753125000000e-02 3.23641709999173e+01 0.00000000000000e+00
5.55334375000000e-02 3.16729147927661e+01 0.00000000000000e+00
5.60915625000000e-02 3.09964229107672e+01 0.00000000000000e+00
5.66496875000000e-02 3.03343800073167e+01 0.00000000000000e+00
5.72078125000000e-02 2.96864774712007e+01 0.00000000000000e+00
5.77659375000000e-02 2.90524132827352e+01 0.00000000000000e+00
5.83240625000000e-02 2.84318918729805e+01 0.00000000000000e+00
5.88821875000000e-02 2.78246239859612e+01 0.00000000000000e+00
5.94403125000000e-02 2.72303265438301e+01 0.00000000000000e+00
5.99984375000000e-02 2.66487225149111e+01 0.00000000000000e+00
6.05565625000000e-02 2.60795407845609e+01 0.00000000000000e+00
6.11146875000000e-02 2.55225160287893e+01 0.00000000000000e+00
6.16728125000000e-02 2.49773885905780e+01 0.00000000000000e+00
6.22309375000000e-02 2.44439043588420e+01 0.00000000000000e+00
6.27890625000000e-02 2.39218146499753e+01 0.00000000000000e+00
6.33471875000000e-02 2.34108760919273e+01 0.00000000000000e+00
6.39053125000000e-02 2.29108505107551e+01 0.00000000000000e+00
6.44634375000000e-02 2.24215048195982e+01 0.00000000000000e+00
6.50215625000000e-02 2.19426109100259e+01 0.00000000000000e+00
6.55796875000000e-02 2.14739455457038e+01 0.00000000000000e+00
6.61378125000000e-02 2.10152902583327e+01 0.00000000000000e+00
6.66959375000000e-02 2.05664312458095e+01 0.00000000000000e+00
6.72540625000000e-02 2.01271592725632e+01 0.00000000000000e+00
6.78121875000000e-02 1.96972695720201e+01 0.00000000000000e+00
6.83703125000000e-02 1.92765617511517e+01 0.00000000000000e+00
6.89284375000000e-02 1.88648396970614e+01 0.00000000000000e+00
6.94865625000000e-02 1.84619114855667e+01 0.00000000000000e+00
7.00446875000000e-02 1.80675892917337e+01 0.00000000000000e+00
7.06028125000000e-02 1.76816893023225e+01 0.00000000000000e+00
7.11609375000000e-02 1.73040316301028e+01 0.00000000000000e+00
7.17190625000000e-02 1.69344402299993e+01 0.00000000000000e+00
7.22771875000000e-02 1.65727428170284e+01 0.00000000000000e+00
7.28353125000000e-02 1.62187707859877e+01 0.00000000000000e+00
7.33934375000000e-02 1.58723591328604e+01 0.00000000000000e+00
7.39515625000000e-02 1.55333463778990e+01 0.00000000000000e+00
7.45096875000000e-02 1.52015744903515e+01 0.00000000000000e+00
7.50678125000000e-02 1.48768888147953e+01 0.00000000000000e+00
7.56259375000000e-02 1.45591379990444e+01 0.00000000000000e+00
7.61840625000000e-02 1.42481739235970e+01 0.00000000000000e+00
7.67421875000000e-02 1.39438516325894e+01 0.00000000000000e+00
7.73003125000000e-02 1.36460292662249e+01 0.00000000000000e+00
7.78584375000000e-02 1.33545679946456e+01 0.00000000000000e+00
7.84165625000000e-02 1.30693319532174e+01 0.00000000000000e+00
7.89746875000000e-02 1.27901881791963e+01 0.00000000000000e+00
7.95328125000000e-02 1.25170065497480e+01 0.00000000000000e+00
8.00909375000000e-02 1.22496597212911e+01 0.00000000000000e+00
8.06490625000000e-02 1.19880230701359e+01 0.00000000000000e+00
8.12071875000000e-02 1.17319746343912e+01 0.00000000000000e+00
8.17653125000000e-02 1.14813950571117e+01 0.00000000000000e+00
8.23234375000000e-02 1.12361675306595e+01 0.00000000000000e+00
8.28815625000000e-02 1.09961777422550e+01 0.00000000000000e+00
8.34396875000000e-02 1.07613138206891e+01 0.00000000000000e+00
8.39978125000000e-02 1.05314662841749e+01 0.00000000000000e+00
8.45559375000000e-02 1.03065279893131e+01 0.00000000000000e+00
8.51140625000000e-02 1.00863940811463e+01 0.00000000000000e+00
8.56721875000000e-02 9.87096194428165e+00 0.00000000000000e+00
8.62303125000000e-02 9.66013115505627e+00 0.00000000000000e+00
8.67884375000000e-02 9.45380343472492e+00 0.00000000000000e+00
8.73465625000000e-02 9.25188260364733e+00 0.00000000000000e+00
8.79046875000000e-02 9.05427453645409e+00 0.00000000000000e+00
8.84628125000000e-02 8.86088711817013e+00 0.00000000000000e+00
8.90209375000000e-02 8.67163020127532e+00 0.00000000000000e+00
8.95790625000000e-02 8.48641556368221e+00 0.00000000000000e+00
9.01371875000000e-02 8.30515686761134e+00 0.00000000000000e+00
9.06953125000000e-02 8.12776961934489e+00 0.00000000000000e+00
9.12534375000000e-02 7.95417112983991e+00 0.00000000000000e+00
9.18115625000000e-02 7.78428047618286e+00 0.00000000000000e+00
9.23696875000000e-02 7.61801846386744e+00 0.00000000000000e+00
9.29278125000000e-02 7.45530758987799e+00 0.00000000000000e+00
9.34859375000000e-02 7.29607200656157e+00 0.00000000000000e+00
9.40440625000000e-02 7.14023748627152e+00 0.00000000000000e+00
9.46021875000000e-02 6.98773138676626e+00 0.00000000000000e+00
9.51603125000000e-02 6.83848261734715e+00 0.00000000000000e+00
9.57184375000000e-02 6.69242160571955e+00 0.00000000000000e+00
9.62765625000000e-02 6.54948026556170e+00 0.00000000000000e+00
9.68346875000000e-02 6.40959196478628e+00 0.00000000000000e+00
9.73928125000000e-02 6.27269149447990e+00 0.00000000000000e+00
9.79509375000000e-02 6.13871503850596e+00 0.00000000000000e+00
9.85090625000000e-02 6.00760014375676e+00 0.00000000000000e+00
9.90671875000000e-02 5.87928569104099e+00 0.00000000000000e+00
9.96253125000000e-02 5.75371186659304e+00 0.00000000000000e+00
1.00183437500000e-01 5.63082013419081e+00 0.00000000000000e+00
1.00741562500000e-01 5.51055320786908e+00 0.00000000000000e+00
1.01299687500000e-01 5.39285502521562e+00 0.00000000000000e+00
1.01857812500000e-01 5.27767072123774e+00 0.00000000000000e+00
1.02415937500000e-01 5.16494660278697e+00 0.00000000000000e+00
1.02974062500000e-01 5.05463012353003e+00 0.00000000000000e+00
1.03532187500000e-01 4.94666985945429e+00 0.00000000000000e+00
1.04090312500000e-01 4.84101548489658e+00 0.00000000000000e+00
1.04648437500000e-01 4.73761774908378e+00 0.00000000000000e+00
1.05206562500000e-01 4.63642845317467e+00 0.00000000000000e+00
1.05764687500000e-01 4.53740042779199e+00 0.00000000000000e+00
1.06322812500000e-01 4.44048751103446e+00 0.00000000000000e+00
1.06880937500000e-01 4.34564452695841e+00 0.00000000000000e+00
1.07439062500000e-01 4.25282726451903e+00 0.00000000000000e+00
1.07997187500000e-01 4.16199245696137e+00 0.00000000000000e+00
1.08555312500000e-01 4.07309776165160e+00 0.00000000000000e+00
1.09113437500000e-01 3.98610174033895e+00 0.00000000000000e+00
1.09671562500000e-01 3.90096383983927e+00 0.00000000000000e+00
1.10229687500000e-01 3.81764437313122e+00 0.00000000000000e+00
1.10787812500000e-01 3.73610450085613e+00 0.00000000000000e+00
1.11345937500000e-01 3.65630621321302e+00 0.00000000000000e+00
1.11904062500000e-01 3.57821231224038e+00 0.00000000000000e+00
1.12462187500000e-01 3.50178639447635e+00 0.00000000000000e+00
1.13020312500000e-01 3.42699283398919e+00 0.00000000000000e+00
1.13578437500000e-01 3.35379676577030e+00 0.00000000000000e+00
1.14136562500000e-01 3.28216406948192e+00 0.00000000000000e+00
1.14694687500000e-01 3.21206135355190e+00 0.00000000000000e+00
1.15252812500000e-01 3.14345593960823e+00 0.00000000000000e+00
1.15810937500000e-01 3.07631584724603e+00 0.00000000000000e+00
1.16369062500000e-01 3.01060977911990e+00 0.00000000000000e+00
1.16927187500000e-01 2.94630710635464e+00 0.00000000000000e+00
1.17485312500000e-01 2.88337785426762e+00 0.00000000000000e+00
1.18043437500000e-01 2.82179268839609e+00 0.00000000000000e+00
1.18601562500000e-01 2.76152290082289e+00 0.00000000000000e+00
1.19159687500000e-01 2.70254039679432e+00 0.00000000000000e+00
1.19717812500000e-01 2.64481768162372e+00 0.00000000000000e+00
1.20275937500000e-01 2.58832784787485e+00 0.00000000000000e+00
1.20834062500000e-01 2.53304456281897e+00 0.00000000000000e+00
1.21392187500000e-01 2.47894205615987e+00 0.00000000000000e+00
1.21950312500000e-01 2.42599510802105e+00 0.00000000000000e+00
1.22508437500000e-01 2.37417903718945e+00 0.00000000000000e+00
1.23066562500000e-01 2.32346968961031e+00 0.00000000000000e+00
1.23624687500000e-01 2.27384342712780e+00 0.00000000000000e+00
1.24182812500000e-01 2.22527711646605e+00 0.00000000000000e+00
1.24740937500000e-01 2.17774811844560e+00 0.00000000000000e+00
1.25299062500000e-01 2.13123427743014e+00 0.00000000000000e+00
1.25857187500000e-01 2.08571391099867e+00 0.00000000000000e+00
1.26415312500000e-01 2.04116579983825e+00 0.00000000000000e+00
1.26973437500000e-01 1.99756917785258e+00 0.00000000000000e+00
1.27531562500000e-01 1.95490372248194e+00 0.00000000000000e+00
1.28089687500000e-01 1.91314954522982e+00 0.00000000000000e+00
1.28647812500000e-01 1.87228718239186e+00 0.00000000000000e+00
1.29205937500000e-01 1.83229758598287e+00 0.00000000000000e+00
1.29764062500000e-01 1.79316211485766e+00 0.00000000000000e+00
1.30322187500000e-01 1.75486252602139e+00 0.00000000000000e+00
1.30880312500000e-01 1.71738096612565e+00 0.00000000000000e+00
1.31438437500000e-01 1.68069996314613e+00 0.00000000000000e+00
1.31996562500000e-01 1.64480241823801e+00 0.00000000000000e+00
1.32554687500000e-01 1.60967159776536e+00 0.00000000000000e+00
1.33112812500000e-01 1.57529112550073e+00 0.00000000000000e+00
1.33670937500000e-01 1.54164497499142e+00 0.00000000000000e+00
1.34229062500000e-01 1.50871746208868e+00 0.00000000000000e+00
1.34787187500000e-01 1.47649323763662e+00 0.00000000000000e+00
1.35345312500000e-01 1.44495728031716e+00 0.00000000000000e+00
1.35903437500000e-01 1.41409488964786e+00 0.00000000000000e+00
1.36461562500000e-01 1.38389167912928e+00 0.00000000000000e+00
1.37019687500000e-01 1.35433356953873e+00 0.00000000000000e+00
1.37577812500000e-01 1.32540678236722e+00 0.00000000000000e+00
1.38135937500000e-01 1.29709783339665e+00 0.00000000000000e+00
1.38694062500000e-01 1.26939352641409e+00 0.00000000000000e+00
1.39252187500000e-01 1.24228094706041e+00 0.00000000000000e+00
1.39810312500000e-01 1.21574745681024e+00 0.00000000000000e+00
1.40368437500000e-01 1.18978068708052e+00 0.00000000000000e+00
1.40926562500000e-01 1.16436853346487e+00 0.00000000000000e+00
1.41484687500000e-01 1.13949915009116e+00 0.00000000000000e+00
1.42042812500000e-01 1.11516094409954e+00 0.00000000000000e+00
1.42600937500000e-01 1.09134257023842e+00 0.00000000000000e+00
1.43159062500000e-01 1.06803292557588e+00 0.00000000000000e+00
1.43717187500000e-01 1.04522114432408e+00 0.00000000000000e+00
1.44275312500000e-01 1.02289659277411e+00 0.00000000000000e+00
1.44833437500000e-01 1.00104886433914e+00 0.00000000000000e+00
1.45391562500000e-01 9.79667774703389e-01 0.00000000000000e+00
1.45949687500000e-01 9.58743357074665e-01 0.00000000000000e+00
1.46507812500000e-01 9.38265857538387e-01 0.00000000000000e+00
1.47065937500000e-01 9.18225730510783e-01 0.00000000000000e+00
1.47624062500000e-01 8.98613634289219e-01 0.00000000000000e+00
1.48182187500000e-01 8.79420426697567e-01 0.00000000000000e+00
1.48740312500000e-01 8.60637160824581e-01 0.00000000000000e+00
1.49298437500000e-01 8.42255080853292e-01 0.00000000000000e+00
1.49856562500000e-01 8.24265617979488e-01 0.00000000000000e+00
1.50414687500000e-01 8.06660386417367e-01 0.00000000000000e+00
1.50972812500000e-01 7.89431179490503e-01 0.00000000000000e+00
1.51530937500000e-01 7.72569965806306e-01 0.00000000000000e+00
1.52089062500000e-01 7.56068885512189e-01 0.00000000000000e+00
1.52647187500000e-01 7.39920246631696e-01 0.00000000000000e+00
1.53205312500000e-01 7.24116521478893e-01 0.00000000000000e+00
1.53763437500000e-01 7.08650343149336e-01 0.00000000000000e+00
1.54321562500000e-01 6.93514502085986e-01 0.00000000000000e+00
1.54879687500000e-01 6.78701942718483e-01 0.00000000000000e+00
1.55437812500000e-01 6.64205760174183e-01 0.00000000000000e+00
1.55995937500000e-01 6.50019197059461e-01 0.00000000000000e+00
1.56554062500000e-01 6.36135640309748e-01 0.00000000000000e+00
1.57112187500000e-01 6.22548618106851e-01 0.00000000000000e+00
1.57670312500000e-01 6.09251796862122e-01 0.00000000000000e+00
1.58228437500000e-01 5.96238978264049e-01 0.00000000000000e+00
1.58786562500000e-01 5.83504096388917e-01 0.00000000000000e+00
1.59344687500000e-01 5.71041214873181e-01 0.00000000000000e+00
1.59902812500000e-01 5.58844524146228e-01 0.00000000000000e+00
1.60460937500000e-01 5.46908338722244e-01 0.00000000000000e+00
1.61019062500000e-01 5.35227094549932e-01 0.00000000000000e+00
1.61577187500000e-01 5.23795346418826e-01 0.00000000000000e+00
1.62135312500000e-01 5.12607765421005e-01 0.00000000000000e+00
1.62693437500000e-01 5.01659136467027e-01 0.00000000000000e+00
1.63251562500000e-01 4.90944355854917e-01 0.00000000000000e+00
1.63809687500000e-01 4.80458428891071e-01 0.00000000000000e+00
1.64367812500000e-01 4.70196467561986e-01 0.00000000000000e+00
1.64925937500000e-01 4.60153688255709e-01 0.00000000000000e+00
1.65484062500000e-01 4.50325409531959e-01 0.00000000000000e+00
1.66042187500000e-01 4.40707049939876e-01 0.00000000000000e+00
1.66600312500000e-01 4.31294125882375e-01 0.00000000000000e+00
1.67158437500000e-01 4.22082249526116e-01 0.00000000000000e+00
1.67716562500000e-01 4.13067126756124e-01 0.00000000000000e+00
1.68274687500000e-01 4.04244555174081e-01 0.00000000000000e+00
1.68832812500000e-01 3.95610422139378e-01 0.00000000000000e+00
1.69390937500000e-01 3.87160702852014e-01 0.00000000000000e+00
1.69949062500000e-01 3.78891458476431e-01 0.00000000000000e+00
1.70507187500000e-01 3.70798834305428e-01 0.00000000000000e+00
1.71065312500000e-01 3.62879057963290e-01 0.00000000000000e+00
1.71623437500000e-01 3.55128437647295e-01 0.00000000000000e+00
1.72181562500000e-01 3.47543360406780e-01 0.00000000000000e+00
1.72739687500000e-01 3.40120290458967e-01 0.00000000000000e+00
1.73297812500000e-01 3.32855767540756e-01 0.00000000000000e+00
1.73855937500000e-01 3.25746405295722e-01 0.00000000000000e+00
1.74414062500000e-01 3.18788889695572e-01 0.00000000000000e+00
1.74972187500000e-01 3.11979977495304e-01 0.00000000000000e+00
1.75530312500000e-01 3.05316494721373e-01 0.00000000000000e+00
1.76088437500000e-01 2.98795335192141e-01 0.00000000000000e+00
