Energy (eV)          EEDF (eV^-(3/2))     First Anisotropy
1.16923076923077e-02 1.21793926222876e-01 5.66137951581627e-05
3.50769230769231e-02 1.21148826721859e-01 9.35523920878909e-05
5.84615384615385e-02 1.20507144086350e-01 1.23677181230950e-04
8.18461538461538e-02 1.19868860217927e-01 1.46671530000388e-04
1.05230769230769e-01 1.19233957115048e-01 1.65938975918111e-04
1.28615384615385e-01 1.18602416869464e-01 1.82763406849595e-04
1.52000000000000e-01 1.17974221671694e-01 1.97807794983165e-04
1.75384615384615e-01 1.17349353799965e-01 2.11471642017192e-04
1.98769230769231e-01 1.16727795634658e-01 2.24019349725222e-04
2.22153846153846e-01 1.16109529644895e-01 2.35637403360636e-04
2.45538461538462e-01 1.15494538390493e-01 2.46463561419521e-04
2.68923076923077e-01 1.14882804528952e-01 2.56603244994546e-04
2.92307692307692e-01 1.14274310804672e-01 2.66139410016137e-04
3.15692307692308e-01 1.13669040058062e-01 2.75138828014529e-04
3.39076923076923e-01 1.13066975217929e-01 2.83656261366141e-04
3.62461538461539e-01 1.12468099301973e-01 2.91737337183108e-04
3.85846153846154e-01 1.11872395421305e-01 2.99420588652264e-04
4.09230769230769e-01 1.11279846773184e-01 3.06738940072594e-04
4.32615384615385e-01 1.10690436647003e-01 3.13720811563233e-04
4.56000000000000e-01 1.10104148419014e-01 3.20390957561215e-04
4.79384615384615e-01 1.09520965552341e-01 3.26771111544882e-04
5.02769230769231e-01 1.08940871600244e-01 3.32880491894621e-04
5.26153846153846e-01 1.08363850201758e-01 3.38736202944144e-04
5.49538461538462e-01 1.07789885081576e-01 3.44353555316429e-04
5.72923076923077e-01 1.07218960052728e-01 3.49746327101215e-04
5.96307692307692e-01 1.06651059011919e-01 3.54926976994991e-04
6.19692307692308e-01 1.06086165943140e-01 3.59906820298608e-04
6.43076923076923e-01 1.05524264914172e-01 3.64696176187648e-04
6.66461538461538e-01 1.04965340076373e-01 3.69304489882151e-04
6.89846153846154e-01 1.04409375666762e-01 3.73740437150748e-04
7.13230769230769e-01 1.03856356004178e-01 3.78012012519489e-04
7.36615384615385e-01 1.03306265492138e-01 3.82126604659330e-04
7.60000000000000e-01 1.02759088615929e-01 3.86091061857035e-04
7.83384615384615e-01 1.02214809942336e-01 3.89911747349467e-04
8.06769230769231e-01 1.01673414121308e-01 3.93594588448737e-04
8.30153846153846e-01 1.01134885883365e-01 3.97145119401078e-04
8.53538461538462e-01 1.00599210039292e-01 4.00568517885335e-04
8.76923076923077e-01 1.00066371481595e-01 4.03869638227754e-04
9.00307692307692e-01 9.95363551815615e-02 4.07053040188123e-04
9.23692307692308e-01 9.90091461912889e-02 4.10123014432945e-04
9.47076923076923e-01 9.84847296414249e-02 4.13083605732496e-04
9.70461538461538e-01 9.79630907408502e-02 4.15938632577868e-04
9.93846153846154e-01 9.74442147778783e-02 4.18691705554947e-04
1.01723076923077e+00 9.69280871186869e-02 4.21346244630719e-04
1.04061538461538e+00 9.64146932034710e-02 4.23905491227101e-04
1.06400000000000e+00 9.59040185575114e-02 4.26372524334329e-04
1.08738461538462e+00 9.53960487729658e-02 4.28750270806937e-04
1.11076923076923e+00 9.48907695278063e-02 4.31041516399776e-04
1.13415384615385e+00 9.43881665666405e-02 4.33248915762647e-04
1.15753846153846e+00 9.38882257185426e-02 4.35375001182137e-04
1.18092307692308e+00 9.33909328789373e-02 4.37422190895375e-04
1.20430769230769e+00 9.28962740264248e-02 4.39392796353859e-04
1.22769230769231e+00 9.24042352056334e-02 4.41289030069112e-04
1.25107692307692e+00 9.19148025392161e-02 4.43113008195046e-04
1.27446153846154e+00 9.14279622272478e-02 4.44866761632422e-04
1.29784615384615e+00 9.09437005350721e-02 4.46552237801193e-04
1.32123076923077e+00 9.04620038084037e-02 4.48171306265673e-04
1.34461538461538e+00 8.99828584578501e-02 4.49725763376086e-04
1.36800000000000e+00 8.95062509732414e-02 4.51217336272947e-04
1.39138461538462e+00 8.90321679089010e-02 4.52647686874495e-04
1.41476923076923e+00 8.85605958972636e-02 4.54018415301461e-04
1.43815384615385e+00 8.80915216348385e-02 4.55331063322518e-04
1.46153846153846e+00 8.76249318951695e-02 4.56587117298447e-04
1.48492307692308e+00 8.71608135154390e-02 4.57788011175727e-04
1.50830769230769e+00 8.66991534088188e-02 4.58935129029823e-04
1.53169230769231e+00 8.62399385516689e-02 4.60029808410181e-04
1.55507692307692e+00 8.57831559923900e-02 4.61073339620748e-04
1.57846153846154e+00 8.53287928509163e-02 4.62066972378953e-04
1.60184615384615e+00 8.48768363095409e-02 4.63011914921206e-04
1.62523076923077e+00 8.44272736241825e-02 4.63909336559661e-04
1.64861538461538e+00 8.39800921126504e-02 4.64760369588176e-04
1.67200000000000e+00 8.35352791654178e-02 4.65566110853363e-04
1.69538461538462e+00 8.30928222343714e-02 4.66327623445777e-04
1.71876923076923e+00 8.26527088431242e-02 4.67045938081305e-04
1.74215384615385e+00 8.22149265762172e-02 4.67722054607535e-04
1.76553846153846e+00 8.17794630890023e-02 4.68356943222498e-04
1.78892307692308e+00 8.13463060972681e-02 4.68951545821607e-04
1.81230769230769e+00 8.09154433867184e-02 4.69506777076026e-04
1.83569230769231e+00 8.04868628029979e-02 4.70023526264874e-04
1.85907692307692e+00 8.00605522585033e-02 4.70502655735761e-04
1.88246153846154e+00 7.96364997319405e-02 4.70945005718896e-04
1.90584615384615e+00 7.92146932611187e-02 4.71351392767981e-04
1.92923076923077e+00 7.87951209516885e-02 4.71722611211358e-04
1.95261538461538e+00 7.83777709679040e-02 4.72059434089958e-04
1.97600000000000e+00 7.79626315410234e-02 4.72362613873262e-04
1.99938461538462e+00 7.75496909604058e-02 4.72632883310401e-04
2.02276923076923e+00 7.71389375815937e-02 4.72870956071097e-04
2.04615384615385e+00 7.67303598177262e-02 4.73077527520408e-04
2.06953846153846e+00 7.63239461473201e-02 4.73253275293772e-04
2.09292307692308e+00 7.59196851059832e-02 4.73398860003911e-04
2.11630769230769e+00 7.55175652939107e-02 4.73514925757884e-04
2.13969230769231e+00 7.51175753678824e-02 4.73602101343341e-04
2.16307692307692e+00 7.47197040466563e-02 4.73660998534717e-04
2.18646153846154e+00 7.43239401105738e-02 4.73692215910708e-04
2.20984615384615e+00 7.39302723957415e-02 4.73696337184661e-04
2.23323076923077e+00 7.35386898009956e-02 4.73673932162862e-04
2.25661538461538e+00 7.31491812804345e-02 4.73625557270114e-04
2.28000000000000e+00 7.27617358501399e-02 4.73551755909428e-04
2.30338461538462e+00 7.23763425809529e-02 4.73453058946869e-04
2.32676923076923e+00 7.19929906049640e-02 4.73329985037560e-04
2.35015384615385e+00 7.16116691085216e-02 4.73183041074143e-04
2.37353846153846e+00 7.12323673385018e-02 4.73012722482409e-04
2.39692307692308e+00 7.08550745955375e-02 4.72819513636803e-04
2.42030769230769e+00 7.04797802400795e-02 4.72603888129257e-04
2.44369230769231e+00 7.01064736858362e-02 4.72366309626094e-04
2.46707692307692e+00 6.97351444041360e-02 4.72107230225759e-04
2.49046153846154e+00 6.93657819235702e-02 4.71827093635513e-04
2.51384615384615e+00 6.89983758251996e-02 4.71526333564906e-04
2.53723076923077e+00 6.86329157482172e-02 4.71205374426072e-04
2.56061538461538e+00 6.82693913837933e-02 4.70864631658315e-04
2.58400000000000e+00 6.79077924805555e-02 4.70504511920721e-04
2.60738461538462e+00 6.75481088386184e-02 4.70125413395427e-04
2.63076923076923e+00 6.71903303148897e-02 4.69727725963547e-04
2.65415384615385e+00 6.68344468172759e-02 4.69311831489020e-04
2.67753846153846e+00 6.64804483098222e-02 4.68878103979414e-04
2.70092307692308e+00 6.61283248070867e-02 4.68426909852089e-04
2.72430769230769e+00 6.57780663791214e-02 4.67958608081158e-04
2.74769230769231e+00 6.54296631460079e-02 4.67473550862377e-04
2.77107692307692e+00 6.50831052814417e-02 4.66972082086515e-04
2.79446153846154e+00 6.47383830124068e-02 4.66454540055841e-04
2.81784615384615e+00 6.43954866151655e-02 4.65921255994868e-04
2.84123076923077e+00 6.40544064199329e-02 4.65372554597290e-04
2.86461538461538e+00 6.37151328057276e-02 4.64808754241992e-04
2.88800000000000e+00 6.33776562049065e-02 4.64230167100347e-04
2.91138461538462e+00 6.30419670981578e-02 4.63637099339975e-04
2.93476923076923e+00 6.27080560189016e-02 4.63029851223005e-04
2.95815384615385e+00 6.23759135484207e-02 4.62408717298772e-04
2.98153846153846e+00 6.20455303201320e-02 4.61773986493972e-04
3.00492307692308e+00 6.17168970148487e-02 4.61125942294970e-04
3.02830769230769e+00 6.13900043649290e-02 4.60464862830488e-04
3.05169230769231e+00 6.10648431496645e-02 4.59791021411814e-04
3.07507692307692e+00 6.07414041982632e-02 4.59104685137204e-04
3.09846153846154e+00 6.04196783895514e-02 4.58406117254273e-04
3.12184615384615e+00 6.00996566485774e-02 4.57695575799574e-04
3.14523076923077e+00 5.97813299505175e-02 4.56973314045308e-04
3.16861538461538e+00 5.94646893163163e-02 4.56239580651706e-04
3.19200000000000e+00 5.91497258164826e-02 4.55494619727499e-04
3.21538461538462e+00 5.88364305668434e-02 4.54738670975120e-04
3.23876923076923e+00 5.85247947322338e-02 4.53971969746062e-04
3.26215384615385e+00 5.82148095223599e-02 4.53194747178993e-04
3.28553846153846e+00 5.79064661953872e-02 4.52407230250787e-04
3.30892307692308e+00 5.75997560539085e-02 4.51609641908085e-04
3.33230769230769e+00 5.72946704484341e-02 4.50802201113985e-04
3.35569230769231e+00 5.69912007734614e-02 4.49985123300825e-04
3.37907692307692e+00 5.66893384699822e-02 4.49158619103018e-04
3.40246153846154e+00 5.63890750252080e-02 4.48322896434419e-04
3.42584615384615e+00 5.60904019696658e-02 4.47478159253499e-04
3.44923076923077e+00 5.57933108804934e-02 4.46624607938786e-04
3.47261538461538e+00 5.54977933777129e-02 4.45762439401685e-04
3.49600000000000e+00 5.52038411274389e-02 4.44891847120213e-04
3.51938461538462e+00 5.49114458382428e-02 4.44013021246804e-04
3.54276923076923e+00 5.46205992642761e-02 4.43126148639338e-04
3.56615384615385e+00 5.43312932017234e-02 4.42231412964407e-04
3.58953846153846e+00 5.40435194918438e-02 4.41328994725512e-04
3.61292307692308e+00 5.37572700175090e-02 4.40419071362210e-04
3.63630769230769e+00 5.34725367061653e-02 4.39501817275725e-04
3.65969230769231e+00 5.31893115264554e-02 4.38577404216387e-04
3.68307692307692e+00 5.29075864903425e-02 4.37646000136253e-04
3.70646153846154e+00 5.26273536528579e-02 4.36707771030168e-04
3.72984615384615e+00 5.23486051095962e-02 4.35762879817397e-04
3.75323076923077e+00 5.20713329995188e-02 4.34811486663963e-04
3.77661538461538e+00 5.17955295017425e-02 4.33853749068954e-04
3.80000000000000e+00 5.15211868382722e-02 4.32889821882499e-04
3.82338461538462e+00 5.12482972708645e-02 4.31919857388941e-04
3.84676923076923e+00 5.09768531036907e-02 4.30944005322997e-04
3.87015384615385e+00 5.07068466802736e-02 4.29962412949831e-04
3.89353846153846e+00 5.04382703860832e-02 4.28975225079601e-04
3.91692307692308e+00 5.01711166455443e-02 4.27982584144541e-04
3.94030769230769e+00 4.99053779245671e-02 4.26984630212015e-04
3.96369230769231e+00 4.96410467276230e-02 4.25981501321077e-04
3.98707692307692e+00 4.93781155995576e-02 4.24973332444031e-04
4.01046153846154e+00 4.91165771253570e-02 4.23960257127599e-04
4.03384615384615e+00 4.88564239279735e-02 4.22942406480572e-04
4.05723076923077e+00 4.85976486707265e-02 4.21919909454339e-04
4.08061538461538e+00 4.83402440545168e-02 4.20892892911182e-04
4.10400000000000e+00 4.80842028201693e-02 4.19861481632506e-04
4.12738461538462e+00 4.78295177457097e-02 4.18825798384759e-04
4.15076923076923e+00 4.75761816486500e-02 4.17785963926732e-04
4.17415384615385e+00 4.73241873833255e-02 4.16742097073171e-04
4.19753846153846e+00 4.70735278431253e-02 4.15694314701049e-04
4.22092307692308e+00 4.68241959578880e-02 4.14642731811184e-04
4.24430769230769e+00 4.65761846960783e-02 4.13587461533449e-04
4.26769230769231e+00 4.63294870622399e-02 4.12528615422285e-04
4.29107692307692e+00 4.60840960985521e-02 4.11466302516575e-04
4.31446153846154e+00 4.58400048846137e-02 4.10400630809285e-04
4.33784615384615e+00 4.55972065355438e-02 4.09331706330603e-04
4.36123076923077e+00 4.53556942040501e-02 4.08259633394753e-04
4.38461538461539e+00 4.51154610779990e-02 4.07184514655154e-04
4.40800000000000e+00 4.48765003824349e-02 4.06106451106774e-04
4.43138461538462e+00 4.46388053772024e-02 4.05025542139610e-04
4.45476923076923e+00 4.44023693589186e-02 4.03941885540274e-04
4.47815384615385e+00 4.41671856586457e-02 4.02855577543884e-04
4.50153846153846e+00 4.39332476438176e-02 4.01766712835194e-04
4.52492307692308e+00 4.37005487159616e-02 4.00675384598735e-04
4.54830769230769e+00 4.34690823125802e-02 3.99581684519388e-04
4.57169230769231e+00 4.32388419049210e-02 3.98485703043839e-04
4.59507692307692e+00 4.30098209993198e-02 3.97387528528641e-04
4.61846153846154e+00 4.27820131370007e-02 3.96287248561114e-04
4.64184615384615e+00 4.25554118924091e-02 3.95184949128260e-04
4.66523076923077e+00 4.23300108750019e-02 3.94080714835615e-04
4.68861538461538e+00 4.21058037271174e-02 3.92974628952656e-04
4.71200000000000e+00 4.18827841257249e-02 3.91866773411418e-04
4.73538461538462e+00 4.16609457803383e-02 3.90757228850702e-04
4.75876923076923e+00 4.14402824347260e-02 3.89646074614322e-04
4.78215384615385e+00 4.12207878648675e-02 3.88533388794042e-04
4.80553846153846e+00 4.10024558806247e-02 3.87419248227376e-04
4.82892307692308e+00 4.07852803237404e-02 3.86303728539325e-04
4.85230769230769e+00 4.05692550694721e-02 3.85186904139970e-04
4.87569230769231e+00 4.03543740246307e-02 3.84068848457248e-04
4.89907692307692e+00 4.01406311287448e-02 3.82949633164202e-04
4.92246153846154e+00 3.99280203538753e-02 3.81829329369578e-04
4.94584615384615e+00 3.97165357031453e-02 3.80708006863786e-04
4.96923076923077e+00 3.95061712122977e-02 3.79585734314016e-04
4.99261538461538e+00 3.92969209478189e-02 3.78462579302322e-04
5.01600000000000e+00 3.90887790084609e-02 3.77338608321969e-04
5.03938461538462e+00 3.88817395234035e-02 3.76213886814483e-04
5.06276923076923e+00 3.86757966537427e-02 3.75088479165756e-04
5.08615384615385e+00 3.84709445906889e-02 3.73962448742072e-04
5.10953846153846e+00 3.82671775570236e-02 3.72835857886082e-04
5.13292307692308e+00 3.80644898053326e-02 3.71708767951907e-04
5.15630769230769e+00 3.78628756194309e-02 3.70581239300833e-04
5.17969230769231e+00 3.76623293126312e-02 3.69453331509676e-04
5.20307692307692e+00 3.74628452287564e-02 3.68325102668988e-04
5.22646153846154e+00 3.72644177419681e-02 3.67196610458936e-04
5.24984615384615e+00 3.70670412554653e-02 3.66067911464365e-04
5.27323076923077e+00 3.68707102028441e-02 3.64939061349667e-04
5.29661538461538e+00 3.66754190464388e-02 3.63810114891053e-04
5.32000000000000e+00 3.64811622786522e-02 3.62681125971502e-04
5.34338461538462e+00 3.62879344203291e-02 3.61552147612195e-04
5.36676923076923e+00 3.60957300220578e-02 3.60423231967392e-04
5.39015384615385e+00 3.59045436625751e-02 3.59294430355097e-04
5.41353846153846e+00 3.57143699500402e-02 3.58165793251838e-04
5.43692307692308e+00 3.55252035204705e-02 3.57037370322548e-04
5.46030769230769e+00 3.53370390389878e-02 3.55909210415179e-04
5.48369230769231e+00 3.51498711982845e-02 3.54781361747877e-04
5.50707692307692e+00 3.49636947195077e-02 3.53653871271029e-04
5.53046153846154e+00 3.47785043520992e-02 3.52526785641420e-04
5.55384615384615e+00 3.45942948726409e-02 3.51400150599451e-04
5.57723076923077e+00 3.44110610860452e-02 3.50274011126413e-04
5.60061538461539e+00 3.42287978240835e-02 3.49148411472042e-04
5.62400000000000e+00 3.40474999465525e-02 3.48023395148771e-04
5.64738461538462e+00 3.38671623398303e-02 3.46899004958690e-04
5.67076923076923e+00 3.36877799180181e-02 3.45775282987727e-04
5.69415384615385e+00 3.35093476215236e-02 3.44652270631937e-04
5.71753846153846e+00 3.33318604181788e-02 3.43530008591669e-04
5.74092307692308e+00 3.31553133018501e-02 3.42408536897246e-04
5.76430769230769e+00 3.29797012935327e-02 3.41287894902950e-04
5.78769230769231e+00 3.28050194399869e-02 3.40168121455822e-04
5.81107692307692e+00 3.26312628145125e-02 3.39049254314917e-04
5.83446153846154e+00 3.24584265168001e-02 3.37931331035117e-04
5.85784615384615e+00 3.22865056719029e-02 3.36814388400207e-04
5.88123076923077e+00 3.21154954312816e-02 3.35698462564685e-04
5.90461538461538e+00 3.19453909714971e-02 3.34583589077638e-04
5.92800000000000e+00 3.17761874952337e-02 3.33469802876604e-04
5.95138461538462e+00 3.16078802300154e-02 3.32357138310846e-04
5.97476923076923e+00 3.14404644292089e-02 3.31245629135219e-04
5.99815384615385e+00 3.12739353707630e-02 3.30135308532948e-04
6.02153846153846e+00 3.11082883581914e-02 3.29026209109401e-04
6.04492307692308e+00 3.09435187193347e-02 3.27918362914419e-04
6.06830769230769e+00 3.07796218073239e-02 3.26811801436123e-04
6.09169230769231e+00 3.06165929993645e-02 3.25706555753285e-04
6.11507692307692e+00 3.04544276974168e-02 3.24602656006266e-04
6.13846153846154e+00 3.02931213280579e-02 3.23500132200172e-04
6.16184615384615e+00 3.01326693415628e-02 3.22399013688088e-04
6.18523076923077e+00 2.99730672128254e-02 3.21299329299478e-04
6.20861538461538e+00 2.98143104401920e-02 3.20201107360939e-04
6.23200000000000e+00 2.96563945463633e-02 3.19104375689882e-04
6.25538461538462e+00 2.94993150772487e-02 3.18009161614837e-04
6.27876923076923e+00 2.93430676028504e-02 3.16915491969147e-04
6.30215384615385e+00 2.91876477161386e-02 3.15823393110924e-04
6.32553846153846e+00 2.90330510339175e-02 3.14732890916739e-04
6.34892307692308e+00 2.88792731957204e-02 3.13644010801033e-04
6.37230769230769e+00 2.87263098646591e-02 3.12556777709928e-04
6.39569230769231e+00 2.85741567263385e-02 3.11471216259197e-04
6.41907692307692e+00 2.84228094894544e-02 3.10387350251766e-04
6.44246153846154e+00 2.82722638856656e-02 3.09305203408533e-04
6.46584615384615e+00 2.81225156687714e-02 3.08224798897048e-04
6.48923076923077e+00 2.79735606155247e-02 3.07146159447855e-04
6.51261538461539e+00 2.78253945245889e-02 3.06069307372648e-04
6.53600000000000e+00 2.76780132173346e-02 3.04994264557984e-04
6.55938461538462e+00 2.75314125368150e-02 3.03921052483131e-04
6.58276923076923e+00 2.73855883485474e-02 3.02849692213821e-04
6.60615384615385e+00 2.72405365395059e-02 3.01780204419663e-04
6.62953846153846e+00 2.70962530188878e-02 3.00712609367989e-04
6.65292307692308e+00 2.69527337171239e-02 2.99646926940911e-04
6.67630769230769e+00 2.68099745866302e-02 2.98583176629157e-04
6.69969230769231e+00 2.66679716008352e-02 2.97521377657241e-04
6.72307692307692e+00 2.65267207547083e-02 2.96461548543063e-04
6.74646153846154e+00 2.63862180646398e-02 2.95403707763738e-04
6.76984615384615e+00 2.62464595677032e-02 2.94347873325310e-04
6.79323076923077e+00 2.61074413223751e-02 2.93294062868382e-04
6.81661538461538e+00 2.59691594076001e-02 2.92242293684049e-04
6.84000000000000e+00 2.58316099234961e-02 2.91192582707867e-04
6.86338461538462e+00 2.56947889904362e-02 2.90144946535469e-04
6.88676923076923e+00 2.55586927497401e-02 2.89099401416507e-04
6.91015384615385e+00 2.54233173627715e-02 2.88055963270062e-04
6.93353846153846e+00 2.52886590116165e-02 2.87014647678596e-04
6.95692307692308e+00 2.51547138981964e-02 2.85975469902956e-04
6.98030769230769e+00 2.50214782449331e-02 2.84938444876467e-04
7.00369230769231e+00 2.48889482938769e-02 2.83903587318686e-04
7.02707692307692e+00 2.47571203071730e-02 2.82870911332988e-04
7.05046153846154e+00 2.46259905669503e-02 2.81840431013940e-04
7.07384615384615e+00 2.44955553746580e-02 2.80812160054030e-04
7.09723076923077e+00 2.43658110517038e-02 2.79786111839833e-04
7.12061538461538e+00 2.42367539386146e-02 2.78762299466083e-04
7.14400000000000e+00 2.41083803956618e-02 2.77740735729771e-04
7.16738461538462e+00 2.39806868020368e-02 2.76721433144082e-04
7.19076923076923e+00 2.38536695564644e-02 2.75704403932518e-04
7.21415384615385e+00 2.37273250763919e-02 2.74689660042436e-04
7.23753846153846e+00 2.36016497985913e-02 2.73677213139333e-04
7.26092307692308e+00 2.34766401783616e-02 2.72667074620145e-04
7.28430769230769e+00 2.33522926901200e-02 2.71659255607502e-04
7.30769230769231e+00 2.32286038266173e-02 2.70653767053301e-04
7.33107692307692e+00 2.31055700993514e-02 2.69650619370705e-04
7.35446153846154e+00 2.29831880384635e-02 2.68649822988751e-04
7.37784615384615e+00 2.28614541921409e-02 2.67651387992781e-04
