Energy (eV)          EEDF (eV^-(3/2))     First Anisotropy
6.15909090909091e-04 9.85875686421953e+00 4.30537898437937e-03
1.84772727272727e-03 9.80728428260554e+00 7.11476376013607e-03
3.07954545454546e-03 9.75608043941751e+00 9.40650288833812e-03
4.31136363636364e-03 9.70514393143430e+00 1.11562301179010e-02
5.54318181818182e-03 9.65447336306624e+00 1.26227236239660e-02
6.77500000000000e-03 9.60406734582088e+00 1.39035895842617e-02
8.00681818181818e-03 9.55392449846604e+00 1.50492245542954e-02
9.23863636363637e-03 9.50404344698645e+00 1.60899940863461e-02
1.04704545454545e-02 9.45442282454365e+00 1.70459930060852e-02
1.17022727272727e-02 9.40506127154555e+00 1.79313929680714e-02
1.29340909090909e-02 9.35595743520318e+00 1.87566617382496e-02
1.41659090909091e-02 9.30710996999055e+00 1.95298090602133e-02
1.53977272727273e-02 9.25851753739694e+00 2.02571371979604e-02
1.66295454545455e-02 9.21017880590652e+00 2.09437183623848e-02
1.78613636363636e-02 9.16209245120264e+00 2.15937120950690e-02
1.90931818181818e-02 9.11425715536839e+00 2.22105837668072e-02
2.03250000000000e-02 9.06667160763110e+00 2.27972596220933e-02
2.15568181818182e-02 9.01933450405905e+00 2.33562397387042e-02
2.27886363636364e-02 8.97224454752808e+00 2.38896819797338e-02
2.40204545454545e-02 8.92540044768732e+00 2.43994656424478e-02
2.52522727272727e-02 8.87880092109210e+00 2.48872405993715e-02
2.64840909090909e-02 8.83244469065131e+00 2.53544656567259e-02
2.77159090909091e-02 8.78633048611841e+00 2.58024389551654e-02
2.89477272727273e-02 8.74045704387676e+00 2.62323224464211e-02
3.01795454545455e-02 8.69482310690875e+00 2.66451616523006e-02
3.14113636363636e-02 8.64942742489068e+00 2.70419019224026e-02
3.26431818181818e-02 8.60426875375937e+00 2.74234017836877e-02
3.38750000000000e-02 8.55934585608271e+00 2.77904440507174e-02
3.51068181818182e-02 8.51465750088841e+00 2.81437452254645e-02
3.63386363636364e-02 8.47020246363105e+00 2.84839633751207e-02
3.75704545454546e-02 8.42597952615898e+00 2.88117048283978e-02
3.88022727272727e-02 8.38198747678340e+00 2.91275299582163e-02
4.00340909090909e-02 8.33822510993261e+00 2.94319580842977e-02
4.12659090909091e-02 8.29469122643517e+00 2.97254717060902e-02
4.24977272727273e-02 8.25138463337965e+00 3.00085202489039e-02
4.37295454545455e-02 8.20830414408354e+00 3.02815232633923e-02
4.49613636363636e-02 8.16544857814591e+00 3.05448732932627e-02
4.61931818181818e-02 8.12281676115445e+00 3.07989383341618e-02
4.74250000000000e-02 8.08040752491662e+00 3.10440640012273e-02
4.86568181818182e-02 8.03821970733866e+00 3.12805755134331e-02
4.98886363636364e-02 7.99625215239409e+00 3.15087794072398e-02
5.11204545454546e-02 7.95450371009224e+00 3.17289650647895e-02
5.23522727272727e-02 7.91297323651817e+00 3.19414061272939e-02
5.35840909090909e-02 7.87165959358433e+00 3.21463617057005e-02
5.48159090909091e-02 7.83056164921841e+00 3.23440774671791e-02
5.60477272727273e-02 7.78967827725818e+00 3.25347866729135e-02
5.72795454545455e-02 7.74900835742152e+00 3.27187110597902e-02
5.85113636363636e-02 7.70855077533737e+00 3.28960616935459e-02
5.97431818181818e-02 7.66830442232724e+00 3.30670396907866e-02
6.09750000000000e-02 7.62826819556445e+00 3.32318368741584e-02
6.22068181818182e-02 7.58844099797999e+00 3.33906364235574e-02
6.34386363636364e-02 7.54882173823263e+00 3.35436134290781e-02
6.46704545454546e-02 7.50940933067917e+00 3.36909353975577e-02
6.59022727272727e-02 7.47020269539807e+00 3.38327627565969e-02
6.71340909090909e-02 7.43120075799794e+00 3.39692492692987e-02
6.83659090909091e-02 7.39240244975135e+00 3.41005424143948e-02
6.95977272727273e-02 7.35380670751041e+00 3.42267837859541e-02
7.08295454545455e-02 7.31541247367818e+00 3.43481094144491e-02
7.20613636363636e-02 7.27721869622694e+00 3.44646501099877e-02
7.32931818181818e-02 7.23922432852569e+00 3.45765317350037e-02
7.45250000000000e-02 7.20142832945626e+00 3.46838754557776e-02
7.57568181818182e-02 7.16382966333603e+00 3.47867980220164e-02
7.69886363636364e-02 7.12642729988969e+00 3.48854119906388e-02
7.82204545454546e-02 7.08922021422107e+00 3.49798259344456e-02
7.94522727272727e-02 7.05220738682680e+00 3.50701446706306e-02
8.06840909090909e-02 7.01538780344199e+00 3.51564694322314e-02
8.19159090909091e-02 6.97876045513972e+00 3.52388980271621e-02
8.31477272727273e-02 6.94232433826053e+00 3.53175250295886e-02
8.43795454545455e-02 6.90607845438521e+00 3.53924419175447e-02
8.56113636363637e-02 6.87002181034500e+00 3.54637372421617e-02
8.68431818181818e-02 6.83415341808046e+00 3.55314967471708e-02
8.80750000000000e-02 6.79847229472909e+00 3.55958034801336e-02
8.93068181818182e-02 6.76297746255986e+00 3.56567379370519e-02
9.05386363636364e-02 6.72766794894645e+00 3.57143781669057e-02
9.17704545454546e-02 6.69254278634070e+00 3.57687998704215e-02
9.30022727272727e-02 6.65760101227969e+00 3.58200765229111e-02
9.42340909090909e-02 6.62284166925762e+00 3.58682794535397e-02
9.54659090909091e-02 6.58826380480206e+00 3.59134779192975e-02
9.66977272727273e-02 6.55386647141327e+00 3.59557392122471e-02
9.79295454545455e-02 6.51964872653855e+00 3.59951287244442e-02
9.91613636363637e-02 6.48560963257695e+00 3.60317100447654e-02
1.00393181818182e-01 6.45174825676089e+00 3.60655450229834e-02
1.01625000000000e-01 6.41806367119407e+00 3.60966937884501e-02
1.02856818181818e-01 6.38455495294308e+00 3.61252148779140e-02
1.04088636363636e-01 6.35122118380216e+00 3.61511653028503e-02
1.05320454545455e-01 6.31806145036007e+00 3.61746006239382e-02
1.06552272727273e-01 6.28507484369874e+00 3.61955748285530e-02
1.07784090909091e-01 6.25226046020269e+00 3.62141405169288e-02
1.09015909090909e-01 6.21961740069287e+00 3.62303490859898e-02
1.10247727272727e-01 6.18714477068408e+00 3.62442505737819e-02
1.11479545454545e-01 6.15484168036216e+00 3.62558938352024e-02
1.12711363636364e-01 6.12270724430439e+00 3.62653263966349e-02
1.13943181818182e-01 6.09074058222437e+00 3.62725946237961e-02
1.15175000000000e-01 6.05894081817244e+00 3.62777438880268e-02
1.16406818181818e-01 6.02730708077198e+00 3.62808184115273e-02
1.17638636363636e-01 5.99583850319591e+00 3.62818613674592e-02
1.18870454545455e-01 5.96453422314326e+00 3.62809149729459e-02
1.20102272727273e-01 5.93339338258425e+00 3.62780203449005e-02
1.21334090909091e-01 5.90241512843494e+00 3.62732176501873e-02
1.22565909090909e-01 5.87159861183018e+00 3.62665462548022e-02
1.23797727272727e-01 5.84094298833617e+00 3.62580445722459e-02
1.25029545454545e-01 5.81044741792860e+00 3.62477502072325e-02
1.26261363636364e-01 5.78011106475472e+00 3.62356998140620e-02
1.27493181818182e-01 5.74993309775801e+00 3.62219292348483e-02
1.28725000000000e-01 5.71991269000286e+00 3.62064736371755e-02
1.29956818181818e-01 5.69004901887087e+00 3.61893673661078e-02
1.31188636363636e-01 5.66034126603858e+00 3.61706440239148e-02
1.32420454545455e-01 5.63078861745532e+00 3.61503365441887e-02
1.33652272727273e-01 5.60139026312476e+00 3.61284770543088e-02
1.34884090909091e-01 5.57214539767456e+00 3.61050970015720e-02
1.36115909090909e-01 5.54305321973805e+00 3.60802272790452e-02
1.37347727272727e-01 5.51411293213206e+00 3.60538980827170e-02
1.38579545454545e-01 5.48532374183604e+00 3.60261390332688e-02
1.39811363636364e-01 5.45668485978726e+00 3.59969790424973e-02
1.41043181818182e-01 5.42819550141083e+00 3.59664464309777e-02
1.42275000000000e-01 5.39985488604252e+00 3.59345690456471e-02
1.43506818181818e-01 5.37166223709378e+00 3.59013741215211e-02
1.44738636363636e-01 5.34361678203068e+00 3.58668883478405e-02
1.45970454545455e-01 5.31571775235292e+00 3.58311379296208e-02
1.47202272727273e-01 5.28796438340475e+00 3.57941484591154e-02
1.48434090909091e-01 5.26035591486098e+00 3.57559450245599e-02
1.49665909090909e-01 5.23289159019558e+00 3.57165523190040e-02
1.50897727272727e-01 5.20557065683202e+00 3.56759945076956e-02
1.52129545454545e-01 5.17839236612336e+00 3.56342953336990e-02
1.53361363636364e-01 5.15135597317430e+00 3.55914779936990e-02
1.54593181818182e-01 5.12446073729522e+00 3.55475652403291e-02
1.55825000000000e-01 5.09770592150411e+00 3.55025794846989e-02
1.57056818181818e-01 5.07109079266662e+00 3.54565426684948e-02
1.58288636363636e-01 5.04461462147610e+00 3.54094763204228e-02
1.59520454545455e-01 5.01827668243384e+00 3.53614016087542e-02
1.60752272727273e-01 4.99207625368390e+00 3.53123392223348e-02
1.61984090909091e-01 4.96601261743140e+00 3.52623094659754e-02
1.63215909090909e-01 4.94008505948189e+00 3.52113323561289e-02
1.64447727272727e-01 4.91429286936941e+00 3.51594274986141e-02
1.65679545454545e-01 4.88863534033768e+00 3.51066141816321e-02
1.66911363636364e-01 4.86311176918423e+00 3.50529112610828e-02
1.68143181818182e-01 4.83772145665237e+00 3.49983372508604e-02
1.69375000000000e-01 4.81246370699804e+00 3.49429104134871e-02
1.70606818181818e-01 4.78733782810957e+00 3.48866486423928e-02
1.71838636363636e-01 4.76234313148879e+00 3.48295695110160e-02
1.73070454545455e-01 4.73747893223236e+00 3.47716903185160e-02
1.74302272727273e-01 4.71274454888657e+00 3.47130279801066e-02
1.75534090909091e-01 4.68813930380987e+00 3.46535991117584e-02
1.76765909090909e-01 4.66366252277064e+00 3.45934201152635e-02
1.77997727272727e-01 4.63931353505719e+00 3.45325070658234e-02
1.79229545454545e-01 4.61509167345989e+00 3.44708757948702e-02
1.80461363636364e-01 4.59099627413371e+00 3.44085417844712e-02
1.81693181818182e-01 4.56702667693902e+00 3.43455202478393e-02
1.82925000000000e-01 4.54318222506220e+00 3.42818262102625e-02
1.84156818181818e-01 4.51946226511878e+00 3.42174744009315e-02
1.85388636363636e-01 4.49586614713564e+00 3.41524792962363e-02
1.86620454545455e-01 4.47239322453324e+00 3.40868551601102e-02
1.87852272727273e-01 4.44904285399733e+00 3.40206159431411e-02
1.89084090909091e-01 4.42581439579502e+00 3.39537753584140e-02
1.90315909090909e-01 4.40270721342138e+00 3.38863469577850e-02
1.91547727272727e-01 4.37972067369452e+00 3.38183440286393e-02
1.92779545454545e-01 4.35685414673858e+00 3.37497796682179e-02
1.94011363636364e-01 4.33410700586191e+00 3.36806666865124e-02
1.95243181818182e-01 4.31147862785499e+00 3.36110176785841e-02
1.96475000000000e-01 4.28896839265629e+00 3.35408450973421e-02
1.97706818181818e-01 4.26657568344154e+00 3.34701611542069e-02
1.98938636363636e-01 4.24429988660694e+00 3.33989778576740e-02
2.00170454545455e-01 4.22214039175239e+00 3.33273070492779e-02
2.01402272727273e-01 4.20009659156736e+00 3.32551603108275e-02
2.02634090909091e-01 4.17816788210807e+00 3.31825490327527e-02
2.03865909090909e-01 4.15635366248528e+00 3.31094844829260e-02
2.05097727272727e-01 4.13465333494688e+00 3.30359777118405e-02
2.06329545454545e-01 4.11306630486177e+00 3.29620396197088e-02
2.07561363636364e-01 4.09159198061135e+00 3.28876808671904e-02
2.08793181818182e-01 4.07022977385121e+00 3.28129119407216e-02
2.10025000000000e-01 4.04897909921543e+00 3.27377432183047e-02
2.11256818181818e-01 4.02783937439420e+00 3.26621848782843e-02
2.12488636363636e-01 4.00681002011798e+00 3.25862469339621e-02
2.13720454545455e-01 3.98589046014168e+00 3.25099392658708e-02
2.14952272727273e-01 3.96508012114267e+00 3.24332715364826e-02
2.16184090909091e-01 3.94437843296494e+00 3.23562532521149e-02
2.17415909090909e-01 3.92378482834207e+00 3.22788938253091e-02
2.18647727272727e-01 3.90329874296923e+00 3.22012024877105e-02
2.19879545454545e-01 3.88291961548796e+00 3.21231883509207e-02
2.21111363636364e-01 3.86264688738905e+00 3.20448603243862e-02
2.22343181818182e-01 3.84248000324348e+00 3.19662271746756e-02
2.23575000000000e-01 3.82241841043953e+00 3.18872975852381e-02
2.24806818181818e-01 3.80246155925059e+00 3.18080800725509e-02
2.26038636363636e-01 3.78260890282020e+00 3.17285830173595e-02
2.27270454545455e-01 3.76285989714709e+00 3.16488146938366e-02
2.28502272727273e-01 3.74321400099380e+00 3.15687831911064e-02
2.29734090909091e-01 3.72367067610247e+00 3.14884964695341e-02
2.30965909090909e-01 3.70422938694813e+00 3.14079624174784e-02
2.32197727272727e-01 3.68488960080167e+00 3.13271887711961e-02
2.33429545454546e-01 3.66565078771548e+00 3.12461831702291e-02
2.34661363636364e-01 3.64651242043624e+00 3.11649530818285e-02
2.35893181818182e-01 3.62747397460944e+00 3.10835058549434e-02
2.37125000000000e-01 3.60853492854476e+00 3.10018487746694e-02
2.38356818181818e-01 3.58969476327561e+00 3.09199889851165e-02
2.39588636363636e-01 3.57095296254492e+00 3.08379335177412e-02
2.40820454545455e-01 3.55230901279105e+00 3.07556893178033e-02
2.42052272727273e-01 3.53376240306555e+00 3.06732631721127e-02
2.43284090909091e-01 3.51531262522469e+00 3.05906617603735e-02
2.44515909090909e-01 3.49695917370883e+00 3.05078917069826e-02
2.45747727272727e-01 3.47870154559775e+00 3.04249595073165e-02
2.46979545454546e-01 3.46053924059710e+00 3.03418715782952e-02
2.48211363636364e-01 3.44247176095981e+00 3.02586341887870e-02
2.49443181818182e-01 3.42449861166781e+00 3.01752535089076e-02
2.50675000000000e-01 3.40661930022200e+00 3.00917356597681e-02
2.51906818181818e-01 3.38883333669461e+00 3.00080866424721e-02
2.53138636363636e-01 3.37114023371576e+00 2.99243123639026e-02
2.54370454545455e-01 3.35353950646018e+00 2.98404186608083e-02
2.55602272727273e-01 3.33603067257300e+00 2.97564112332280e-02
2.56834090909091e-01 3.31861325234019e+00 2.96722956914522e-02
2.58065909090909e-01 3.30128676849073e+00 2.95880776034126e-02
2.59297727272727e-01 3.28405074624536e+00 2.95037624267894e-02
2.60529545454545e-01 3.26690471330372e+00 2.94193555552881e-02
2.61761363636364e-01 3.24984819977336e+00 2.93348622544826e-02
2.62993181818182e-01 3.23288073833174e+00 2.92502877069544e-02
2.64225000000000e-01 3.21600186403759e+00 2.91656370578552e-02
2.65456818181818e-01 3.19921111437706e+00 2.90809153494761e-02
2.66688636363636e-01 3.18250802925109e+00 2.89961275447930e-02
2.67920454545455e-01 3.16589215096285e+00 2.89112785494629e-02
2.69152272727273e-01 3.14936302415053e+00 2.88263731504322e-02
2.70384090909091e-01 3.13292019593958e+00 2.87414160589732e-02
2.71615909090909e-01 3.11656321576471e+00 2.86564119541401e-02
2.72847727272727e-01 3.10029163541295e+00 2.85713654201759e-02
2.74079545454545e-01 3.08410500901154e+00 2.84862809889590e-02
2.75311363636364e-01 3.06800289296358e+00 2.84011630808140e-02
2.76543181818182e-01 3.05198484609284e+00 2.83160160459154e-02
2.77775000000000e-01 3.03605042947385e+00 2.82308442061069e-02
2.79006818181818e-01 3.02019920647276e+00 2.81456517945539e-02
2.80238636363636e-01 3.00443074273537e+00 2.80604429772851e-02
2.81470454545455e-01 2.98874460617530e+00 2.79752218733397e-02
2.82702272727273e-01 2.97314036691301e+00 2.78899924981078e-02
2.83934090909091e-01 2.95761759741204e+00 2.78047588028431e-02
2.85165909090909e-01 2.94217587231849e+00 2.77195247145855e-02
2.86397727272727e-01 2.92681476849920e+00 2.76342940784062e-02
2.87629545454545e-01 2.91153386503021e+00 2.75490706964011e-02
2.88861363636364e-01 2.89633274313845e+00 2.74638582730438e-02
2.90093181818182e-01 2.88121098633133e+00 2.73786604532338e-02
2.91325000000000e-01 2.86616818024350e+00 2.72934808607374e-02
2.92556818181818e-01 2.85120391267297e+00 2.72083230424888e-02
2.93788636363636e-01 2.83631777356985e+00 2.71231904883429e-02
2.95020454545455e-01 2.82150935502518e+00 2.70380866495619e-02
2.96252272727273e-01 2.80677825121547e+00 2.69530148864740e-02
2.97484090909091e-01 2.79212405852491e+00 2.68679785048183e-02
2.98715909090909e-01 2.77754637540031e+00 2.67829807924812e-02
2.99947727272727e-01 2.76304480238493e+00 2.66980249661513e-02
3.01179545454546e-01 2.74861894210765e+00 2.66131142072058e-02
3.02411363636364e-01 2.73426839922983e+00 2.65282516112133e-02
3.03643181818182e-01 2.71999278056173e+00 2.64434402229484e-02
3.04875000000000e-01 2.70579169492382e+00 2.63586830717913e-02
3.06106818181818e-01 2.69166475317889e+00 2.62739831202611e-02
3.07338636363636e-01 2.67761156822144e+00 2.61893432821689e-02
3.08570454545455e-01 2.66363175496703e+00 2.61047664396094e-02
3.09802272727273e-01 2.64972493030190e+00 2.60202553945725e-02
3.11034090909091e-01 2.63589071319271e+00 2.59358129024274e-02
3.12265909090909e-01 2.62212872455517e+00 2.58514417057624e-02
3.13497727272727e-01 2.60843858728419e+00 2.57671444850800e-02
3.14729545454546e-01 2.59481992624355e+00 2.56829238918671e-02
3.15961363636364e-01 2.58127236821753e+00 2.55987825018977e-02
3.17193181818182e-01 2.56779554201558e+00 2.55147228475074e-02
3.18425000000000e-01 2.55438907834663e+00 2.54307474502171e-02
3.19656818181818e-01 2.54105260984768e+00 2.53468587731504e-02
3.20888636363636e-01 2.52778577107371e+00 2.52630592377432e-02
3.22120454545455e-01 2.51458819848772e+00 2.51793512393849e-02
3.23352272727273e-01 2.50145953041465e+00 2.50957371026499e-02
3.24584090909091e-01 2.48839940714030e+00 2.50122191121820e-02
3.25815909090909e-01 2.47540747079206e+00 2.49287995439087e-02
3.27047727272727e-01 2.46248336536576e+00 2.48454806194351e-02
3.28279545454546e-01 2.44962673671596e+00 2.47622645365582e-02
3.29511363636364e-01 2.43683723251169e+00 2.46791534260449e-02
3.30743181818182e-01 2.42411450233090e+00 2.45961493814124e-02
3.31975000000000e-01 2.41145819754621e+00 2.45132544890461e-02
3.33206818181818e-01 2.39886797135042e+00 2.44304707841677e-02
3.34438636363636e-01 2.38634347874701e+00 2.43478002662280e-02
3.35670454545455e-01 2.37388437654070e+00 2.42652449133341e-02
3.36902272727273e-01 2.36149032329536e+00 2.41828066407992e-02
3.38134090909091e-01 2.34916097942319e+00 2.41004873296569e-02
3.39365909090909e-01 2.33689600707637e+00 2.40182888554948e-02
3.40597727272727e-01 2.32469507017095e+00 2.39362130462315e-02
3.41829545454546e-01 2.31255783437772e+00 2.38542617102972e-02
3.43061363636364e-01 2.30048396708168e+00 2.37724365966127e-02
3.44293181818182e-01 2.28847313746735e+00 2.36907394220983e-02
3.45525000000000e-01 2.27652501641481e+00 2.36091718994936e-02
3.46756818181818e-01 2.26463927652246e+00 2.35277356965894e-02
3.47988636363636e-01 2.25281559209809e+00 2.34464324504372e-02
3.49220454545455e-01 2.24105363914991e+00 2.33652637806559e-02
3.50452272727273e-01 2.22935309534806e+00 2.32842312510357e-02
3.51684090909091e-01 2.21771364010517e+00 2.32033363958902e-02
3.52915909090909e-01 2.20613495447770e+00 2.31225807467098e-02
3.54147727272727e-01 2.19461672118731e+00 2.30419657930546e-02
3.55379545454546e-01 2.18315862461216e+00 2.29614930086043e-02
3.56611363636364e-01 2.17176035074989e+00 2.28811638140707e-02
3.57843181818182e-01 2.16042158729465e+00 2.28009796026336e-02
3.59075000000000e-01 2.14914202354243e+00 2.27209417656723e-02
3.60306818181818e-01 2.13792135041142e+00 2.26410516549843e-02
3.61538636363636e-01 2.12675926043351e+00 2.25613105959099e-02
3.62770454545455e-01 2.11565544774590e+00 2.24817198996325e-02
3.64002272727273e-01 2.10460960805573e+00 2.24022808275847e-02
3.65234090909091e-01 2.09362143871305e+00 2.23229946158230e-02
3.66465909090909e-01 2.08269063862083e+00 2.22438624996913e-02
3.67697727272727e-01 2.07181690825403e+00 2.21648856775696e-02
3.68929545454546e-01 2.06099994965146e+00 2.20860653349825e-02
3.70161363636364e-01 2.05023946638175e+00 2.20074026102064e-02
3.71393181818182e-01 2.03953516361312e+00 2.19288986178050e-02
3.72625000000000e-01 2.02888674802704e+00 2.18505544724505e-02
3.73856818181818e-01 2.01829392783635e+00 2.17723712538970e-02
3.75088636363636e-01 2.00775641277734e+00 2.16943500191102e-02
3.76320454545455e-01 1.99727391410178e+00 2.16164918136438e-02
3.77552272727273e-01 1.98684614454445e+00 2.15387976386258e-02
3.78784090909091e-01 1.97647281838924e+00 2.14612684733275e-02
3.80015909090909e-01 1.96615365138701e+00 2.13839052979998e-02
3.81247727272727e-01 1.95588836077266e+00 2.13067090602494e-02
3.82479545454545e-01 1.94567666525744e+00 2.12296806973664e-02
3.83711363636364e-01 1.93551828499766e+00 2.11528211044141e-02
3.84943181818182e-01 1.92541294165798e+00 2.10761311560294e-02
3.86175000000000e-01 1.91536035833251e+00 2.09996117284855e-02
3.87406818181818e-01 1.90536025956107e+00 2.09232636671976e-02
3.88638636363636e-01 1.89541237132166e+00 2.08470877979482e-02
