Energy (eV)          EEDF (eV^-(3/2))     First Anisotropy
1.26666666666667e-02 1.21766641002952e-01 5.88993063715126e-05
3.80000000000000e-02 1.21068093941436e-01 9.73076474865515e-05
6.33333333333333e-02 1.20373554281503e-01 1.28584746475865e-04
8.86666666666667e-02 1.19682999035721e-01 1.52424048988998e-04
1.14000000000000e-01 1.18996405347582e-01 1.72370870592783e-04
1.39333333333333e-01 1.18313750484667e-01 1.89763426002544e-04
1.64666666666667e-01 1.17635011856942e-01 2.05293153556186e-04
1.90000000000000e-01 1.16960166996908e-01 2.19376952578196e-04
2.15333333333333e-01 1.16289193563439e-01 2.32290897587285e-04
2.40666666666667e-01 1.15622069350610e-01 2.44229817652954e-04
2.66000000000000e-01 1.14958772275928e-01 2.55337718858502e-04
2.91333333333333e-01 1.14299280381539e-01 2.65724865565057e-04
3.16666666666667e-01 1.13643571840486e-01 2.75478074522868e-04
3.42000000000000e-01 1.12991624948326e-01 2.84667265692282e-04
3.67333333333333e-01 1.12343418123473e-01 2.93349815115513e-04
3.92666666666667e-01 1.11698929911921e-01 3.01573555397790e-04
4.18000000000000e-01 1.11058138980707e-01 3.09378905580754e-04
4.43333333333333e-01 1.10421024117878e-01 3.16800420234958e-04
4.68666666666667e-01 1.09787564236203e-01 3.23867943625532e-04
4.94000000000000e-01 1.09157738367804e-01 3.30607485018740e-04
5.19333333333333e-01 1.08531525663931e-01 3.37041892197491e-04
5.44666666666667e-01 1.07908905397959e-01 3.43191379887957e-04
5.70000000000000e-01 1.07289856960834e-01 3.49073948792798e-04
5.95333333333333e-01 1.06674359860728e-01 3.54705720487115e-04
6.20666666666667e-01 1.06062393725519e-01 3.60101210269243e-04
6.46000000000000e-01 1.05453938298825e-01 3.65273550609569e-04
6.71333333333333e-01 1.04848973439595e-01 3.70234674524901e-04
6.96666666666667e-01 1.04247479124182e-01 3.74995469476226e-04
7.22000000000000e-01 1.03649435442840e-01 3.79565906515121e-04
7.47333333333333e-01 1.03054822599260e-01 3.83955148249389e-04
7.72666666666667e-01 1.02463620912340e-01 3.88171641739714e-04
7.98000000000000e-01 1.01875810813031e-01 3.92223197962899e-04
8.23333333333333e-01 1.01291372843851e-01 3.96117059075382e-04
8.48666666666667e-01 1.00710287660398e-01 3.99859957590913e-04
8.74000000000000e-01 1.00132536028491e-01 4.03458167788530e-04
8.99333333333333e-01 9.95580988236610e-02 4.06917549553703e-04
9.24666666666667e-01 9.89869570324615e-02 4.10243587767556e-04
9.50000000000000e-01 9.84190917498438e-02 4.13441426962930e-04
9.75333333333333e-01 9.78544841786457e-02 4.16515900969415e-04
1.00066666666667e+00 9.72931156307218e-02 4.19471559807385e-04
1.02600000000000e+00 9.67349675261333e-02 4.22312695376771e-04
1.05133333333333e+00 9.61800213845701e-02 4.25043359397507e-04
1.07666666666667e+00 9.56282588424940e-02 4.27667384008479e-04
1.10200000000000e+00 9.50796616361682e-02 4.30188402107126e-04
1.12733333333333e+00 9.45342116018772e-02 4.32609856771155e-04
1.15266666666667e+00 9.39918906899484e-02 4.34935018134667e-04
1.17800000000000e+00 9.34526809491898e-02 4.37166998700227e-04
1.20333333333333e+00 9.29165645270110e-02 4.39308759048330e-04
1.22866666666667e+00 9.23835236822870e-02 4.41363121011786e-04
1.25400000000000e+00 9.18535407710186e-02 4.43332779713660e-04
1.27933333333333e+00 9.13265982463742e-02 4.45220306757427e-04
1.30466666666667e+00 9.08026786705394e-02 4.47028160772411e-04
1.33000000000000e+00 9.02817647014483e-02 4.48758697108990e-04
1.35533333333333e+00 8.97638390927610e-02 4.50414169289348e-04
1.38066666666667e+00 8.92488847048190e-02 4.51996737639210e-04
1.40600000000000e+00 8.87368844923206e-02 4.53508477266497e-04
1.43133333333333e+00 8.82278215042472e-02 4.54951378295329e-04
1.45666666666667e+00 8.77216788940226e-02 4.56327353073225e-04
1.48200000000000e+00 8.72184399080301e-02 4.57638242864819e-04
1.50733333333333e+00 8.67180878854939e-02 4.58885817226796e-04
1.53266666666667e+00 8.62206062679302e-02 4.60071780133108e-04
1.55800000000000e+00 8.57259785884140e-02 4.61197775687965e-04
1.58333333333333e+00 8.52341884714258e-02 4.62265386890945e-04
1.60866666666667e+00 8.47452196416647e-02 4.63276140925155e-04
1.63400000000000e+00 8.42590559139904e-02 4.64231514107944e-04
1.65933333333333e+00 8.37756811932411e-02 4.65132930222965e-04
1.68466666666667e+00 8.32950794824707e-02 4.65981765149703e-04
1.71000000000000e+00 8.28172348735008e-02 4.66779351211801e-04
1.73533333333333e+00 8.23421315467147e-02 4.67526975202947e-04
1.76066666666667e+00 8.18697537787733e-02 4.68225882489938e-04
1.78600000000000e+00 8.14000859337201e-02 4.68877280877848e-04
1.81133333333333e+00 8.09331124627553e-02 4.69482338421898e-04
1.83666666666667e+00 8.04688179114778e-02 4.70042187103381e-04
1.86200000000000e+00 8.00071869114943e-02 4.70557926301650e-04
1.88733333333333e+00 7.95482041801768e-02 4.71030620459968e-04
1.91266666666667e+00 7.90918545274712e-02 4.71461302410217e-04
1.93800000000000e+00 7.86381228479683e-02 4.71850976520427e-04
1.96333333333333e+00 7.81869941206473e-02 4.72200616264872e-04
1.98866666666667e+00 7.77384534152878e-02 4.72511167256365e-04
2.01400000000000e+00 7.72924858849642e-02 4.72783550122912e-04
2.03933333333333e+00 7.68490767657776e-02 4.73018658019569e-04
2.06466666666667e+00 7.64082113829039e-02 4.73217359414210e-04
2.09000000000000e+00 7.59698751434772e-02 4.73380500735431e-04
2.11533333333333e+00 7.55340535363135e-02 4.73508903854167e-04
2.14066666666667e+00 7.51007321376221e-02 4.73603368659577e-04
2.16600000000000e+00 7.46698966042493e-02 4.73664675511608e-04
2.19133333333333e+00 7.42415326733946e-02 4.73693582713545e-04
2.21666666666667e+00 7.38156261680121e-02 4.73690828907200e-04
2.24200000000000e+00 7.33921629903869e-02 4.73657135356933e-04
2.26733333333333e+00 7.29711291218457e-02 4.73593203429185e-04
2.29266666666667e+00 7.25525106278710e-02 4.73499716830618e-04
2.31800000000000e+00 7.21362936519869e-02 4.73377343745481e-04
2.34333333333333e+00 7.17224644154644e-02 4.73226734334049e-04
2.36866666666667e+00 7.13110092221699e-02 4.73048522833144e-04
2.39400000000000e+00 7.09019144527377e-02 4.72843329564701e-04
2.41933333333333e+00 7.04951665642729e-02 4.72611758462046e-04
2.44466666666667e+00 7.00907520949510e-02 4.72354399048817e-04
2.47000000000000e+00 6.96886576584596e-02 4.72071828333586e-04
2.49533333333333e+00 6.92888699436976e-02 4.71764608370757e-04
2.52066666666667e+00 6.88913757191446e-02 4.71433288131097e-04
2.54600000000000e+00 6.84961618275533e-02 4.71078405294754e-04
2.57133333333333e+00 6.81032151856462e-02 4.70700483851710e-04
2.59666666666667e+00 6.77125227882703e-02 4.70300035875208e-04
2.62200000000000e+00 6.73240717033229e-02 4.69877563223459e-04
2.64733333333333e+00 6.69378490714484e-02 4.69433555183143e-04
2.67266666666667e+00 6.65538421099910e-02 4.68968490155404e-04
2.69800000000000e+00 6.61720381081405e-02 4.68482837275016e-04
2.72333333333333e+00 6.57924244266280e-02 4.67977054099491e-04
2.74866666666667e+00 6.54149885014906e-02 4.67451588215501e-04
2.77400000000000e+00 6.50397178394237e-02 4.66906878783097e-04
2.79933333333333e+00 6.46666000174763e-02 4.66343354272282e-04
2.82466666666667e+00 6.42956226866393e-02 4.65761433996754e-04
2.85000000000000e+00 6.39267735673915e-02 4.65161529589596e-04
2.87533333333333e+00 6.35600404493955e-02 4.64544042788232e-04
2.90066666666667e+00 6.31954111949205e-02 4.63909366901718e-04
2.92600000000000e+00 6.28328737345702e-02 4.63257888223436e-04
2.95133333333333e+00 6.24724160669806e-02 4.62589983865000e-04
2.97666666666667e+00 6.21140262620859e-02 4.61906023162272e-04
3.00200000000000e+00 6.17576924570194e-02 4.61206369029923e-04
3.02733333333333e+00 6.14034028558120e-02 4.60491375844607e-04
3.05266666666667e+00 6.10511457325118e-02 4.59761390794156e-04
3.07800000000000e+00 6.07009094272475e-02 4.59016755178388e-04
3.10333333333333e+00 6.03526823459283e-02 4.58257802341205e-04
3.12866666666667e+00 6.00064529632254e-02 4.57484858967101e-04
3.15400000000000e+00 5.96622098187891e-02 4.56698246332032e-04
3.17933333333333e+00 5.93199415169507e-02 4.55898278284145e-04
3.20466666666667e+00 5.89796367295733e-02 4.55085262491155e-04
3.23000000000000e+00 5.86412841924147e-02 4.54259501644507e-04
3.25533333333333e+00 5.83048727048310e-02 4.53421291488233e-04
3.28066666666667e+00 5.79703911325049e-02 4.52570922020344e-04
3.30600000000000e+00 5.76378284039457e-02 4.51708678653270e-04
3.33133333333333e+00 5.73071735101957e-02 4.50834840290213e-04
3.35666666666667e+00 5.69784155074419e-02 4.49949680483461e-04
3.38200000000000e+00 5.66515435136469e-02 4.49053468553745e-04
3.40733333333333e+00 5.63265467082577e-02 4.48146467713195e-04
3.43266666666667e+00 5.60034143347071e-02 4.47228936183046e-04
3.45800000000000e+00 5.56821356971691e-02 4.46301128274525e-04
3.48333333333333e+00 5.53627001602701e-02 4.45363292557578e-04
3.50866666666667e+00 5.50450971514861e-02 4.44415672940287e-04
3.53400000000000e+00 5.47293161580159e-02 4.43458509713207e-04
3.55933333333333e+00 5.44153467264954e-02 4.42492037762995e-04
3.58466666666667e+00 5.41031784652955e-02 4.41516487615709e-04
3.61000000000000e+00 5.37928010415081e-02 4.40532086446729e-04
3.63533333333333e+00 5.34842041806630e-02 4.39539056338186e-04
3.66066666666667e+00 5.31773776689318e-02 4.38537615288025e-04
3.68600000000000e+00 5.28723113502210e-02 4.37527978187274e-04
3.71133333333333e+00 5.25689951258920e-02 4.36510355120297e-04
3.73666666666667e+00 5.22674189568756e-02 4.35484952341486e-04
3.76200000000000e+00 5.19675728608675e-02 4.34451973221392e-04
3.78733333333333e+00 5.16694469120508e-02 4.33411616588901e-04
3.81266666666667e+00 5.13730312431263e-02 4.32364077677051e-04
3.83800000000000e+00 5.10783160426047e-02 4.31309549039629e-04
3.86333333333333e+00 5.07852915545327e-02 4.30248218934143e-04
3.88866666666667e+00 5.04939480804427e-02 4.29180272238288e-04
3.91400000000000e+00 5.02042759767376e-02 4.28105891338506e-04
3.93933333333333e+00 4.99162656544202e-02 4.27025254552690e-04
3.96466666666667e+00 4.96299075809661e-02 4.25938537018588e-04
3.99000000000000e+00 4.93451922777977e-02 4.24845911555589e-04
4.01533333333333e+00 4.90621103200159e-02 4.23747547126224e-04
4.04066666666667e+00 4.87806523382010e-02 4.22643609697819e-04
4.06600000000000e+00 4.85008090159708e-02 4.21534263078601e-04
4.09133333333333e+00 4.82225710897158e-02 4.20419667416994e-04
4.11666666666667e+00 4.79459293503306e-02 4.19299980037740e-04
4.14200000000000e+00 4.76708746408530e-02 4.18175356253449e-04
4.16733333333333e+00 4.73973978562026e-02 4.17045947900793e-04
4.19266666666667e+00 4.71254899448457e-02 4.15911904152032e-04
4.21800000000000e+00 4.68551419065118e-02 4.14773372303060e-04
4.24333333333333e+00 4.65863447919365e-02 4.13630496345423e-04
4.26866666666667e+00 4.63190897044618e-02 4.12483417754488e-04
4.29400000000000e+00 4.60533677978283e-02 4.11332276254892e-04
4.31933333333333e+00 4.57891702759200e-02 4.10177208427444e-04
4.34466666666667e+00 4.55264883943056e-02 4.09018348474803e-04
4.37000000000000e+00 4.52653134581009e-02 4.07855828965253e-04
4.39533333333333e+00 4.50056368217174e-02 4.06689779473704e-04
4.42066666666667e+00 4.47474498903460e-02 4.05520327325588e-04
4.44600000000000e+00 4.44907441178874e-02 4.04347598319848e-04
4.47133333333333e+00 4.42355110067044e-02 4.03171715403057e-04
4.49666666666667e+00 4.39817421090503e-02 4.01992799392595e-04
4.52200000000000e+00 4.37294290250649e-02 4.00810969679566e-04
4.54733333333333e+00 4.34785634025298e-02 3.99626342935103e-04
4.57266666666667e+00 4.32291369382448e-02 3.98439033813527e-04
4.59800000000000e+00 4.29811413760861e-02 3.97249155636059e-04
4.62333333333333e+00 4.27345685067658e-02 3.96056819128480e-04
4.64866666666667e+00 4.24894101691569e-02 3.94862133104927e-04
4.67400000000000e+00 4.22456582484126e-02 3.93665205133133e-04
4.69933333333333e+00 4.20033046757290e-02 3.92466140302543e-04
4.72466666666667e+00 4.17623414296218e-02 3.91265041889617e-04
4.75000000000000e+00 4.15227605341037e-02 3.90062012005155e-04
4.77533333333333e+00 4.12845540584503e-02 3.88857150392068e-04
4.80066666666667e+00 4.10477141184310e-02 3.87650555072799e-04
4.82600000000000e+00 4.08122328745418e-02 3.86442322979370e-04
4.85133333333333e+00 4.05781025317748e-02 3.85232548780109e-04
4.87666666666667e+00 4.03453153408046e-02 3.84021325509756e-04
4.90200000000000e+00 4.01138635962752e-02 3.82808745182893e-04
4.92733333333333e+00 3.98837396365723e-02 3.81594897648738e-04
4.95266666666667e+00 3.96549358449679e-02 3.80379871204611e-04
4.97800000000000e+00 3.94274446479582e-02 3.79163753193292e-04
5.00333333333333e+00 3.92012585150398e-02 3.77946628885112e-04
5.02866666666667e+00 3.89763699598131e-02 3.76728582075442e-04
5.05400000000000e+00 3.87527715383707e-02 3.75509695666403e-04
5.07933333333333e+00 3.85304558490758e-02 3.74290050575622e-04
5.10466666666667e+00 3.83094155336277e-02 3.73069726318100e-04
5.13000000000000e+00 3.80896432754976e-02 3.71848801573017e-04
5.15533333333333e+00 3.78711317997101e-02 3.70627353118385e-04
5.18066666666667e+00 3.76538738738716e-02 3.69405456397786e-04
5.20600000000000e+00 3.74378623066520e-02 3.68183186072686e-04
5.23133333333333e+00 3.72230899475697e-02 3.66960614982283e-04
5.25666666666667e+00 3.70095496879842e-02 3.65737814695811e-04
5.28200000000000e+00 3.67972344596216e-02 3.64514856050676e-04
5.30733333333333e+00 3.65861372343637e-02 3.63291808136927e-04
5.33266666666667e+00 3.63762510252053e-02 3.62068738835405e-04
5.35800000000000e+00 3.61675688848234e-02 3.60845715342262e-04
5.38333333333333e+00 3.59600839053686e-02 3.59622803177416e-04
5.40866666666667e+00 3.57537892193905e-02 3.58400066709021e-04
5.43400000000000e+00 3.55486779984469e-02 3.57177569664858e-04
5.45933333333333e+00 3.53447434528994e-02 3.55955374163958e-04
5.48466666666667e+00 3.51419788328061e-02 3.54733541227917e-04
5.51000000000000e+00 3.49403774265719e-02 3.53512131279489e-04
5.53533333333333e+00 3.47399325607459e-02 3.52291203196900e-04
5.56066666666667e+00 3.45406376008848e-02 3.51070814812374e-04
5.58600000000000e+00 3.43424859502407e-02 3.49851023398305e-04
5.61133333333333e+00 3.41454710495622e-02 3.48631884743673e-04
5.63666666666667e+00 3.39495863779279e-02 3.47413453640132e-04
5.66200000000000e+00 3.37548254514720e-02 3.46195784356174e-04
5.68733333333333e+00 3.35611818231882e-02 3.44978929735033e-04
5.71266666666667e+00 3.33686490837349e-02 3.43762941668758e-04
5.73800000000000e+00 3.31772208601968e-02 3.42547871560725e-04
5.76333333333333e+00 3.29868908158915e-02 3.41333769444491e-04
5.78866666666667e+00 3.27976526511484e-02 3.40120684446186e-04
5.81400000000000e+00 3.26095001021039e-02 3.38908665235695e-04
5.83933333333333e+00 3.24224269405118e-02 3.37697759165929e-04
5.86466666666667e+00 3.22364269744954e-02 3.36488012723860e-04
5.89000000000000e+00 3.20514940473772e-02 3.35279471970788e-04
5.91533333333333e+00 3.18676220374913e-02 3.34072181701423e-04
5.94066666666667e+00 3.16848048589108e-02 3.32866185883926e-04
5.96600000000000e+00 3.15030364603099e-02 3.31661528089548e-04
5.99133333333333e+00 3.13223108247790e-02 3.30458250671052e-04
6.01666666666667e+00 3.11426219705284e-02 3.29256395192146e-04
6.04200000000000e+00 3.09639639497811e-02 3.28056002846677e-04
6.06733333333333e+00 3.07863308485913e-02 3.26857113655954e-04
6.09266666666667e+00 3.06097167875245e-02 3.25659766887811e-04
6.11800000000000e+00 3.04341159205806e-02 3.24464001465745e-04
6.14333333333333e+00 3.02595224350154e-02 3.23269855184639e-04
6.16866666666667e+00 3.00859305519984e-02 3.22077365119690e-04
6.19400000000000e+00 2.99133345255649e-02 3.20886568025864e-04
6.21933333333333e+00 2.97417286424405e-02 3.19697499571494e-04
6.24466666666667e+00 2.95711072226772e-02 3.18510194737429e-04
6.27000000000000e+00 2.94014646186340e-02 3.17324688206975e-04
6.29533333333333e+00 2.92327952148038e-02 3.16141013616936e-04
6.32066666666667e+00 2.90650934284294e-02 3.14959203947276e-04
6.34600000000000e+00 2.88983537085109e-02 3.13779291901853e-04
6.37133333333333e+00 2.87325705356357e-02 3.12601309176460e-04
6.39666666666667e+00 2.85677384225740e-02 3.11425286839232e-04
6.42200000000000e+00 2.84038519133136e-02 3.10251255702376e-04
6.44733333333333e+00 2.82409055828915e-02 3.09079245606808e-04
6.47266666666667e+00 2.80788940379715e-02 3.07909285793640e-04
6.49800000000000e+00 2.79178119159030e-02 3.06741405267136e-04
6.52333333333333e+00 2.77576538845570e-02 3.05575632095514e-04
6.54866666666667e+00 2.75984146428834e-02 3.04411993773666e-04
6.57400000000000e+00 2.74400889199965e-02 3.03250517577633e-04
6.59933333333333e+00 2.72826714750120e-02 3.02091229881215e-04
6.62466666666667e+00 2.71261570975874e-02 3.00934156510177e-04
6.65000000000000e+00 2.69705406070311e-02 2.99779323088424e-04
6.67533333333333e+00 2.68158168521422e-02 2.98626754370001e-04
6.70066666666667e+00 2.66619807117339e-02 2.97476474585001e-04
6.72600000000000e+00 2.65090270937652e-02 2.96328507777752e-04
6.75133333333333e+00 2.63569509351840e-02 2.95182877153791e-04
6.77666666666667e+00 2.62057472024334e-02 2.94039605417692e-04
6.80200000000000e+00 2.60554108906063e-02 2.92898715103461e-04
6.82733333333333e+00 2.59059370232909e-02 2.91760227936094e-04
6.85266666666667e+00 2.57573206530607e-02 2.90624165161625e-04
6.87800000000000e+00 2.56095568606514e-02 2.89490547869858e-04
6.90333333333333e+00 2.54626407548089e-02 2.88359396370170e-04
6.92866666666667e+00 2.53165674727634e-02 2.87230730513948e-04
6.95400000000000e+00 2.51713321794280e-02 2.86104570009918e-04
6.97933333333333e+00 2.50269300672488e-02 2.84980933813861e-04
7.00466666666667e+00 2.48833563566644e-02 2.83859840443607e-04
7.03000000000000e+00 2.47406062953247e-02 2.82741308287121e-04
7.05533333333333e+00 2.45986751579437e-02 2.81625355005796e-04
7.08066666666667e+00 2.44575582467445e-02 2.80511997842252e-04
7.10600000000000e+00 2.43172508906984e-02 2.79401253921392e-04
7.13133333333333e+00 2.41777484453791e-02 2.78293139666884e-04
7.15666666666667e+00 2.40390462933951e-02 2.77187671101893e-04
7.18200000000000e+00 2.39011398436471e-02 2.76084864143321e-04
7.20733333333333e+00 2.37640245311853e-02 2.74984734031217e-04
7.23266666666667e+00 2.36276958176279e-02 2.73887295622655e-04
7.25800000000000e+00 2.34921491904371e-02 2.72792563679254e-04
7.28333333333333e+00 2.33573801627799e-02 2.71700552309212e-04
7.30866666666667e+00 2.32233842739317e-02 2.70611275254498e-04
7.33400000000000e+00 2.30901570885728e-02 2.69524746171857e-04
7.35933333333333e+00 2.29576941966492e-02 2.68440978087177e-04
7.38466666666667e+00 2.28259912137656e-02 2.67359983676129e-04
7.41000000000000e+00 2.26950437804983e-02 2.66281775538834e-04
7.43533333333333e+00 2.25648475622590e-02 2.65206365666215e-04
7.46066666666667e+00 2.24353982496753e-02 2.64133765714335e-04
7.48600000000000e+00 2.23066915579209e-02 2.63063987272854e-04
7.51133333333333e+00 2.21787232265818e-02 2.61997041343109e-04
7.53666666666667e+00 2.20514890200247e-02 2.60932938606251e-04
7.56200000000000e+00 2.19249847267444e-02 2.59871689685687e-04
7.58733333333333e+00 2.17992061592316e-02 2.58813304636581e-04
7.61266666666667e+00 2.16741491543307e-02 2.57757793207947e-04
7.63800000000000e+00 2.15498095726025e-02 2.56705165099274e-04
7.66333333333333e+00 2.14261832981952e-02 2.55655429461101e-04
7.68866666666667e+00 2.13032662391905e-02 2.54608595151296e-04
7.71400000000000e+00 2.11810543269823e-02 2.53564670985961e-04
7.73933333333333e+00 2.10595435161498e-02 2.52523665250869e-04
7.76466666666667e+00 2.09387297847931e-02 2.51485585952005e-04
7.79000000000000e+00 2.08186091339272e-02 2.50450441060881e-04
7.81533333333333e+00 2.06991775873571e-02 2.49418238036635e-04
7.84066666666667e+00 2.05804311920030e-02 2.48388984070985e-04
7.86600000000000e+00 2.04623660173099e-02 2.47362686328069e-04
7.89133333333333e+00 2.03449781551237e-02 2.46339351476954e-04
7.91666666666667e+00 2.02282637200075e-02 2.45318985931146e-04
7.94200000000000e+00 2.01122188486649e-02 2.44301596083064e-04
7.96733333333333e+00 1.99968396998187e-02 2.43287187846716e-04
7.99266666666667e+00 1.98821224545173e-02 2.42275766891916e-04
