Energy (eV)          EEDF (eV^-(3/2))     First Anisotropy
1.81967213114754e-03 2.19022455528197e+00 1.03374384530910e-03
5.45901639344262e-03 2.17783280765584e+00 1.70791768779651e-03
9.09836065573771e-03 2.16551116948798e+00 2.25706428573324e-03
1.27377049180328e-02 2.15325924407523e+00 2.67573120216242e-03
1.63770491803279e-02 2.14107663707377e+00 3.02612857601876e-03
2.00163934426230e-02 2.12896295621702e+00 3.33173558452737e-03
2.36557377049180e-02 2.11691781154216e+00 3.60468230280537e-03
2.72950819672131e-02 2.10494081534099e+00 3.85228172458146e-03
3.09344262295082e-02 2.09303158200027e+00 4.07937609323353e-03
3.45737704918033e-02 2.08118972813568e+00 4.28938227555610e-03
3.82131147540984e-02 2.06941487256644e+00 4.48482555119168e-03
4.18524590163934e-02 2.05770663620021e+00 4.66763931836483e-03
4.54918032786885e-02 2.04606464214896e+00 4.83934568256081e-03
4.91311475409836e-02 2.03448851560495e+00 5.00117037407101e-03
5.27704918032787e-02 2.02297788390684e+00 5.15411912268717e-03
5.64098360655738e-02 2.01153237652252e+00 5.29903029435040e-03
6.00491803278689e-02 2.00015162497457e+00 5.43661223564435e-03
6.36885245901639e-02 1.98883526289088e+00 5.56747045976312e-03
6.73278688524590e-02 1.97758292598955e+00 5.69212789276582e-03
7.09672131147541e-02 1.96639425201509e+00 5.81104020901689e-03
7.46065573770492e-02 1.95526888079356e+00 5.92460766340503e-03
7.82459016393443e-02 1.94420645415918e+00 6.03318435183114e-03
8.18852459016393e-02 1.93320661598733e+00 6.13708554430775e-03
8.55245901639344e-02 1.92226901218111e+00 6.23659358524997e-03
8.91639344262295e-02 1.91139329062135e+00 6.33196266429952e-03
9.28032786885246e-02 1.90057910119380e+00 6.42342272194798e-03
9.64426229508197e-02 1.88982609577640e+00 6.51118269019945e-03
1.00081967213115e-01 1.87913392819408e+00 6.59543317235746e-03
1.03721311475410e-01 1.86850225428088e+00 6.67634872496232e-03
1.07360655737705e-01 1.85793073167100e+00 6.75408972259114e-03
1.11000000000000e-01 1.84741902014181e+00 6.82880399567845e-03
1.14639344262295e-01 1.83696678129445e+00 6.90062825538788e-03
1.18278688524590e-01 1.82657367864497e+00 6.96968925247968e-03
1.21918032786885e-01 1.81623937753210e+00 7.03610478317860e-03
1.25557377049180e-01 1.80596354535550e+00 7.09998461171742e-03
1.29196721311475e-01 1.79574585131030e+00 7.16143127766184e-03
1.32836065573771e-01 1.78558596646378e+00 7.22054075098845e-03
1.36475409836066e-01 1.77548356367337e+00 7.27740301088189e-03
1.40114754098361e-01 1.76543831779298e+00 7.33210260212340e-03
1.43754098360656e-01 1.75544990544115e+00 7.38471913015804e-03
1.47393442622951e-01 1.74551800506673e+00 7.43532765293899e-03
1.51032786885246e-01 1.73564229687523e+00 7.48399903274427e-03
1.54672131147541e-01 1.72582246300944e+00 7.53080029313322e-03
1.58311475409836e-01 1.71605818734479e+00 7.57579495180820e-03
1.61950819672131e-01 1.70634915548794e+00 7.61904322213536e-03
1.65590163934426e-01 1.69669505494237e+00 7.66060229019024e-03
1.69229508196721e-01 1.68709557491936e+00 7.70052655611967e-03
1.72868852459016e-01 1.67755040638840e+00 7.73886780957176e-03
1.76508196721311e-01 1.66805924201595e+00 7.77567539110398e-03
1.80147540983607e-01 1.65862177631281e+00 7.81099637747805e-03
1.83786885245902e-01 1.64923770546433e+00 7.84487575204612e-03
1.87426229508197e-01 1.63990672737480e+00 7.87735651996531e-03
1.91065573770492e-01 1.63062854161119e+00 7.90847981561555e-03
1.94704918032787e-01 1.62140284953527e+00 7.93828503721080e-03
1.98344262295082e-01 1.61222935414994e+00 7.96680997171086e-03
2.01983606557377e-01 1.60310776013859e+00 7.99409087178342e-03
2.05622950819672e-01 1.59403777381323e+00 8.02016252855066e-03
2.09262295081967e-01 1.58501910323350e+00 8.04505837276351e-03
2.12901639344262e-01 1.57605145806691e+00 8.06881056945602e-03
2.16540983606557e-01 1.56713454962378e+00 8.09145006981047e-03
2.20180327868852e-01 1.55826809080923e+00 8.11300666093096e-03
2.23819672131148e-01 1.54945179623106e+00 8.13350904419863e-03
2.27459016393443e-01 1.54068538207178e+00 8.15298491722011e-03
2.31098360655738e-01 1.53196856608356e+00 8.17146097629373e-03
2.34737704918033e-01 1.52330106768922e+00 8.18896299118371e-03
2.38377049180328e-01 1.51468260786157e+00 8.20551586764300e-03
2.42016393442623e-01 1.50611290915203e+00 8.22114367304574e-03
2.45655737704918e-01 1.49759169564850e+00 8.23586966188127e-03
2.49295081967213e-01 1.48911869306763e+00 8.24971632922163e-03
2.52934426229508e-01 1.48069362864355e+00 8.26270546164895e-03
2.56573770491803e-01 1.47231623115360e+00 8.27485815399059e-03
2.60213114754098e-01 1.46398623087898e+00 8.28619482646236e-03
2.63852459016393e-01 1.45570335968923e+00 8.29673526888739e-03
2.67491803278689e-01 1.44746735093928e+00 8.30649868303909e-03
2.71131147540984e-01 1.43927793949268e+00 8.31550369306023e-03
2.74770491803279e-01 1.43113486168471e+00 8.32376835663271e-03
2.78409836065574e-01 1.42303785539998e+00 8.33131020223460e-03
2.82049180327869e-01 1.41498665997686e+00 8.33814626498964e-03
2.85688524590164e-01 1.40698101622854e+00 8.34429309254780e-03
2.89327868852459e-01 1.39902066640831e+00 8.34976675192042e-03
2.92967213114754e-01 1.39110535428108e+00 8.35458286139139e-03
2.96606557377049e-01 1.38323482503440e+00 8.35875662774460e-03
3.00245901639344e-01 1.37540882527249e+00 8.36230282327408e-03
3.03885245901639e-01 1.36762710308399e+00 8.36523582140710e-03
3.07524590163934e-01 1.35988940795711e+00 8.36756962463313e-03
3.11163934426230e-01 1.35219549079734e+00 8.36931786508733e-03
3.14803278688525e-01 1.34454510389620e+00 8.37049380627778e-03
3.18442622950820e-01 1.33693800099395e+00 8.37111036837113e-03
3.22081967213115e-01 1.32937393720022e+00 8.37118015278484e-03
3.25721311475410e-01 1.32185266901013e+00 8.37071544087190e-03
3.29360655737705e-01 1.31437395427474e+00 8.36972819377812e-03
3.33000000000000e-01 1.30693755225926e+00 8.36823007488948e-03
3.36639344262295e-01 1.29954322356856e+00 8.36623247173163e-03
3.40278688524590e-01 1.29219073016198e+00 8.36374649325784e-03
3.43918032786885e-01 1.28487983532526e+00 8.36078296831912e-03
3.47557377049180e-01 1.27761030372467e+00 8.35735246578855e-03
3.51196721311475e-01 1.27038190133703e+00 8.35346531425174e-03
3.54836065573771e-01 1.26319439546327e+00 8.34913159827434e-03
3.58475409836066e-01 1.25604755470177e+00 8.34436115583741e-03
3.62114754098361e-01 1.24894114899874e+00 8.33916359653691e-03
3.65754098360656e-01 1.24187494958242e+00 8.33354831944057e-03
3.69393442622951e-01 1.23484872897546e+00 8.32752450861056e-03
3.73032786885246e-01 1.22786226096957e+00 8.32110112976924e-03
3.76672131147541e-01 1.22091532067253e+00 8.31428694688440e-03
3.80311475409836e-01 1.21400768444615e+00 8.30709054343526e-03
3.83950819672131e-01 1.20713912990043e+00 8.29952029757431e-03
3.87590163934426e-01 1.20030943593826e+00 8.29158440300066e-03
3.91229508196721e-01 1.19351838269597e+00 8.28329088433570e-03
3.94868852459016e-01 1.18676575155375e+00 8.27464759174010e-03
3.98508196721311e-01 1.18005132511258e+00 8.26566219662862e-03
4.02147540983607e-01 1.17337488723609e+00 8.25634220606189e-03
4.05786885245902e-01 1.16673622299424e+00 8.24669497694321e-03
4.09426229508197e-01 1.16013511867303e+00 8.23672771035619e-03
4.13065573770492e-01 1.15357136175236e+00 8.22644744696624e-03
4.16704918032787e-01 1.14704474094531e+00 8.21586108035307e-03
4.20344262295082e-01 1.14055504614481e+00 8.20497537018486e-03
4.23983606557377e-01 1.13410206843254e+00 8.19379693637834e-03
4.27622950819672e-01 1.12768560005782e+00 8.18233225427943e-03
4.31262295081967e-01 1.12130543447440e+00 8.17058766707461e-03
4.34901639344262e-01 1.11496136628993e+00 8.15856939806985e-03
4.38540983606557e-01 1.10865319127419e+00 8.14628354474489e-03
4.42180327868852e-01 1.10238070633882e+00 8.13373607379639e-03
4.45819672131148e-01 1.09614370957192e+00 8.12093283273117e-03
4.49459016393443e-01 1.08994200019010e+00 8.10787956544810e-03
4.53098360655738e-01 1.08377537853290e+00 8.09458188986634e-03
4.56737704918033e-01 1.07764364609589e+00 8.08104531335635e-03
4.60377049180328e-01 1.07154660548439e+00 8.06727524374561e-03
4.64016393442623e-01 1.06548406042054e+00 8.05327698327181e-03
4.67655737704918e-01 1.05945581572462e+00 8.03905572346292e-03
4.71295081967213e-01 1.05346167734613e+00 8.02461655556903e-03
4.74934426229508e-01 1.04750145231990e+00 8.00996448092231e-03
4.78573770491803e-01 1.04157494877247e+00 7.99510440492037e-03
4.82213114754098e-01 1.03568197590427e+00 7.98004113189522e-03
4.85852459016393e-01 1.02982234401887e+00 7.96477937495018e-03
4.89491803278689e-01 1.02399586448114e+00 7.94932376573703e-03
4.93131147540984e-01 1.01820234972323e+00 7.93367884849352e-03
4.96770491803279e-01 1.01244161322739e+00 7.91784907493698e-03
5.00409836065574e-01 1.00671346955356e+00 7.90183881355924e-03
5.04049180327869e-01 1.00101773429953e+00 7.88565235887694e-03
5.07688524590164e-01 9.95354224106422e-01 7.86929392554924e-03
5.11327868852459e-01 9.89722756642201e-01 7.85276764331250e-03
5.14967213114754e-01 9.84123150627698e-01 7.83607756578697e-03
5.18606557377049e-01 9.78555225798631e-01 7.81922768266575e-03
5.22245901639344e-01 9.73018802900456e-01 7.80222190022927e-03
5.25885245901639e-01 9.67513703713327e-01 7.78506405346014e-03
5.29524590163934e-01 9.62039751015381e-01 7.76775791451824e-03
5.33163934426230e-01 9.56596768587413e-01 7.75030718699335e-03
5.36803278688525e-01 9.51184581197575e-01 7.73271550092326e-03
5.40442622950820e-01 9.45803014624934e-01 7.71498642087741e-03
5.44081967213115e-01 9.40451895624425e-01 7.69712345401649e-03
5.47721311475410e-01 9.35131051931156e-01 7.67913004446040e-03
5.51360655737705e-01 9.29840312245679e-01 7.66100956839146e-03
5.55000000000000e-01 9.24579506256263e-01 7.64276534175006e-03
5.58639344262295e-01 9.19348464605404e-01 7.62440062791276e-03
5.62278688524590e-01 9.14147018893786e-01 7.60591863218384e-03
5.65918032786885e-01 9.08975001666103e-01 7.58732249699173e-03
5.69557377049180e-01 9.03832246432123e-01 7.56861530922491e-03
5.73196721311475e-01 8.98718587634668e-01 7.54980010755686e-03
5.76836065573771e-01 8.93633860653253e-01 7.53087987706607e-03
5.80475409836066e-01 8.88577901790437e-01 7.51185754453035e-03
5.84114754098361e-01 8.83550548291751e-01 7.49273598543170e-03
5.87754098360656e-01 8.78551638315065e-01 7.47351803095440e-03
5.91393442622951e-01 8.73581010933930e-01 7.45420646273266e-03
5.95032786885246e-01 8.68638506124427e-01 7.43480400824884e-03
5.98672131147541e-01 8.63723964784036e-01 7.41531334752837e-03
6.02311475409836e-01 8.58837228702312e-01 7.39573712261990e-03
6.05950819672131e-01 8.53978140556256e-01 7.37607792132025e-03
6.09590163934426e-01 8.49146543928454e-01 7.35633828661578e-03
6.13229508196721e-01 8.44342283278661e-01 7.33652072318438e-03
6.16868852459016e-01 8.39565203946629e-01 7.31662769234788e-03
6.20508196721312e-01 8.34815152139815e-01 7.29666160763150e-03
6.24147540983607e-01 8.30091974950580e-01 7.27662484099469e-03
6.27786885245902e-01 8.25395520328949e-01 7.25651972906137e-03
6.31426229508197e-01 8.20725637085205e-01 7.23634856820361e-03
6.35065573770492e-01 8.16082174878029e-01 7.21611361021302e-03
6.38704918032787e-01 8.11464984230808e-01 7.19581706827143e-03
6.42344262295082e-01 8.06873916505517e-01 7.17546112292505e-03
6.45983606557377e-01 8.02308823905094e-01 7.15504791730221e-03
6.49622950819672e-01 7.97769559461984e-01 7.13457955289308e-03
6.53262295081967e-01 7.93255977053624e-01 7.11405809527711e-03
6.56901639344262e-01 7.88767931377376e-01 7.09348557985994e-03
6.60540983606557e-01 7.84305277952699e-01 7.07286400721928e-03
6.64180327868853e-01 7.79867873110092e-01 7.05219533899317e-03
6.67819672131148e-01 7.75455574005783e-01 7.03148150338159e-03
6.71459016393443e-01 7.71068238597678e-01 7.01072440302253e-03
6.75098360655738e-01 7.66705725641135e-01 6.98992590098128e-03
6.78737704918033e-01 7.62367894703124e-01 6.96908782860267e-03
6.82377049180328e-01 7.58054606138862e-01 6.94821199087742e-03
6.86016393442623e-01 7.53765721093638e-01 6.92730016199362e-03
6.89655737704918e-01 7.49501101492427e-01 6.90635408139458e-03
6.93295081967213e-01 7.45260610053335e-01 6.88537545892894e-03
6.96934426229508e-01 7.41044110265162e-01 6.86436598001301e-03
7.00573770491803e-01 7.36851466389056e-01 6.84332730130605e-03
7.04213114754098e-01 7.32682543448471e-01 6.82226104687470e-03
7.07852459016393e-01 7.28537207241951e-01 6.80116881314931e-03
7.11491803278689e-01 7.24415324321562e-01 6.78005217388832e-03
7.15131147540984e-01 7.20316761994390e-01 6.75891267597766e-03
7.18770491803279e-01 7.16241388312836e-01 6.73775183570158e-03
7.22409836065574e-01 7.12189072086762e-01 6.71657114351015e-03
7.26049180327869e-01 7.08159682862763e-01 6.69537206880114e-03
7.29688524590164e-01 7.04153090925512e-01 6.67415605583825e-03
7.33327868852459e-01 7.00169167288380e-01 6.65292452012498e-03
7.36967213114754e-01 6.96207783704983e-01 6.63167885299518e-03
7.40606557377049e-01 6.92268812649247e-01 6.61042042824538e-03
7.44245901639344e-01 6.88352127311569e-01 6.58915059005850e-03
7.47885245901639e-01 6.84457601609965e-01 6.56787065961302e-03
7.51524590163934e-01 6.80585110170676e-01 6.54658193958018e-03
7.55163934426230e-01 6.76734528329275e-01 6.52528571022996e-03
7.58803278688525e-01 6.72905732121821e-01 6.50398322596395e-03
7.62442622950820e-01 6.69098598295471e-01 6.48267571963367e-03
7.66081967213115e-01 6.65313004289813e-01 6.46136440687510e-03
7.69721311475410e-01 6.61548828237848e-01 6.44005048232736e-03
7.73360655737705e-01 6.57805948957440e-01 6.41873511626261e-03
7.77000000000000e-01 6.54084245961406e-01 6.39741945875025e-03
7.80639344262295e-01 6.50383599439547e-01 6.37610464383673e-03
7.84278688524590e-01 6.46703890259525e-01 6.35479178587498e-03
7.87918032786885e-01 6.43044999958575e-01 6.33348197624932e-03
7.91557377049180e-01 6.39406810753121e-01 6.31217628739149e-03
7.95196721311475e-01 6.35789205521466e-01 6.29087577681442e-03
7.98836065573771e-01 6.32192067804563e-01 6.26958148354789e-03
8.02475409836066e-01 6.28615281797995e-01 6.24829442495531e-03
8.06114754098361e-01 6.25058732361129e-01 6.22701560061119e-03
8.09754098360656e-01 6.21522305000439e-01 6.20574599619304e-03
8.13393442622951e-01 6.18005885870184e-01 6.18448658001984e-03
8.17032786885246e-01 6.14509361764636e-01 6.16323829996182e-03
8.20672131147541e-01 6.11032620126802e-01 6.14200208718136e-03
8.24311475409836e-01 6.07575549032355e-01 6.12077886157587e-03
8.27950819672131e-01 6.04138037186234e-01 6.09956952167109e-03
8.31590163934426e-01 6.00719973931069e-01 6.07837495004820e-03
8.35229508196721e-01 5.97321249231529e-01 6.05719601701545e-03
8.38868852459016e-01 5.93941753674836e-01 6.03603357731137e-03
8.42508196721311e-01 5.90581378463423e-01 6.01488846715464e-03
8.46147540983607e-01 5.87240015422964e-01 5.99376150777483e-03
8.49786885245902e-01 5.83917556987285e-01 5.97265350896152e-03
8.53426229508197e-01 5.80613896198796e-01 5.95156526586251e-03
8.57065573770492e-01 5.77328926701377e-01 5.93049755611747e-03
8.60704918032787e-01 5.74062542748034e-01 5.90945114327051e-03
8.64344262295082e-01 5.70814639186341e-01 5.88842678019901e-03
8.67983606557377e-01 5.67585111458803e-01 5.86742520600577e-03
8.71622950819672e-01 5.64373855595958e-01 5.84644714323376e-03
8.75262295081967e-01 5.61180768223678e-01 5.82549330116458e-03
8.78901639344262e-01 5.58005746549122e-01 5.80456437913373e-03
8.82540983606557e-01 5.54848688361034e-01 5.78366106351189e-03
8.86180327868852e-01 5.51709492023049e-01 5.76278402500015e-03
8.89819672131148e-01 5.48588056480663e-01 5.74193392181901e-03
8.93459016393443e-01 5.45484281247672e-01 5.72111140436634e-03
8.97098360655738e-01 5.42398066403110e-01 5.70031710646662e-03
9.00737704918033e-01 5.39329312597970e-01 5.67955165001547e-03
9.04377049180328e-01 5.36277921042001e-01 5.65881564811545e-03
9.08016393442623e-01 5.33243793503882e-01 5.63810970220036e-03
9.11655737704918e-01 5.30226832304892e-01 5.61743439945443e-03
9.15295081967213e-01 5.27226940325329e-01 5.59679031582911e-03
9.18934426229508e-01 5.24244020991764e-01 5.57617801907537e-03
9.22573770491803e-01 5.21277978277155e-01 5.55559806595182e-03
9.26213114754098e-01 5.18328716694709e-01 5.53505099971904e-03
9.29852459016393e-01 5.15396141304009e-01 5.51453735305628e-03
9.33491803278689e-01 5.12480157698701e-01 5.49405765099607e-03
9.37131147540984e-01 5.09580672006560e-01 5.47361240821448e-03
9.40770491803279e-01 5.06697590883531e-01 5.45320212659430e-03
9.44409836065574e-01 5.03830821519583e-01 5.43282729804934e-03
9.48049180327869e-01 5.00980271626809e-01 5.41248840736572e-03
9.51688524590164e-01 4.98145849439446e-01 5.39218592956714e-03
9.55327868852459e-01 4.95327463708095e-01 5.37192032754979e-03
9.58967213114754e-01 4.92525023705306e-01 5.35169205481602e-03
9.62606557377049e-01 4.89738439214082e-01 5.33150155948000e-03
9.66245901639344e-01 4.86967620525105e-01 5.31134927667627e-03
9.69885245901639e-01 4.84212478442140e-01 5.29123563255283e-03
9.73524590163934e-01 4.81472924270823e-01 5.27116104696171e-03
9.77163934426230e-01 4.78748869818596e-01 5.25112593095121e-03
9.80803278688525e-01 4.76040227389231e-01 5.23113068450976e-03
9.84442622950820e-01 4.73346909787986e-01 5.21117569915429e-03
9.88081967213115e-01 4.70668830310768e-01 5.19126136053662e-03
9.91721311475410e-01 4.68005902744033e-01 5.17138804600721e-03
9.95360655737705e-01 4.65358041359467e-01 5.15155612242363e-03
9.99000000000000e-01 4.62725160918910e-01 5.13176594633223e-03
1.00263934426230e+00 4.60107176668872e-01 5.11201788044449e-03
1.00627868852459e+00 4.57504004310459e-01 5.09231225990385e-03
1.00991803278689e+00 4.54915560066524e-01 5.07264941220028e-03
1.01355737704918e+00 4.52341760608804e-01 5.05302968975446e-03
1.01719672131148e+00 4.49782523056472e-01 5.03345340292466e-03
1.02083606557377e+00 4.47237765045989e-01 5.01392086593181e-03
1.02447540983607e+00 4.44707404631855e-01 4.99443238636775e-03
1.02811475409836e+00 4.42191360379743e-01 4.97498826414774e-03
1.03175409836066e+00 4.39689551268916e-01 4.95558879275541e-03
1.03539344262295e+00 4.37201896783781e-01 4.93623424738920e-03
1.03903278688525e+00 4.34728316840750e-01 4.91692492954347e-03
1.04267213114754e+00 4.32268731786807e-01 4.89766110113173e-03
1.04631147540984e+00 4.29823062464950e-01 4.87844302808071e-03
1.04995081967213e+00 4.27391230121056e-01 4.85927097036118e-03
1.05359016393443e+00 4.24973156491168e-01 4.84014518099144e-03
1.05722950819672e+00 4.22568763709903e-01 4.82106590721254e-03
1.06086885245902e+00 4.20177974396275e-01 4.80203337922999e-03
1.06450819672131e+00 4.17800711585024e-01 4.78304785253969e-03
1.06814754098361e+00 4.15436898725218e-01 4.76410954536843e-03
1.07178688524590e+00 4.13086459741577e-01 4.74521868006882e-03
1.07542622950820e+00 4.10749318947045e-01 4.72637547364361e-03
1.07906557377049e+00 4.08425401124627e-01 4.70758013679826e-03
1.08270491803279e+00 4.06114631441391e-01 4.68883287505069e-03
1.08634426229508e+00 4.03816935528941e-01 4.67013387803493e-03
1.08998360655738e+00 4.01532239418928e-01 4.65148335969913e-03
1.09362295081967e+00 3.99260469541661e-01 4.63288149887875e-03
1.09726229508197e+00 3.97001552783637e-01 4.61432847861430e-03
1.10090163934426e+00 3.94755416405393e-01 4.59582447714437e-03
1.10454098360656e+00 3.92521988118298e-01 4.57736966700337e-03
1.10818032786885e+00 3.90301196003746e-01 4.55896421606958e-03
1.11181967213115e+00 3.88092968588673e-01 4.54060827740204e-03
1.11545901639344e+00 3.85897234784939e-01 4.52230202742594e-03
1.11909836065574e+00 3.83713923887976e-01 4.50404560946829e-03
1.12273770491803e+00 3.81542965630765e-01 4.48583917111356e-03
1.12637704918033e+00 3.79384290106627e-01 4.46768285563794e-03
1.13001639344262e+00 3.77237827841306e-01 4.44957680115094e-03
1.13365573770492e+00 3.75103509717005e-01 4.43152114158809e-03
1.13729508196721e+00 3.72981267043288e-01 4.41351599704735e-03
1.14093442622951e+00 3.70871031500077e-01 4.39556151007681e-03
1.14457377049180e+00 3.68772735136327e-01 4.37765779201134e-03
1.14821311475410e+00 3.66686310420701e-01 4.35980495846861e-03
