Energy (eV)          EEDF (eV^-(3/2))     First Anisotropy
5.29347826086957e-03 6.70755707746609e-01 3.67883359647879e-04
1.58804347826087e-02 6.65741382470999e-01 6.07250799121485e-04
2.64673913043478e-02 6.60764542466470e-01 8.01032934369804e-04
3.70543478260870e-02 6.55824907490239e-01 9.47881858829674e-04
4.76413043478261e-02 6.50922199430723e-01 1.07005078396227e-03
5.82282608695652e-02 6.46056142232906e-01 1.17596074327457e-03
6.88152173913043e-02 6.41226461907107e-01 1.26997325683940e-03
7.94021739130435e-02 6.36432886506331e-01 1.35472425411177e-03
8.99891304347826e-02 6.31675146130528e-01 1.43196332883664e-03
1.00576086956522e-01 6.26952972889647e-01 1.50292803920025e-03
1.11163043478261e-01 6.22266100904381e-01 1.56853521489546e-03
1.21750000000000e-01 6.17614266246709e-01 1.62948847288029e-03
1.32336956521739e-01 6.12997207029712e-01 1.68634307293197e-03
1.42923913043478e-01 6.08414663248947e-01 1.73954721695681e-03
1.53510869565217e-01 6.03866376912020e-01 1.78946952924203e-03
1.64097826086957e-01 5.99352091892812e-01 1.83641800723691e-03
1.74684782608696e-01 5.94871554037311e-01 1.88065348311711e-03
1.85271739130435e-01 5.90424511038432e-01 1.92239943533990e-03
1.95858695652174e-01 5.86010712524537e-01 1.96184929418448e-03
2.06445652173913e-01 5.81629909949718e-01 1.99917198867846e-03
2.17032608695652e-01 5.77281856669143e-01 2.03451622612109e-03
2.27619565217391e-01 5.72966307841402e-01 2.06801384561072e-03
2.38206521739130e-01 5.68683020493495e-01 2.09978247822527e-03
2.48793478260870e-01 5.64431753432860e-01 2.12992768672542e-03
2.59380434782609e-01 5.60212267287796e-01 2.15854469150563e-03
2.69967391304348e-01 5.56024324492449e-01 2.18571980494406e-03
2.80554347826087e-01 5.51867689224291e-01 2.21153159902864e-03
2.91141304347826e-01 5.47742127454729e-01 2.23605188703070e-03
3.01728260869565e-01 5.43647406875174e-01 2.25934654725812e-03
3.12315217391304e-01 5.39583296941834e-01 2.28147621862194e-03
3.22902173913043e-01 5.35549568807512e-01 2.30249689360333e-03
3.33489130434783e-01 5.31545995361485e-01 2.32246042493969e-03
3.44076086956522e-01 5.27572351166232e-01 2.34141496269766e-03
3.54663043478261e-01 5.23628412493100e-01 2.35940533157946e-03
3.65250000000000e-01 5.19713957263325e-01 2.37647335978814e-03
3.75836956521739e-01 5.15828765080066e-01 2.39265816543795e-03
3.86423913043478e-01 5.11972617173177e-01 2.40799640851068e-03
3.97010869565217e-01 5.08145296428094e-01 2.42252251197458e-03
4.07597826086957e-01 5.04346587333921e-01 2.43626885792664e-03
4.18184782608696e-01 5.00576276009558e-01 2.44926596088502e-03
4.28771739130435e-01 4.96834150154740e-01 2.46154262267138e-03
4.39358695652174e-01 4.93119999073728e-01 2.47312607005371e-03
4.49945652173913e-01 4.89433613629007e-01 2.48404207862063e-03
4.60532608695652e-01 4.85774786262807e-01 2.49431508343476e-03
4.71119565217391e-01 4.82143310953201e-01 2.50396827925439e-03
4.81706521739130e-01 4.78538983233694e-01 2.51302371046397e-03
4.92293478260870e-01 4.74961600151494e-01 2.52150235422128e-03
5.02880434782609e-01 4.71410960278400e-01 2.52942418943080e-03
5.13467391304348e-01 4.67886863698998e-01 2.53680827158544e-03
5.24054347826087e-01 4.64389111978411e-01 2.54367278930192e-03
5.34641304347826e-01 4.60917508178738e-01 2.55003512140572e-03
5.45228260869565e-01 4.57471856821158e-01 2.55591188848495e-03
5.55815217391304e-01 4.54051963900958e-01 2.56131899967156e-03
5.66402173913043e-01 4.50657636851318e-01 2.56627169607573e-03
5.76989130434783e-01 4.47288684557049e-01 2.57078459029311e-03
5.87576086956522e-01 4.43944917319926e-01 2.57487170325961e-03
5.98163043478261e-01 4.40626146871270e-01 2.57854649784123e-03
6.08750000000000e-01 4.37332186338702e-01 2.58182191031219e-03
6.19336956521739e-01 4.34062850257669e-01 2.58471037909309e-03
6.29923913043478e-01 4.30817954539529e-01 2.58722387180178e-03
6.40510869565217e-01 4.27597316482105e-01 2.58937390998380e-03
6.51097826086957e-01 4.24400754739011e-01 2.59117159249192e-03
6.61684782608696e-01 4.21228089329312e-01 2.59262761688284e-03
6.72271739130435e-01 4.18079141608017e-01 2.59375229973128e-03
6.82858695652174e-01 4.14953734274916e-01 2.59455559523673e-03
6.93445652173913e-01 4.11851691346157e-01 2.59504711296177e-03
7.04032608695652e-01 4.08772838162341e-01 2.59523613408933e-03
7.14619565217391e-01 4.05717001361103e-01 2.59513162698478e-03
7.25206521739130e-01 4.02684008884526e-01 2.59474226146318e-03
7.35793478260870e-01 3.99673689952680e-01 2.59407642333541e-03
7.46380434782609e-01 3.96685875066447e-01 2.59314222364333e-03
7.56967391304348e-01 3.93720395997761e-01 2.59194751577082e-03
7.67554347826087e-01 3.90777085768291e-01 2.59049990337064e-03
7.78141304347826e-01 3.87855778655673e-01 2.58880675171574e-03
7.88728260869565e-01 3.84956310168897e-01 2.58687519787611e-03
7.99315217391304e-01 3.82078517053991e-01 2.58471216003535e-03
8.09902173913044e-01 3.79222237270206e-01 2.58232434658010e-03
8.20489130434783e-01 3.76387309995200e-01 2.57971826441534e-03
8.31076086956522e-01 3.73573575601981e-01 2.57690022710997e-03
8.41663043478261e-01 3.70780875663625e-01 2.57387636234324e-03
8.52250000000000e-01 3.68009052930937e-01 2.57065261922823e-03
8.62836956521739e-01 3.65257951336734e-01 2.56723477499939e-03
8.73423913043478e-01 3.62527415974196e-01 2.56362844161744e-03
8.84010869565217e-01 3.59817293100737e-01 2.55983907179299e-03
8.94597826086957e-01 3.57127430117014e-01 2.55587196495981e-03
9.05184782608696e-01 3.54457675570421e-01 2.55173227271633e-03
9.15771739130435e-01 3.51807879134714e-01 2.54742500424249e-03
9.26358695652174e-01 3.49177891613160e-01 2.54295503122693e-03
9.36945652173913e-01 3.46567564918753e-01 2.53832709279286e-03
9.47532608695652e-01 3.43976752077037e-01 2.53354579997159e-03
9.58119565217391e-01 3.41405307206884e-01 2.52861564019217e-03
9.68706521739131e-01 3.38853085523014e-01 2.52354098135186e-03
9.79293478260870e-01 3.36319943317318e-01 2.51832607652736e-03
9.89880434782609e-01 3.33805737958592e-01 2.51297506524977e-03
1.00046739130435e+00 3.31310327884384e-01 2.50749198089851e-03
1.01105434782609e+00 3.28833572585523e-01 2.50188075411022e-03
1.02164130434783e+00 3.26375332598592e-01 2.49614520548098e-03
1.03222826086957e+00 3.23935469533484e-01 2.49028906817584e-03
1.04281521739130e+00 3.21513845987668e-01 2.48431598234607e-03
1.05340217391304e+00 3.19110325609332e-01 2.47822947870976e-03
1.06398913043478e+00 3.16724773088199e-01 2.47203301611448e-03
1.07457608695652e+00 3.14357054080933e-01 2.46572996704115e-03
1.08516304347826e+00 3.12007035270874e-01 2.45932360332410e-03
1.09575000000000e+00 3.09674584359073e-01 2.45281713213818e-03
1.10633695652174e+00 3.07359569993242e-01 2.44621367656344e-03
1.11692391304348e+00 3.05061861844532e-01 2.43951628261006e-03
1.12751086956522e+00 3.02781330517743e-01 2.43272792752129e-03
1.13809782608696e+00 3.00517847605386e-01 2.42585150059396e-03
1.14868478260870e+00 2.98271285679153e-01 2.41888983653554e-03
1.15927173913043e+00 2.96041518224677e-01 2.41184570193371e-03
1.16985869565217e+00 2.93828419692757e-01 2.40472178193947e-03
1.18044565217391e+00 2.91631865491103e-01 2.39752071231545e-03
1.19103260869565e+00 2.89451731922014e-01 2.39024506625082e-03
1.20161956521739e+00 2.87287896230956e-01 2.38289734136086e-03
1.21220652173913e+00 2.85140236598561e-01 2.37547999050236e-03
1.22279347826087e+00 2.83008632081060e-01 2.36799540893504e-03
1.23338043478261e+00 2.80892962656380e-01 2.36044592164262e-03
1.24396739130435e+00 2.78793109216384e-01 2.35283381298660e-03
1.25455434782609e+00 2.76708953509892e-01 2.34516131420357e-03
1.26514130434783e+00 2.74640378186487e-01 2.33743059106171e-03
1.27572826086957e+00 2.72587266788931e-01 2.32964377241483e-03
1.28631521739130e+00 2.70549503698671e-01 2.32180293802244e-03
1.29690217391304e+00 2.68526974177472e-01 2.31391010654893e-03
1.30748913043478e+00 2.66519564360020e-01 2.30596726307296e-03
1.31807608695652e+00 2.64527161201754e-01 2.29797634722787e-03
1.32866304347826e+00 2.62549652518481e-01 2.28993924153888e-03
1.33925000000000e+00 2.60586926979134e-01 2.28185779794101e-03
1.34983695652174e+00 2.58638874055831e-01 2.27373382224780e-03
1.36042391304348e+00 2.56705384075519e-01 2.26556907880657e-03
1.37101086956522e+00 2.54786348156978e-01 2.25736529609832e-03
1.38159782608696e+00 2.52881658247018e-01 2.24912415146677e-03
1.39218478260870e+00 2.50991207113571e-01 2.24084729594597e-03
1.40277173913043e+00 2.49114888299381e-01 2.23253634332815e-03
1.41335869565217e+00 2.47252596156477e-01 2.22419285941418e-03
1.42394565217391e+00 2.45404225839456e-01 2.21581838597932e-03
1.43453260869565e+00 2.43569673261053e-01 2.20741443015702e-03
1.44511956521739e+00 2.41748835124975e-01 2.19898245398362e-03
1.45570652173913e+00 2.39941608919379e-01 2.19052389754156e-03
1.46629347826087e+00 2.38147892874214e-01 2.18204016865120e-03
1.47688043478261e+00 2.36367585992521e-01 2.17353263270469e-03
1.48746739130435e+00 2.34600588044086e-01 2.16500263502418e-03
1.49805434782609e+00 2.32846799524473e-01 2.15645149084788e-03
1.50864130434783e+00 2.31106121684884e-01 2.14788047545430e-03
1.51922826086957e+00 2.29378456525956e-01 2.13929084577027e-03
1.52981521739130e+00 2.27663706758421e-01 2.13068383063554e-03
1.54040217391304e+00 2.25961775831599e-01 2.12206062121689e-03
1.55098913043478e+00 2.24272567927335e-01 2.11342239189604e-03
1.56157608695652e+00 2.22595987922204e-01 2.10477029080608e-03
1.57216304347826e+00 2.20931941414716e-01 2.09610543052755e-03
1.58275000000000e+00 2.19280334719384e-01 2.08742890828613e-03
1.59333695652174e+00 2.17641074830405e-01 2.07874179366469e-03
1.60392391304348e+00 2.16014069457590e-01 2.07004513195744e-03
1.61451086956522e+00 2.14399226980677e-01 2.06133994823180e-03
1.62509782608696e+00 2.12796456474363e-01 2.05262723525230e-03
1.63568478260870e+00 2.11205667702625e-01 2.04390797249661e-03
1.64627173913043e+00 2.09626771084824e-01 2.03518311744563e-03
1.65685869565217e+00 2.08059677719616e-01 2.02645359701959e-03
1.66744565217391e+00 2.06504299379431e-01 2.01772032598076e-03
1.67803260869565e+00 2.04960548477839e-01 2.00898419847909e-03
1.68861956521739e+00 2.03428338092406e-01 2.00024607972862e-03
1.69920652173913e+00 2.01907581959314e-01 1.99150682382136e-03
1.70979347826087e+00 2.00398194441942e-01 1.98276726552102e-03
1.72038043478261e+00 1.98900090552718e-01 1.97402821217337e-03
1.73096739130435e+00 1.97413185947871e-01 1.96529046095473e-03
1.74155434782609e+00 1.95937396897177e-01 1.95655479090222e-03
1.75214130434783e+00 1.94472640304860e-01 1.94782195505710e-03
1.76272826086957e+00 1.93018833704465e-01 1.93909269716980e-03
1.77331521739130e+00 1.91575895229720e-01 1.93036774395376e-03
1.78390217391304e+00 1.90143743634532e-01 1.92164779745939e-03
1.79448913043478e+00 1.88722298287985e-01 1.91293355125494e-03
1.80507608695652e+00 1.87311479146256e-01 1.90422568289806e-03
1.81566304347826e+00 1.85911206771767e-01 1.89552484653346e-03
1.82625000000000e+00 1.84521402328285e-01 1.88683168856858e-03
1.83683695652174e+00 1.83141987553866e-01 1.87814683793469e-03
1.84742391304348e+00 1.81772884786456e-01 1.86947090860850e-03
1.85801086956522e+00 1.80414016929970e-01 1.86080450267290e-03
1.86859782608696e+00 1.79065307471997e-01 1.85214820074343e-03
1.87918478260870e+00 1.77726680479098e-01 1.84350257678005e-03
1.88977173913043e+00 1.76398060571438e-01 1.83486819115096e-03
1.90035869565217e+00 1.75079372939744e-01 1.82624558381157e-03
1.91094565217391e+00 1.73770543340719e-01 1.81763528866228e-03
1.92153260869565e+00 1.72471498072571e-01 1.80903782681391e-03
1.93211956521739e+00 1.71182163991252e-01 1.80045369995728e-03
1.94270652173913e+00 1.69902468505991e-01 1.79188340428306e-03
1.95329347826087e+00 1.68632339555682e-01 1.78332742394257e-03
1.96388043478261e+00 1.67371705624433e-01 1.77478622460286e-03
1.97446739130435e+00 1.66120495737222e-01 1.76626026694479e-03
1.98505434782609e+00 1.64878639437096e-01 1.75775000031018e-03
1.99564130434783e+00 1.63646066800086e-01 1.74925585644057e-03
2.00622826086957e+00 1.62422708430953e-01 1.74077826256836e-03
2.01681521739130e+00 1.61208495441187e-01 1.73231763524109e-03
2.02740217391304e+00 1.60003359463302e-01 1.72387437424125e-03
2.03798913043478e+00 1.58807232646685e-01 1.71544887528384e-03
2.04857608695652e+00 1.57620047636348e-01 1.70704152401262e-03
2.05916304347826e+00 1.56441737586646e-01 1.69865269009538e-03
2.06975000000000e+00 1.55272236157211e-01 1.69028273954158e-03
2.08033695652174e+00 1.54111477492436e-01 1.68193202694986e-03
2.09092391304348e+00 1.52959396240045e-01 1.67360089745023e-03
2.10151086956522e+00 1.51815927525453e-01 1.66528968906273e-03
2.11209782608696e+00 1.50681006964503e-01 1.65699872507371e-03
2.12268478260870e+00 1.49554570659561e-01 1.64872832570354e-03
2.13327173913043e+00 1.48436555180206e-01 1.64047880256600e-03
2.14385869565217e+00 1.47326897575451e-01 1.63225045321911e-03
2.15444565217391e+00 1.46225535369926e-01 1.62404357248823e-03
2.16503260869565e+00 1.45132406545227e-01 1.61585844708405e-03
2.17561956521739e+00 1.44047449551630e-01 1.60769535030402e-03
2.18620652173913e+00 1.42970603304378e-01 1.59955455302190e-03
2.19679347826087e+00 1.41901807165646e-01 1.59143631845956e-03
2.20738043478261e+00 1.40841000955786e-01 1.58334089703476e-03
2.21796739130435e+00 1.39788124949700e-01 1.57526853702894e-03
2.22855434782609e+00 1.38743119859406e-01 1.56721947950601e-03
2.23914130434783e+00 1.37705926844836e-01 1.55919395330422e-03
2.24972826086957e+00 1.36676487510288e-01 1.55119218539325e-03
2.26031521739130e+00 1.35654743887575e-01 1.54321439593301e-03
2.27090217391304e+00 1.34640638446389e-01 1.53526079340759e-03
2.28148913043478e+00 1.33634114090836e-01 1.52733158468100e-03
2.29207608695652e+00 1.32635114143141e-01 1.51942697019159e-03
2.30266304347826e+00 1.31643582353601e-01 1.51154713922420e-03
2.31325000000000e+00 1.30659462897202e-01 1.50369227967425e-03
2.32383695652174e+00 1.29682700357852e-01 1.49586257184851e-03
2.33442391304348e+00 1.28713239742020e-01 1.48805818998409e-03
2.34501086956522e+00 1.27751026459110e-01 1.48027930409258e-03
2.35559782608696e+00 1.26796006330730e-01 1.47252607386084e-03
2.36618478260870e+00 1.25848125587434e-01 1.46479865791718e-03
2.37677173913043e+00 1.24907330853849e-01 1.45709720938942e-03
2.38735869565217e+00 1.23973569157571e-01 1.44942187153501e-03
2.39794565217391e+00 1.23046787925998e-01 1.44177278674143e-03
2.40853260869565e+00 1.22126934971924e-01 1.43415009220893e-03
2.41911956521739e+00 1.21213958502092e-01 1.42655391569981e-03
2.42970652173913e+00 1.20307807114100e-01 1.41898438428119e-03
2.44029347826087e+00 1.19408429782461e-01 1.41144162012901e-03
2.45088043478261e+00 1.18515775866817e-01 1.40392573639295e-03
2.46146739130435e+00 1.17629795108923e-01 1.39643684569015e-03
2.47205434782609e+00 1.16750437619144e-01 1.38897505602516e-03
2.48264130434783e+00 1.15877653884363e-01 1.38154046676919e-03
2.49322826086957e+00 1.15011394765021e-01 1.37413317691252e-03
2.50381521739130e+00 1.14151611482053e-01 1.36675328109514e-03
2.51440217391304e+00 1.13298255624488e-01 1.35940086569853e-03
2.52498913043478e+00 1.12451279146556e-01 1.35207601686369e-03
2.53557608695652e+00 1.11610634355038e-01 1.34477881662951e-03
2.54616304347826e+00 1.10776273916575e-01 1.33750933913356e-03
2.55675000000000e+00 1.09948150854841e-01 1.33026765840331e-03
2.56733695652174e+00 1.09126218538290e-01 1.32305384337783e-03
2.57792391304348e+00 1.08310430690292e-01 1.31586795910826e-03
2.58851086956522e+00 1.07500741373932e-01 1.30871006821453e-03
2.59909782608696e+00 1.06697104998830e-01 1.30158022598495e-03
2.60968478260870e+00 1.05899476318421e-01 1.29447848778156e-03
2.62027173913043e+00 1.05107810418368e-01 1.28740490546567e-03
2.63085869565217e+00 1.04322062723116e-01 1.28035952388062e-03
2.64144565217391e+00 1.03542188993240e-01 1.27334238804931e-03
2.65203260869565e+00 1.02768145314216e-01 1.26635353969858e-03
2.66261956521739e+00 1.01999888102725e-01 1.25939301383647e-03
2.67320652173913e+00 1.01237374104064e-01 1.25246084574859e-03
2.68379347826087e+00 1.00480560381264e-01 1.24555706761835e-03
2.69438043478261e+00 9.97294043211561e-02 1.23868170519624e-03
2.70496739130435e+00 9.89838636318416e-02 1.23183478460099e-03
2.71555434782609e+00 9.82438963321454e-02 1.22501632903196e-03
2.72614130434783e+00 9.75094607574539e-02 1.21822635552927e-03
2.73672826086957e+00 9.67805155572410e-02 1.21146488158567e-03
2.74731521739130e+00 9.60570196848485e-02 1.20473192194689e-03
2.75790217391304e+00 9.53389324031036e-02 1.19802748546107e-03
2.76848913043478e+00 9.46262132819001e-02 1.19135158150681e-03
2.77907608695652e+00 9.39188221882933e-02 1.18470421687935e-03
2.78966304347826e+00 9.32167192919067e-02 1.17808539272630e-03
2.80025000000000e+00 9.25198650625668e-02 1.17149511079749e-03
2.81083695652174e+00 9.18282202607021e-02 1.16493336943222e-03
2.82142391304348e+00 9.11417459449318e-02 1.15840016451520e-03
2.83201086956522e+00 9.04604034601977e-02 1.15189549063549e-03
2.84259782608696e+00 8.97841544428164e-02 1.14541933713516e-03
2.85318478260870e+00 8.91129608182043e-02 1.13897169405664e-03
2.86377173913043e+00 8.84467847917775e-02 1.13255254925658e-03
2.87435869565217e+00 8.77855888538147e-02 1.12616188556540e-03
2.88494565217391e+00 8.71293357772356e-02 1.11979968657100e-03
2.89553260869565e+00 8.64779886087760e-02 1.11346593381124e-03
2.90611956521739e+00 8.58315106736676e-02 1.10716060400915e-03
2.91670652173913e+00 8.51898655734697e-02 1.10088367469765e-03
2.92729347826087e+00 8.45530171775088e-02 1.09463512148841e-03
2.93788043478261e+00 8.39209296273841e-02 1.08841491538043e-03
2.94846739130435e+00 8.32935673348500e-02 1.08222302823075e-03
2.95905434782609e+00 8.26708949735118e-02 1.07605943009686e-03
2.96964130434783e+00 8.20528774831651e-02 1.06992408661740e-03
2.98022826086957e+00 8.14394800677252e-02 1.06381696433342e-03
2.99081521739130e+00 8.08306681871722e-02 1.05773802810118e-03
3.00140217391304e+00 8.02264075617307e-02 1.05168723854403e-03
3.01198913043478e+00 7.96266641698444e-02 1.04566455722823e-03
3.02257608695652e+00 7.90314042403632e-02 1.03966994414400e-03
3.03316304347826e+00 7.84405942565680e-02 1.03370335522670e-03
3.04375000000000e+00 7.78542009541916e-02 1.02776474739132e-03
3.05433695652174e+00 7.72721913138375e-02 1.02185407528722e-03
3.06492391304348e+00 7.66945325667048e-02 1.01597129206398e-03
3.07551086956522e+00 7.61211921852516e-02 1.01011635029881e-03
3.08609782608696e+00 7.55521378869613e-02 1.00428919879983e-03
3.09668478260870e+00 7.49873376324378e-02 9.98489787402031e-04
3.10727173913043e+00 7.44267596182097e-02 9.92718064629729e-04
3.11785869565217e+00 7.38703722803579e-02 9.86973975395950e-04
3.12844565217391e+00 7.33181442926554e-02 9.81257465668422e-04
3.13903260869565e+00 7.27700445595830e-02 9.75568480194994e-04
3.14961956521739e+00 7.22260422198235e-02 9.69906960263563e-04
3.16020652173913e+00 7.16861066444450e-02 9.64272848241766e-04
3.17079347826087e+00 7.11502074301209e-02 9.58666085363487e-04
3.18138043478261e+00 7.06183144024962e-02 9.53086609547576e-04
3.19196739130435e+00 7.00903976144129e-02 9.47534359815063e-04
3.20255434782609e+00 6.95664273393283e-02 9.42009274134599e-04
3.21314130434783e+00 6.90463740745587e-02 9.36511287299036e-04
3.22372826086957e+00 6.85302085395443e-02 9.31040335223593e-04
3.23431521739130e+00 6.80179016694606e-02 9.25596352847766e-04
3.24490217391304e+00 6.75094246183440e-02 9.20179272068947e-04
3.25548913043478e+00 6.70047487573954e-02 9.14789025924819e-04
3.26607608695652e+00 6.65038456687781e-02 9.09425546550056e-04
3.27666304347826e+00 6.60066871486303e-02 9.04088763165269e-04
3.28725000000000e+00 6.55132452054063e-02 8.98778606147045e-04
3.29783695652174e+00 6.50234920538547e-02 8.93495004395835e-04
3.30842391304348e+00 6.45374001193621e-02 8.88237885952118e-04
3.31901086956522e+00 6.40549420305619e-02 8.83007178741949e-04
3.32959782608696e+00 6.35760906221569e-02 8.77802807983542e-04
3.34018478260870e+00 6.31008189333225e-02 8.72624700067644e-04
