Energy (eV)          EEDF (eV^-(3/2))     First Anisotropy
5.45000000000000e-01 3.65231235479642e-02 7.50555697858207e-05
1.63500000000000e+00 3.25476614554714e-02 1.17588192875827e-04
2.72500000000000e+00 2.90049197141852e-02 1.39269717385768e-04
3.81500000000000e+00 2.58477976605876e-02 1.47969168848553e-04
4.90500000000000e+00 2.30343214353367e-02 1.49979573270778e-04
5.99500000000000e+00 2.05270859418493e-02 1.47989618046088e-04
7.08500000000000e+00 1.82927575464697e-02 1.43497290835546e-04
8.17500000000000e+00 1.63016309086384e-02 1.37439236342515e-04
9.26500000000000e+00 1.45272340491255e-02 1.30437487448178e-04
1.03550000000000e+01 1.29459764057252e-02 1.22919112685275e-04
1.14450000000000e+01 1.15368351973156e-02 1.15182421329378e-04
1.25350000000000e+01 1.02810759265063e-02 1.07437012686701e-04
1.36250000000000e+01 9.16200330496028e-03 9.98295849994316e-05
1.47150000000000e+01 8.16473928994980e-03 9.24613553355861e-05
1.58050000000000e+01 7.27602528114773e-03 8.54002304517288e-05
1.68950000000000e+01 6.48404584786520e-03 7.86895349482196e-05
1.79850000000000e+01 5.77827164319392e-03 7.23543955529153e-05
1.90750000000000e+01 5.14931941660031e-03 6.64064812499950e-05
2.01650000000000e+01 4.58882726384263e-03 6.08475619995652e-05
2.12550000000000e+01 4.08934345566155e-03 5.56722018925485e-05
2.23450000000000e+01 3.64422736722465e-03 5.08698081052109e-05
2.34350000000000e+01 3.24756119118410e-03 4.64261942983482e-05
2.45250000000000e+01 2.89407126057481e-03 4.23247743157648e-05
2.56150000000000e+01 2.57905793554308e-03 3.85474721413723e-05
2.67050000000000e+01 2.29833312175134e-03 3.50754127522928e-05
2.77950000000000e+01 2.04816458976790e-03 3.18894430222900e-05
2.88850000000000e+01 1.82522635516932e-03 2.89705204093798e-05
2.99750000000000e+01 1.62655445966000e-03 2.62999986220960e-05
3.10650000000000e+01 1.44950756532026e-03 2.38598329977590e-05
3.21550000000000e+01 1.29173183808419e-03 2.16327233869768e-05
3.32450000000000e+01 1.15112965357425e-03 1.96022085293257e-05
3.43350000000000e+01 1.02583170923717e-03 1.77527229447191e-05
3.54250000000000e+01 9.14172172012923e-04 1.60696250491530e-05
3.65150000000000e+01 8.14666531125534e-04 1.45392033818776e-05
3.76050000000000e+01 7.25991861549171e-04 1.31486663914698e-05
3.86950000000000e+01 6.46969235752750e-04 1.18861200862903e-05
3.97850000000000e+01 5.76548049887675e-04 1.07405369461045e-05
4.08750000000000e+01 5.13792056035746e-04 9.70171876689488e-06
4.19650000000000e+01 4.57866914816327e-04 8.76025553189465e-06
4.30550000000000e+01 4.08029102864984e-04 7.90748193886011e-06
4.41450000000000e+01 3.63616027708817e-04 7.13543284323532e-06
4.52350000000000e+01 3.24037218615970e-04 6.43679858070671e-06
4.63250000000000e+01 2.88766476301913e-04 5.80488089609914e-06
4.74150000000000e+01 2.57334877123012e-04 5.23355001698037e-06
4.85050000000000e+01 2.29324538748327e-04 4.71720326040897e-06
4.95950000000000e+01 2.04363064424391e-04 4.25072544250670e-06
5.06850000000000e+01 1.82118591969619e-04 3.82945126694226e-06
5.17750000000000e+01 1.62295381674841e-04 3.44912979512136e-06
5.28650000000000e+01 1.44629884451206e-04 3.10589104395820e-06
5.39550000000000e+01 1.28887237951589e-04 2.79621471337234e-06
5.50450000000000e+01 1.14858144081516e-04 2.51690101252725e-06
5.61350000000000e+01 1.02356086386189e-04 2.26504352920477e-06
5.72250000000000e+01 9.12148503188559e-05 2.03800406888715e-06
5.83150000000000e+01 8.12863134225296e-05 1.83338937770925e-06
5.94050000000000e+01 7.24384760456030e-05 1.64902965532109e-06
6.04950000000000e+01 6.45537064097563e-05 1.48295875895086e-06
6.15850000000000e+01 5.75271766983833e-05 1.33339599783770e-06
6.26750000000000e+01 5.12654693733721e-05 1.19872941711244e-06
6.37650000000000e+01 4.56853351912542e-05 1.07750047165606e-06
6.48550000000000e+01 4.07125864065792e-05 9.68389993069554e-07
6.59450000000000e+01 3.62811104476801e-05 8.70205356330163e-07
6.70350000000000e+01 3.23319909516738e-05 7.81868756737053e-07
6.81250000000000e+01 2.88127244728796e-05 7.02406512163811e-07
6.92150000000000e+01 2.56765224508111e-05 6.30939310278917e-07
7.03050000000000e+01 2.28816891574265e-05 5.66673325144031e-07
7.13950000000000e+01 2.03910673534589e-05 5.08892132358675e-07
7.24850000000000e+01 1.81715442838427e-05 4.56949356614949e-07
7.35750000000000e+01 1.61936114444565e-05 4.10261990102938e-07
7.46650000000000e+01 1.44309722672937e-05 3.68304324625982e-07
7.57550000000000e+01 1.28601925082431e-05 3.30602444516863e-07
7.68450000000000e+01 1.14603886893954e-05 2.96729231472375e-07
7.79350000000000e+01 1.02129504537227e-05 2.66299836233177e-07
7.90250000000000e+01 9.10129314084353e-06 2.38967575622855e-07
8.01150000000000e+01 8.11063729437477e-06 2.14420216823793e-07
8.12050000000000e+01 7.22781216942608e-06 1.92376613910320e-07
8.22950000000000e+01 6.44108062787326e-06 1.72583664586849e-07
8.33850000000000e+01 5.73998309339829e-06 1.54813557797601e-07
8.44750000000000e+01 5.11519849168182e-06 1.38861285393476e-07
8.55650000000000e+01 4.55842032695136e-06 1.24542393370188e-07
8.66550000000000e+01 4.06224624732625e-06 1.11690950340110e-07
8.77450000000000e+01 3.62007963073307e-06 1.00157712878506e-07
8.88350000000000e+01 3.22604188297893e-06 8.98084692036721e-08
8.99250000000000e+01 2.87489428198759e-06 8.05225443200921e-08
9.10150000000000e+01 2.56196832911946e-06 7.21914512843035e-08
9.21050000000000e+01 2.28310368159809e-06 6.47176746544884e-08
9.31950000000000e+01 2.03459284085619e-06 5.80135734663228e-08
9.42850000000000e+01 1.81313186143422e-06 5.20003922482873e-08
9.53750000000000e+01 1.61577642510750e-06 4.66073696580123e-08
9.64650000000000e+01 1.43990269624848e-06 4.17709352953178e-08
9.75550000000000e+01 1.28317243799724e-06 3.74339861349793e-08
9.86450000000000e+01 1.14350192546041e-06 3.35452348299813e-08
9.97350000000000e+01 1.01903424264049e-06 3.00586228706962e-08
1.00825000000000e+02 9.08114594783713e-07 2.69327922531958e-08
1.01915000000000e+02 8.09268307924886e-07 2.41306099164517e-08
1.03005000000000e+02 7.21181223133618e-07 2.16187397587881e-08
1.04095000000000e+02 6.42682224803960e-07 1.93672575434786e-08
1.05185000000000e+02 5.72727670701488e-07 1.73493044563226e-08
1.06275000000000e+02 5.10387516765706e-07 1.55407754885221e-08
1.07365000000000e+02 4.54832952197341e-07 1.39200391900114e-08
1.08455000000000e+02 4.05325380439337e-07 1.24676856750455e-08
1.09545000000000e+02 3.61206599553967e-07 1.11663000665313e-08
1.10635000000000e+02 3.21890051444401e-07 1.00002588412025e-08
1.11725000000000e+02 2.86853023579373e-07 8.95554678697130e-09
1.12815000000000e+02 2.55629699543047e-07 8.01959250908049e-09
1.13905000000000e+02 2.27804966017334e-07 7.18112062525124e-09
1.14995000000000e+02 2.03008893860628e-07 6.43001897390491e-09
1.16085000000000e+02 1.80911819909053e-07 5.75721932558771e-09
1.17175000000000e+02 1.61219964112878e-07 5.15459023761966e-09
1.18265000000000e+02 1.43671523738052e-07 4.61484082726154e-09
1.19355000000000e+02 1.28033192705350e-07 4.13143436073381e-09
1.20445000000000e+02 1.14097059791839e-07 3.69851066549502e-09
1.21535000000000e+02 1.01677844456336e-07 3.31081647244099e-09
1.22625000000000e+02 9.06104335392015e-08 2.96364288416149e-09
1.23715000000000e+02 8.07476860869907e-08 2.65276924603145e-09
1.24805000000000e+02 7.19584771171227e-08 2.37441276957487e-09
1.25895000000000e+02 6.41259543144940e-08 2.12518332299675e-09
1.26985000000000e+02 5.71459844828494e-08 1.90204286273249e-09
1.28075000000000e+02 5.09257690965224e-08 1.70226903295046e-09
1.29165000000000e+02 4.53826105463396e-08 1.52342250773729e-09
1.30255000000000e+02 4.04428126769592e-08 1.36331769371461e-09
1.31345000000000e+02 3.60407009983152e-08 1.21999644955190e-09
1.32435000000000e+02 3.21177495449018e-08 1.09170451367604e-09
1.33525000000000e+02 2.86218027745150e-08 9.76870362817781e-10
1.34615000000000e+02 2.55063821616129e-08 8.74086252224965e-10
1.35705000000000e+02 2.27300682664727e-08 7.82091213724503e-10
1.36795000000000e+02 2.02559500647676e-08 6.99755810611517e-10
1.37885000000000e+02 1.80511342164142e-08 6.26068468839820e-10
1.38975000000000e+02 1.60863077494332e-08 5.60123222412028e-10
1.40065000000000e+02 1.43353483447134e-08 5.01108727427391e-10
1.41155000000000e+02 1.27749770404286e-08 4.48298414127412e-10
1.42245000000000e+02 1.13844487388172e-08 4.01041659651784e-10
1.43335000000000e+02 1.01452764006226e-08 3.58755876231545e-10
1.44425000000000e+02 9.04098526036529e-09 3.20919420339369e-10
1.45515000000000e+02 8.05689379474432e-09 2.87065238011453e-10
1.46605000000000e+02 7.17991853214976e-09 2.56775170262300e-10
1.47695000000000e+02 6.39840010823221e-09 2.29674850332638e-10
1.48785000000000e+02 5.70194825494325e-09 2.05429131531463e-10
1.49875000000000e+02 5.08130366217956e-09 1.83737990736526e-10
1.50965000000000e+02 4.52821487548493e-09 1.64332858276326e-10
1.52055000000000e+02 4.03532859316810e-09 1.46973329996082e-10
1.53145000000000e+02 3.59609190433928e-09 1.31444221869167e-10
1.54235000000000e+02 3.20466516812248e-09 1.17552931607038e-10
1.55325000000000e+02 2.85584437577505e-09 1.05127075392292e-10
1.56415000000000e+02 2.54499196352055e-09 9.40123711540122e-11
1.57505000000000e+02 2.26797515625354e-09 8.40707427603990e-11
1.58595000000000e+02 2.02111102239704e-09 7.51786221555117e-11
1.59685000000000e+02 1.80111750941867e-09 6.72254288457208e-11
1.60775000000000e+02 1.60506980902370e-09 6.01122082752273e-11
1.61865000000000e+02 1.43036147190135e-09 5.37504125437603e-11
1.62955000000000e+02 1.27466975504589e-09 4.80608086359002e-11
1.64045000000000e+02 1.13592474094605e-09 4.29725008706179e-11
1.65135000000000e+02 1.01228181808307e-09 3.84220556597790e-11
1.66225000000000e+02 9.02097156866336e-10 3.43527179018411e-11
1.67315000000000e+02 8.03905854959797e-10 3.07137094464722e-11
1.68405000000000e+02 7.16402461441745e-10 2.74596010604758e-11
1.69495000000000e+02 6.38423620867218e-10 2.45497502170714e-11
1.70585000000000e+02 5.68932606486239e-10 2.19477978298437e-11
1.71675000000000e+02 5.07005536987402e-10 1.96212177690795e-11
1.72765000000000e+02 4.51819093518771e-10 1.75409136402919e-11
1.73855000000000e+02 4.02639573684174e-10 1.56808578801800e-11
1.74945000000000e+02 3.58813136988065e-10 1.40177687409537e-11
1.76035000000000e+02 3.19757112042353e-10 1.25308211960626e-11
1.77125000000000e+02 2.84952249964768e-10 1.12013882144324e-11
1.78215000000000e+02 2.53935820977858e-10 1.00128092213166e-11
1.79305000000000e+02 2.26295462428079e-10 8.95018289627045e-12
1.80395000000000e+02 2.01663696434554e-10 8.00018175654279e-12
1.81485000000000e+02 1.79713044279769e-10 7.15088624096268e-12
1.82575000000000e+02 1.60151672588146e-10 6.39163624837148e-12
1.83665000000000e+02 1.42719513408567e-10 5.71289829871763e-12
1.84755000000000e+02 1.27184806617410e-10 5.10614667666865e-12
1.85845000000000e+02 1.13341018673463e-10 4.56375708932759e-12
1.86935000000000e+02 1.01004096759619e-10 4.07891152344706e-12
1.88025000000000e+02 9.00100218052398e-11 3.64551312527848e-12
1.89115000000000e+02 8.02126278566831e-11 3.25811004954833e-12
1.90205000000000e+02 7.14816588045775e-11 2.91182733451543e-12
1.91295000000000e+02 6.37010366320808e-11 2.60230595897607e-12
1.92385000000000e+02 5.67673181605272e-11 2.32564832565139e-12
1.93475000000000e+02 5.05883197749345e-11 2.07836949469166e-12
1.94565000000000e+02 4.50818918451311e-11 1.85735356203165e-12
1.95655000000000e+02 4.01748265484614e-11 1.65981464089725e-12
1.96745000000000e+02 3.58018845736013e-11 1.48326196167003e-12
1.97835000000000e+02 3.19049277655327e-11 1.32546865626128e-12
1.98925000000000e+02 2.84321461802163e-11 1.18444383875072e-12
2.00015000000000e+02 2.53373692726707e-11 1.05840763486795e-12
2.01105000000000e+02 2.25794520607236e-11 9.45768849434982e-13
2.02195000000000e+02 2.01217281034944e-11 8.45104993594815e-13
2.03285000000000e+02 1.79315220219734e-11 7.55144422924802e-13
2.04375000000000e+02 1.59797150806682e-11 6.74750363733707e-13
2.05465000000000e+02 1.42403580547389e-11 6.02906628290062e-13
2.06555000000000e+02 1.26903262356970e-11 5.38704840714549e-13
2.07645000000000e+02 1.13090119889806e-11 4.81333014049111e-13
2.08735000000000e+02 1.00780507759644e-11 4.30065335821284e-13
2.09825000000000e+02 8.98107699787414e-12 3.84253034460953e-13
2.10915000000000e+02 8.00350641555737e-12 3.43316212383674e-13
2.12005000000000e+02 7.13234225238580e-12 3.06736543595922e-13
2.13095000000000e+02 6.35600240243265e-12 2.74050744451567e-13
2.14185000000000e+02 5.66416544666179e-12 2.44844735828777e-13
2.15275000000000e+02 5.04763342991788e-12 2.18748423621385e-13
2.16365000000000e+02 4.49820957434082e-12 1.95431032155207e-13
2.17455000000000e+02 4.00858930340760e-12 1.74596932043351e-13
2.18545000000000e+02 3.57226312776869e-12 1.55981910170629e-13
2.19635000000000e+02 3.18343010174874e-12 1.39349835022281e-13
2.20725000000000e+02 2.83692069991777e-12 1.24489675514816e-13
2.21815000000000e+02 2.52812808837891e-12 1.11212835908177e-13
2.22905000000000e+02 2.25294687702609e-12 9.93507733334321e-14
2.23995000000000e+02 2.00771853848446e-12 8.87528680079549e-14
2.25085000000000e+02 1.78918276807975e-12 7.92845193744617e-14
2.26175000000000e+02 1.59443413816856e-12 7.08254442306771e-14
2.27265000000000e+02 1.42088347054995e-12 6.32681554479701e-14
2.28355000000000e+02 1.26622341340551e-12 5.65166021415422e-14
2.29445000000000e+02 1.12839776511423e-12 5.04849541798284e-14
2.30535000000000e+02 1.00557413710293e-12 4.50965157319117e-14
2.31625000000000e+02 8.96119592285749e-13 4.02827541715088e-14
2.32715000000000e+02 7.98578935206023e-13 3.59824321046430e-14
2.33805000000000e+02 7.11655365248873e-13 3.21408315835558e-14
2.34895000000000e+02 6.34193235709189e-13 2.87090607278605e-14
2.35985000000000e+02 5.65162689497377e-13 2.56434340098886e-14
2.37075000000000e+02 5.03645967214912e-13 2.29049183875428e-14
2.38165000000000e+02 4.48825205565911e-13 2.04586382963242e-14
2.39255000000000e+02 3.99971563884922e-13 1.82734332529060e-14
2.40345000000000e+02 3.56435534218359e-13 1.63214624849280e-14
2.41435000000000e+02 3.17638306132384e-13 1.45778515938845e-14
2.42525000000000e+02 2.83064071442552e-13 1.30203767874683e-14
2.43615000000000e+02 2.52253166556807e-13 1.16291826911596e-14
2.44705000000000e+02 2.24795961259430e-13 1.03865301721227e-14
2.45795000000000e+02 2.00327412687487e-13 9.27657098691465e-15
2.46885000000000e+02 1.78522212095033e-13 8.28514640284686e-15
2.47975000000000e+02 1.59090459881403e-13 7.39960724532934e-15
2.49065000000000e+02 1.41773811383220e-13 6.60865309394927e-15
2.50155000000000e+02 1.26342042188504e-13 5.90218859179338e-15
2.51245000000000e+02 1.12589987308834e-13 5.27119504864773e-15
2.52335000000000e+02 1.00334813515915e-13 4.70761571191289e-15
2.53425000000000e+02 8.94135885783476e-14 4.20425325178665e-15
2.54515000000000e+02 7.96811150816549e-14 3.75467816165788e-15
2.55605000000000e+02 7.10080000322615e-14 3.35314691266656e-15
2.56695000000000e+02 6.32789345808554e-14 2.99452882475244e-15
2.57785000000000e+02 5.63911609940980e-14 2.67424072678785e-15
2.58875000000000e+02 5.02531064931103e-14 2.38818857695936e-15
2.59965000000000e+02 4.47831657956500e-14 2.13271530266724e-15
2.61055000000000e+02 3.99086161759101e-14 1.90455419796145e-15
2.62145000000000e+02 3.55646506176841e-14 1.70078728691986e-15
2.63235000000000e+02 3.16935162066940e-14 1.51880812428558e-15
2.64325000000000e+02 2.82437463070285e-14 1.35628856090867e-15
2.65415000000000e+02 2.51694763134961e-14 1.21114905179234e-15
2.66505000000000e+02 2.24298338828370e-14 1.08153212945875e-15
2.67595000000000e+02 1.99883955369344e-14 9.65778705491156e-16
2.68685000000000e+02 1.78127024135769e-14 8.62406898984655e-16
2.69775000000000e+02 1.58738287266908e-14 7.70093122699620e-16
2.70865000000000e+02 1.41459971987325e-14 6.87655186365033e-16
2.71955000000000e+02 1.26062363524232e-14 6.14037202185656e-16
2.73045000000000e+02 1.12340751055284e-14 5.48296100490450e-16
2.74135000000000e+02 1.00112706083282e-14 4.89589583909396e-16
2.75225000000000e+02 8.92156570538272e-15 4.37165366740422e-16
2.76315000000000e+02 7.95047279705416e-15 3.90351562498528e-16
2.77405000000000e+02 7.08508122722912e-15 3.48548097232148e-16
2.78495000000000e+02 6.31388563646608e-15 3.11219039231832e-16
2.79585000000000e+02 5.62663299852715e-15 2.77885747408672e-16
2.80675000000000e+02 5.01418630664878e-15 2.48120751032010e-16
2.81765000000000e+02 4.46840309726357e-15 2.21542282819665e-16
2.82855000000000e+02 3.98202719614926e-15 1.97809395687170e-16
2.83945000000000e+02 3.54859224777255e-15 1.76617600890632e-16
2.85035000000000e+02 3.16233574525276e-15 1.57694971934896e-16
2.86125000000000e+02 2.81812241797590e-15 1.40798664548964e-16
2.87215000000000e+02 2.51137595829932e-15 1.25711808329256e-16
2.88305000000000e+02 2.23801817965516e-15 1.12240730385443e-16
2.89395000000000e+02 1.99441479716118e-15 1.00212475553465e-16
2.90485000000000e+02 1.77732710989343e-15 8.94725915194647e-17
2.91575000000000e+02 1.58386894243788e-15 7.98831505748199e-17
2.92665000000000e+02 1.41146827325990e-15 7.13209827390973e-17
2.93755000000000e+02 1.25783303974181e-15 6.36760976828290e-17
2.94845000000000e+02 1.12092066526727e-15 5.68502752898444e-17
2.95935000000000e+02 9.98910903215831e-16 5.07558068500256e-17
2.97025000000000e+02 8.90181636829359e-16 4.53143707951404e-17
2.98115000000000e+02 7.93287313209935e-16 4.04560286072832e-17
2.99205000000000e+02 7.06939724729989e-16 3.61183280632459e-17
3.00295000000000e+02 6.29990882343854e-16 3.22455023483524e-17
3.01385000000000e+02 5.61417753101902e-16 2.87877547973612e-17
3.02475000000000e+02 5.00308658952870e-16 2.57006201135313e-17
3.03565000000000e+02 4.45851156006792e-16 2.29443938937901e-17
3.04655000000000e+02 3.97321233113653e-16 2.04836231605651e-17
3.05745000000000e+02 3.54073686153119e-16 1.82866513803452e-17
3.06835000000000e+02 3.15533540061767e-16 1.63252121453710e-17
3.07925000000000e+02 2.81188404553891e-16 1.45740663168647e-17
3.09015000000000e+02 2.50581661905371e-16 1.30106779838365e-17
3.10105000000000e+02 2.23306396232366e-16 1.16149250878216e-17
3.11195000000000e+02 1.98999983554732e-16 1.03688410072348e-17
3.12285000000000e+02 1.77339270719214e-16 9.25638379103616e-18
3.13375000000000e+02 1.58036279086290e-16 8.26323008511845e-18
3.14465000000000e+02 1.40834375861306e-16 7.37659111078181e-18
3.15555000000000e+02 1.25504862167843e-16 6.58504833686955e-18
3.16645000000000e+02 1.11843932501830e-16 5.87840673920988e-18
3.17735000000000e+02 9.96699651424261e-17 5.24756376615575e-18
3.18825000000000e+02 8.88211074957500e-17 4.68439233011218e-18
3.19915000000000e+02 7.91531242686611e-17 4.18163632455506e-18
3.21005000000000e+02 7.05374798641178e-17 3.73281732647070e-18
3.22095000000000e+02 6.28596295036047e-17 3.33215128742998e-18
3.23185000000000e+02 5.60174963571457e-17 2.97447414448490e-18
3.24275000000000e+02 4.99201144343825e-17 2.65517539637366e-18
3.25365000000000e+02 4.44864191939908e-17 2.37013879260354e-18
3.26455000000000e+02 3.96441697926160e-17 2.23746072662867e-18
