Energy (eV)          EEDF (eV^-(3/2))     First Anisotropy
3.94444444444444e-02 3.40538406258197e-02 1.90289259197086e-05
1.18333333333333e-01 3.37937555607047e-02 3.14077591684349e-05
1.97222222222222e-01 3.35356568860385e-02 4.14236546169912e-05
2.76111111111111e-01 3.32795294314615e-02 4.90096311039618e-05
3.55000000000000e-01 3.30253581417701e-02 5.53172770374527e-05
4.33888888888889e-01 3.27731280774622e-02 6.07824793322715e-05
5.12777777777778e-01 3.25228244117171e-02 6.56310489282200e-05
5.91666666666667e-01 3.22744324317540e-02 6.99994871958117e-05
6.70555555555555e-01 3.20279375371524e-02 7.39784165377037e-05
7.49444444444444e-01 3.17833252389975e-02 7.76319517304145e-05
8.28333333333333e-01 3.15405811590245e-02 8.10076015229801e-05
9.07222222222222e-01 3.12996910287876e-02 8.41418343314867e-05
9.86111111111111e-01 3.10606406888132e-02 8.70634352785198e-05
1.06500000000000e+00 3.08234160867933e-02 8.97956440622817e-05
1.14388888888889e+00 3.05880032816890e-02 9.23575785572407e-05
1.22277777777778e+00 3.03543884337130e-02 9.47652157822439e-05
1.30166666666667e+00 3.01225578110635e-02 9.70320884100362e-05
1.38055555555556e+00 2.98924977868087e-02 9.91697935542964e-05
1.45944444444444e+00 2.96641948380875e-02 1.01188370987496e-04
1.53833333333333e+00 2.94376355453021e-02 1.03096590408942e-04
1.61722222222222e+00 2.92128065913593e-02 1.04902173179908e-04
1.69611111111111e+00 2.89896947608719e-02 1.06611966021735e-04
1.77500000000000e+00 2.87682869393820e-02 1.08232078732480e-04
1.85388888888889e+00 2.85485701138002e-02 1.09767995367938e-04
1.93277777777778e+00 2.83305313679525e-02 1.11224663829399e-04
2.01166666666667e+00 2.81141578855746e-02 1.12606569244858e-04
2.09055555555556e+00 2.78994369482846e-02 1.13917795367277e-04
2.16944444444444e+00 2.76863559348351e-02 1.15162075224137e-04
2.24833333333333e+00 2.74749023203668e-02 1.16342833788826e-04
2.32722222222222e+00 2.72650636756838e-02 1.17463224071145e-04
2.40611111111111e+00 2.70568276665168e-02 1.18526157836944e-04
2.48500000000000e+00 2.68501820527984e-02 1.19534331790108e-04
2.56388888888889e+00 2.66451146887533e-02 1.20490250569352e-04
2.64277777777778e+00 2.64416135197220e-02 1.21396246101998e-04
2.72166666666667e+00 2.62396665839497e-02 1.22254494399743e-04
2.80055555555556e+00 2.60392620110382e-02 1.23067030801512e-04
2.87944444444444e+00 2.58403880212488e-02 1.23835762902686e-04
2.95833333333333e+00 2.56430329248064e-02 1.24562482047046e-04
3.03722222222222e+00 2.54471851212194e-02 1.25248873485818e-04
3.11611111111111e+00 2.52528330985938e-02 1.25896525390486e-04
3.19500000000000e+00 2.50599654329573e-02 1.26506936776645e-04
3.27388888888889e+00 2.48685707881766e-02 1.27081524958129e-04
3.35277777777778e+00 2.46786379135026e-02 1.27621631764856e-04
3.43166666666667e+00 2.44901556447191e-02 1.28128529106142e-04
3.51055555555556e+00 2.43031129028764e-02 1.28603424458295e-04
3.58944444444444e+00 2.41174986936393e-02 1.29047465449632e-04
3.66833333333333e+00 2.39333021066394e-02 1.29461744100882e-04
3.74722222222222e+00 2.37505123148379e-02 1.29847300673437e-04
3.82611111111111e+00 2.35691185738867e-02 1.30205127169739e-04
3.90500000000000e+00 2.33891102214971e-02 1.30536170440883e-04
3.98388888888889e+00 2.32104766772642e-02 1.30841335346406e-04
4.06277777777778e+00 2.30332074406775e-02 1.31121487254490e-04
4.14166666666667e+00 2.28572920918861e-02 1.31377454319101e-04
4.22055555555556e+00 2.26827202906198e-02 1.31610029977475e-04
4.29944444444444e+00 2.25094817755820e-02 1.31819974931564e-04
4.37833333333333e+00 2.23375663638450e-02 1.32008019051823e-04
4.45722222222222e+00 2.21669639502539e-02 1.32174863135305e-04
4.53611111111111e+00 2.19976645068316e-02 1.32321180531879e-04
4.61500000000000e+00 2.18296580821893e-02 1.32447618579455e-04
4.69388888888889e+00 2.16629348012977e-02 1.32554800212207e-04
4.77277777777778e+00 2.14974848638272e-02 1.32643325115404e-04
4.85166666666667e+00 2.13332985446621e-02 1.32713770788131e-04
4.93055555555556e+00 2.11703661929618e-02 1.32766693883186e-04
5.00944444444444e+00 2.10086782315936e-02 1.32802631182016e-04
5.08833333333333e+00 2.08482251565690e-02 1.32822100572265e-04
5.16722222222222e+00 2.06889975364866e-02 1.32825601961852e-04
5.24611111111111e+00 2.05309860119769e-02 1.32813618134739e-04
5.32500000000000e+00 2.03741812951523e-02 1.32786615491184e-04
5.40388888888889e+00 2.02185741693496e-02 1.32745044983427e-04
5.48277777777778e+00 2.00641554877147e-02 1.32689342697912e-04
5.56166666666667e+00 1.99109161735465e-02 1.32619930393773e-04
5.64055555555556e+00 1.97588472194669e-02 1.32537216314898e-04
5.71944444444444e+00 1.96079396868914e-02 1.32441595714419e-04
5.79833333333333e+00 1.94581847055027e-02 1.32333451408215e-04
5.87722222222222e+00 1.93095734727312e-02 1.32213154297314e-04
5.95611111111111e+00 1.91620972532363e-02 1.32081063861443e-04
6.03500000000000e+00 1.90157473783934e-02 1.31937528571627e-04
6.11388888888889e+00 1.88705152460218e-02 1.31782886492487e-04
6.19277777777778e+00 1.87263923191599e-02 1.31617465591432e-04
6.27166666666667e+00 1.85833701262887e-02 1.31441584024710e-04
6.35055555555556e+00 1.84414402605905e-02 1.31255550677247e-04
6.42944444444444e+00 1.83005943794541e-02 1.31059665463078e-04
6.50833333333333e+00 1.81608242039844e-02 1.30854219662853e-04
6.58722222222222e+00 1.80221215185163e-02 1.30639496244733e-04
6.66611111111111e+00 1.78844781701317e-02 1.30415770169733e-04
6.74500000000000e+00 1.77478860681800e-02 1.30183308634693e-04
6.82388888888889e+00 1.76123371840015e-02 1.29942371491180e-04
6.90277777777778e+00 1.74778235498541e-02 1.29693211413343e-04
6.98166666666667e+00 1.73443372590512e-02 1.29436074052346e-04
7.06055555555556e+00 1.72118704652934e-02 1.29171198421466e-04
7.13944444444444e+00 1.70804153822070e-02 1.28898817075885e-04
7.21833333333333e+00 1.69499642828861e-02 1.28619156330788e-04
7.29722222222222e+00 1.68205094994391e-02 1.28332436469943e-04
7.37611111111111e+00 1.66920434225377e-02 1.28038871945307e-04
7.45500000000000e+00 1.65645585009695e-02 1.27738671525806e-04
7.53388888888889e+00 1.64380472413623e-02 1.27432038606418e-04
7.61277777777778e+00 1.63125022072353e-02 1.27119171298314e-04
7.69166666666667e+00 1.61879160190747e-02 1.26800262510619e-04
7.77055555555556e+00 1.60642813537271e-02 1.26475500240269e-04
7.84944444444444e+00 1.59415909439698e-02 1.26145067682764e-04
7.92833333333333e+00 1.58198375780825e-02 1.25809143379808e-04
8.00722222222222e+00 1.56990140994249e-02 1.25467901361178e-04
8.08611111111111e+00 1.55791134060150e-02 1.25121511281125e-04
8.16500000000000e+00 1.54601284501120e-02 1.24770138511841e-04
8.24388888888889e+00 1.53420522379450e-02 1.24413944382101e-04
8.32277777777778e+00 1.52248778288696e-02 1.24053086222735e-04
8.40166666666667e+00 1.51085983353953e-02 1.23687717406551e-04
8.48055555555555e+00 1.49932069226348e-02 1.23317987575664e-04
8.55944444444444e+00 1.48786968079020e-02 1.22944042710767e-04
8.63833333333333e+00 1.47650612603131e-02 1.22566025234946e-04
8.71722222222222e+00 1.46522936003914e-02 1.22184074113808e-04
8.79611111111111e+00 1.45403871996743e-02 1.21798324952101e-04
8.87500000000000e+00 1.44293354803241e-02 1.21408910053292e-04
8.95388888888889e+00 1.43191319148639e-02 1.21015958610327e-04
9.03277777777778e+00 1.42097700254226e-02 1.20619596724637e-04
9.11166666666667e+00 1.41012433837281e-02 1.20219947421305e-04
9.19055555555556e+00 1.39935456106043e-02 1.19817130833000e-04
9.26944444444444e+00 1.38866703755957e-02 1.19411264243416e-04
9.34833333333333e+00 1.37806113965954e-02 1.19002462162577e-04
9.42722222222222e+00 1.36753624394758e-02 1.18590836399693e-04
9.50611111111111e+00 1.35709173177224e-02 1.18176496133699e-04
9.58500000000000e+00 1.34672698920700e-02 1.17759547951292e-04
9.66388888888889e+00 1.33644140702480e-02 1.17340096003545e-04
9.74277777777778e+00 1.32623438063013e-02 1.16918242008978e-04
9.82166666666667e+00 1.31610531005583e-02 1.16494085253801e-04
9.90055555555555e+00 1.30605359991698e-02 1.16067722744381e-04
9.97944444444444e+00 1.29607865937588e-02 1.15639249262621e-04
1.00583333333333e+01 1.28617990209746e-02 1.15208757364106e-04
1.01372222222222e+01 1.27635674623493e-02 1.14776337432961e-04
1.02161111111111e+01 1.26660861438536e-02 1.14342077793416e-04
1.02950000000000e+01 1.25693493355567e-02 1.13906064460344e-04
1.03738888888889e+01 1.24733513522139e-02 1.13468382005693e-04
1.04527777777778e+01 1.23780865501407e-02 1.13029113059688e-04
1.05316666666667e+01 1.22835493296931e-02 1.12588337803546e-04
1.06105555555556e+01 1.21897341339937e-02 1.12146134849243e-04
1.06894444444444e+01 1.20966354486058e-02 1.11702581003970e-04
1.07683333333333e+01 1.20042478012078e-02 1.11257751312177e-04
1.08472222222222e+01 1.19125657612737e-02 1.10811719097044e-04
1.09261111111111e+01 1.18215839397530e-02 1.10364556001403e-04
1.10050000000000e+01 1.17312969887538e-02 1.09916331782195e-04
1.10838888888889e+01 1.16416996020349e-02 1.09467115085911e-04
1.11627777777778e+01 1.15527865122574e-02 1.09016972991931e-04
1.12416666666667e+01 1.14645524931291e-02 1.08565970548362e-04
1.13205555555556e+01 1.13769923582731e-02 1.08114171560283e-04
1.13994444444444e+01 1.12901009609235e-02 1.07661638371426e-04
1.14783333333333e+01 1.12038731936216e-02 1.07208431896706e-04
1.15572222222222e+01 1.11183039879176e-02 1.06754611654417e-04
1.16361111111111e+01 1.10333883140718e-02 1.06300235798116e-04
1.17150000000000e+01 1.09491211807588e-02 1.05845360925763e-04
1.17938888888889e+01 1.08654976354817e-02 1.05390042776486e-04
1.18727777777778e+01 1.07825127621439e-02 1.04934335812980e-04
1.19516666666667e+01 1.07001616829123e-02 1.04478292797227e-04
1.20305555555556e+01 1.06184395572077e-02 1.04021965499326e-04
1.21094444444444e+01 1.05373415814209e-02 1.03565404495964e-04
1.21883333333333e+01 1.04568629886292e-02 1.03108659195970e-04
1.22672222222222e+01 1.03769990483178e-02 1.02651777865714e-04
1.23461111111111e+01 1.02977450661011e-02 1.02194807654298e-04
1.24250000000000e+01 1.02190963834465e-02 1.01737794417071e-04
1.25038888888889e+01 1.01410483780235e-02 1.01280783343692e-04
1.25827777777778e+01 1.00635964615511e-02 1.00823818576429e-04
1.26616666666667e+01 9.98673608142189e-03 1.00366942822470e-04
1.27405555555556e+01 9.91046271979884e-03 9.99101979932546e-05
1.28194444444444e+01 9.83477189334961e-03 9.94536250188931e-05
1.28983333333333e+01 9.75965915298259e-03 9.89972638685274e-05
1.29772222222222e+01 9.68512008358649e-03 9.85411535706043e-05
1.30561111111111e+01 9.61115030377025e-03 9.80853322330569e-05
1.31350000000000e+01 9.53774546560552e-03 9.76298368805101e-05
1.32138888888889e+01 9.46490125492074e-03 9.71747040219253e-05
1.32927777777778e+01 9.39261338938733e-03 9.67199693017296e-05
1.33716666666667e+01 9.32087761993954e-03 9.62656671455333e-05
1.34505555555556e+01 9.24968972996367e-03 9.58118313382185e-05
1.35294444444444e+01 9.17904553505023e-03 9.53584948533187e-05
1.36083333333333e+01 9.10894088274749e-03 9.49056898694288e-05
1.36872222222222e+01 9.03937165231840e-03 9.44534477865559e-05
1.37661111111111e+01 8.97033375449785e-03 9.40017992424512e-05
1.38450000000000e+01 8.90182313125236e-03 9.35507739627118e-05
1.39238888888889e+01 8.83383575602827e-03 9.31004012749429e-05
1.40027777777778e+01 8.76636763204499e-03 9.26507097898265e-05
1.40816666666667e+01 8.69941479354002e-03 9.22017270772914e-05
1.41605555555556e+01 8.63297330503924e-03 9.17534801903377e-05
1.42394444444444e+01 8.56703926112552e-03 9.13059955082901e-05
1.43183333333333e+01 8.50160878620879e-03 9.08592987501421e-05
1.43972222222222e+01 8.43667803429906e-03 9.04134149878946e-05
1.44761111111111e+01 8.37224318877994e-03 8.99683686598900e-05
1.45550000000000e+01 8.30830046218429e-03 8.95241834329048e-05
1.46338888888889e+01 8.24484609640381e-03 8.90808826687741e-05
1.47127777777778e+01 8.18187636116293e-03 8.86384891327021e-05
1.47916666666667e+01 8.11938755511341e-03 8.81970246971654e-05
1.48705555555556e+01 8.05737600517593e-03 8.77565108174229e-05
1.49494444444444e+01 7.99583806632414e-03 8.73169683875785e-05
1.50283333333333e+01 7.93477012137010e-03 8.68784177515310e-05
1.51072222222222e+01 7.87416858075234e-03 8.64408787139292e-05
1.51861111111111e+01 7.81402988232453e-03 8.60043705511726e-05
1.52650000000000e+01 7.75435049114609e-03 8.55689118845796e-05
1.53438888888889e+01 7.69512689965909e-03 8.51345211045713e-05
1.54227777777778e+01 7.63635562632048e-03 8.47012161038002e-05
1.55016666666667e+01 7.57803321656667e-03 8.42690140062269e-05
1.55805555555556e+01 7.52015624221818e-03 8.38379315994947e-05
1.56594444444444e+01 7.46272130127808e-03 8.34079852027908e-05
1.57383333333333e+01 7.40572501773180e-03 8.29791906758720e-05
1.58172222222222e+01 7.34916404134920e-03 8.25515634281353e-05
1.58961111111111e+01 7.29303504748744e-03 8.21251184277317e-05
1.59750000000000e+01 7.23733473689548e-03 8.16998700849817e-05
1.60538888888889e+01 7.18205983586329e-03 8.12758326385328e-05
1.61327777777778e+01 7.12720709499345e-03 8.08530199110505e-05
1.62116666666667e+01 7.07277329005283e-03 8.04314450612355e-05
1.62905555555556e+01 7.01875522143328e-03 8.00111209774987e-05
1.63694444444444e+01 6.96514971396352e-03 7.95920601566327e-05
1.64483333333333e+01 6.91195361672225e-03 7.91742747113316e-05
1.65272222222222e+01 6.85916380285349e-03 7.87577763777273e-05
1.66061111111111e+01 6.80677716938248e-03 7.83425765229846e-05
1.66850000000000e+01 6.75479063703331e-03 7.79286860381568e-05
1.67638888888889e+01 6.70320115035458e-03 7.75161156901553e-05
1.68427777777778e+01 6.65200567661395e-03 7.71048758979898e-05
1.69216666666667e+01 6.60120120655166e-03 7.66949765056476e-05
1.70005555555556e+01 6.55078475389106e-03 7.62864271409854e-05
1.70794444444444e+01 6.50075335516309e-03 7.58792371043246e-05
1.71583333333333e+01 6.45110406953183e-03 7.54734153747150e-05
1.72372222222222e+01 6.40183397862211e-03 7.50689706162598e-05
1.73161111111111e+01 6.35294018634773e-03 7.46659111844835e-05
1.73950000000000e+01 6.30441981874125e-03 7.42642450278126e-05
1.74738888888889e+01 6.25627002405958e-03 7.38639800087876e-05
1.75527777777778e+01 6.20848797178750e-03 7.34651236989964e-05
1.76316666666667e+01 6.16107085330544e-03 7.30676831709506e-05
1.77105555555556e+01 6.11401588144456e-03 7.26716653256441e-05
1.77894444444444e+01 6.06732029032290e-03 7.22770767902098e-05
1.78683333333333e+01 6.02098133518264e-03 7.18839239231912e-05
1.79472222222222e+01 5.97499629222913e-03 7.14922128198483e-05
1.80261111111111e+01 5.92936245847060e-03 7.11019493175165e-05
1.81050000000000e+01 5.88407715155927e-03 7.07131389050397e-05
1.81838888888889e+01 5.83913770987989e-03 7.03257870161768e-05
1.82627777777778e+01 5.79454149165005e-03 6.99398988415868e-05
1.83416666666667e+01 5.75028587551281e-03 6.95554791380051e-05
1.84205555555556e+01 5.70636826013177e-03 6.91725325274890e-05
1.84994444444444e+01 5.66278606403813e-03 6.87910634034002e-05
1.85783333333333e+01 5.61953672547879e-03 6.84110759348383e-05
1.86572222222222e+01 5.57661770226612e-03 6.80325740711220e-05
1.87361111111111e+01 5.53402647162835e-03 6.76555615463069e-05
1.88150000000000e+01 5.49176053006126e-03 6.72800417958973e-05
1.88938888888889e+01 5.44981739340220e-03 6.69060182251287e-05
1.89727777777778e+01 5.40819459601651e-03 6.65334940364859e-05
1.90516666666667e+01 5.36688969132432e-03 6.61624720546383e-05
1.91305555555556e+01 5.32590025143143e-03 6.57929550000820e-05
1.92094444444444e+01 5.28522386698657e-03 6.54249454027435e-05
1.92883333333333e+01 5.24485814703968e-03 6.50584456057141e-05
1.93672222222222e+01 5.20480071890162e-03 6.46934577690319e-05
1.94461111111111e+01 5.16504922800457e-03 6.43299838735231e-05
1.95250000000000e+01 5.12560133776366e-03 6.39680256441896e-05
1.96038888888889e+01 5.08645472963845e-03 6.36075847957142e-05
1.96827777777778e+01 5.04760710239633e-03 6.32486628741427e-05
1.97616666666667e+01 5.00905617258136e-03 6.28912610962041e-05
1.98405555555556e+01 4.97079967417740e-03 6.25353805997531e-05
1.99194444444444e+01 4.93283535847493e-03 6.21810223643282e-05
1.99983333333333e+01 4.89516099393872e-03 6.18281872143203e-05
2.00772222222222e+01 4.85777436607698e-03 6.14768758221833e-05
2.01561111111111e+01 4.82067327731097e-03 6.11270887116887e-05
2.02350000000000e+01 4.78385554684590e-03 6.07788261874462e-05
2.03138888888889e+01 4.74731901072184e-03 6.04320885597201e-05
2.03927777777778e+01 4.71106152114582e-03 6.00868759990593e-05
2.04716666666667e+01 4.67508094690966e-03 5.97431883887586e-05
2.05505555555556e+01 4.63937517308218e-03 5.94010255542073e-05
2.06294444444444e+01 4.60394210088495e-03 5.90603871898474e-05
2.07083333333333e+01 4.56877964756872e-03 5.87212728618662e-05
2.07872222222222e+01 4.53388574629132e-03 5.83836820109040e-05
2.08661111111111e+01 4.49925834599597e-03 5.80476139548281e-05
2.09450000000000e+01 4.46489541129080e-03 5.77130678238770e-05
2.10238888888889e+01 4.43079492249065e-03 5.73800427666968e-05
2.11027777777778e+01 4.39695487501088e-03 5.70485378167745e-05
2.11816666666667e+01 4.36337327974005e-03 5.67185517568901e-05
2.12605555555556e+01 4.33004816275849e-03 5.63900833293276e-05
2.13394444444444e+01 4.29697756522227e-03 5.60631311686737e-05
2.14183333333333e+01 4.26415954324796e-03 5.57376938040994e-05
2.14972222222222e+01 4.23159216779857e-03 5.54137696616761e-05
2.15761111111111e+01 4.19927352457004e-03 5.50913570667293e-05
2.16550000000000e+01 4.16720171387877e-03 5.47704541841238e-05
2.17338888888889e+01 4.13537485069571e-03 5.44510592072251e-05
2.18127777777778e+01 4.10379106409548e-03 5.41331702351227e-05
2.18916666666667e+01 4.07244849758919e-03 5.38167851480465e-05
2.19705555555556e+01 4.04134530886684e-03 5.35019018001537e-05
2.20494444444444e+01 4.01047966968899e-03 5.31885179576817e-05
2.21283333333333e+01 3.97984976577922e-03 5.28766313008869e-05
2.22072222222222e+01 3.94945379671769e-03 5.25662394260162e-05
2.22861111111111e+01 3.91928997583517e-03 5.22573398473185e-05
2.23650000000000e+01 3.88935653010806e-03 5.19499299420423e-05
2.24438888888889e+01 3.85965170018597e-03 5.16440071238395e-05
2.25227777777778e+01 3.83017373989050e-03 5.13395687298692e-05
2.26016666666667e+01 3.80092091651280e-03 5.10366119062216e-05
2.26805555555556e+01 3.77189151057756e-03 5.07351337848449e-05
2.27594444444444e+01 3.74308381574187e-03 5.04351314266070e-05
2.28383333333333e+01 3.71449613869488e-03 5.01366018229353e-05
2.29172222222222e+01 3.68612679905842e-03 4.98395418975014e-05
2.29961111111111e+01 3.65797412928815e-03 4.95439485079396e-05
2.30750000000000e+01 3.63003647457554e-03 4.92498183951800e-05
2.31538888888889e+01 3.60231219286980e-03 4.89571483426501e-05
2.32327777777778e+01 3.57479965442158e-03 4.86659350724197e-05
2.33116666666667e+01 3.54749724204914e-03 4.83761751397998e-05
2.33905555555556e+01 3.52040335092193e-03 4.80878650957917e-05
2.34694444444444e+01 3.49351638846622e-03 4.78010014346550e-05
2.35483333333333e+01 3.46683477427143e-03 4.75155805953008e-05
2.36272222222222e+01 3.44035693999739e-03 4.72315989627232e-05
2.37061111111111e+01 3.41408132928206e-03 4.69490528694608e-05
2.37850000000000e+01 3.38800639765007e-03 4.66679385489214e-05
2.38638888888889e+01 3.36213061252987e-03 4.63882522816196e-05
2.39427777777778e+01 3.33645245283784e-03 4.61099902995952e-05
2.40216666666667e+01 3.31097040921666e-03 4.58331486894237e-05
2.41005555555556e+01 3.28568298383669e-03 4.55577235414432e-05
2.41794444444444e+01 3.26058869030789e-03 4.52837109014511e-05
2.42583333333333e+01 3.23568605359243e-03 4.50111067718917e-05
2.43372222222222e+01 3.21097360991808e-03 4.47399071130773e-05
2.44161111111111e+01 3.18644990669210e-03 4.44701078444311e-05
2.44950000000000e+01 3.16211350241590e-03 4.42017048014580e-05
2.45738888888889e+01 3.13796296669810e-03 4.39346938701551e-05
2.46527777777778e+01 3.11399687987522e-03 4.36690708990146e-05
2.47316666666667e+01 3.09021383322524e-03 4.34048316097281e-05
2.48105555555556e+01 3.06661242878522e-03 4.31419717343391e-05
2.48894444444444e+01 3.04319127926911e-03 4.28804869707362e-05
