Energy (eV)          EEDF (eV^-(3/2))     First Anisotropy
2.39166666666667e-02 4.70351540149339e-02 2.27993177197396e-05
7.17500000000000e-02 4.67649300905984e-02 3.76666345782159e-05
1.19583333333333e-01 4.64962586422008e-02 4.97732086539903e-05
1.67416666666667e-01 4.62291307511490e-02 5.90005445364224e-05
2.15250000000000e-01 4.59635375497495e-02 6.67210297975488e-05
2.63083333333333e-01 4.56994702197869e-02 7.34526921505482e-05
3.10916666666667e-01 4.54369199961617e-02 7.94631929419279e-05
3.58750000000000e-01 4.51758781626779e-02 8.49139188990118e-05
4.06583333333333e-01 4.49163360526972e-02 8.99117430984088e-05
4.54416666666667e-01 4.46582850508170e-02 9.45320879701769e-05
5.02250000000000e-01 4.44017165903185e-02 9.88307017783543e-05
5.50083333333333e-01 4.41466221532789e-02 1.02850271132197e-04
5.97916666666667e-01 4.38929932717260e-02 1.06624405742976e-04
6.45750000000000e-01 4.36408215257814e-02 1.10180174183864e-04
6.93583333333333e-01 4.33900985436000e-02 1.13539789166943e-04
7.41416666666667e-01 4.31408160022090e-02 1.16721768934518e-04
7.89250000000000e-01 4.28929656260343e-02 1.19741761659752e-04
8.37083333333333e-01 4.26465391867647e-02 1.22613145333304e-04
8.84916666666667e-01 4.24015285039844e-02 1.25347474448693e-04
9.32750000000000e-01 4.21579254439432e-02 1.27954818758208e-04
9.80583333333333e-01 4.19157219193821e-02 1.30444024192852e-04
1.02841666666667e+00 4.16749098900222e-02 1.32822917238121e-04
1.07625000000000e+00 4.14354813621596e-02 1.35098467527400e-04
1.12408333333333e+00 4.11974283851739e-02 1.37276916825804e-04
1.17191666666667e+00 4.09607430585332e-02 1.39363884955298e-04
1.21975000000000e+00 4.07254175247756e-02 1.41364457111421e-04
1.26758333333333e+00 4.04914439697816e-02 1.43283253389944e-04
1.31541666666667e+00 4.02588146281499e-02 1.45124489115952e-04
1.36325000000000e+00 4.00275217770911e-02 1.46892025499301e-04
1.41108333333333e+00 3.97975577365905e-02 1.48589410076887e-04
1.45891666666667e+00 3.95689148741196e-02 1.50219913369367e-04
1.50675000000000e+00 3.93415855992473e-02 1.51786560260454e-04
1.55458333333333e+00 3.91155623637253e-02 1.53292154774384e-04
1.60241666666667e+00 3.88908376656621e-02 1.54739303630482e-04
1.65025000000000e+00 3.86674040447121e-02 1.56130436724152e-04
1.69808333333333e+00 3.84452540821060e-02 1.57467822916590e-04
1.74591666666667e+00 3.82243804043806e-02 1.58753585886774e-04
1.79375000000000e+00 3.80047756790439e-02 1.59989718094246e-04
1.84158333333333e+00 3.77864326145645e-02 1.61178091143016e-04
1.88941666666667e+00 3.75693439637291e-02 1.62320466875651e-04
1.93725000000000e+00 3.73535025197064e-02 1.63418507252041e-04
1.98508333333333e+00 3.71389011160053e-02 1.64473781298556e-04
2.03291666666667e+00 3.69255326295163e-02 1.65487773138870e-04
2.08075000000000e+00 3.67133899769139e-02 1.66461889211670e-04
2.12858333333333e+00 3.65024661145913e-02 1.67397462995297e-04
2.17641666666667e+00 3.62927540414295e-02 1.68295760995424e-04
2.22425000000000e+00 3.60842467954913e-02 1.69157988169785e-04
2.27208333333333e+00 3.58769374539375e-02 1.69985291161207e-04
2.31991666666667e+00 3.56708191355601e-02 1.70778762880339e-04
2.36775000000000e+00 3.54658849977294e-02 1.71539446686584e-04
2.41558333333333e+00 3.52621282362954e-02 1.72268338596337e-04
2.46341666666667e+00 3.50595420879150e-02 1.72966390873434e-04
2.51125000000000e+00 3.48581198272208e-02 1.73634515324906e-04
2.55908333333333e+00 3.46578547667111e-02 1.74273584790609e-04
2.60691666666667e+00 3.44587402588951e-02 1.74884436016052e-04
2.65475000000000e+00 3.42607696936575e-02 1.75467872303688e-04
2.70258333333333e+00 3.40639364981402e-02 1.76024664489817e-04
2.75041666666667e+00 3.38682341387253e-02 1.76555553287335e-04
2.79825000000000e+00 3.36736561185744e-02 1.77061251458233e-04
2.84608333333333e+00 3.34801959775032e-02 1.77542444419409e-04
2.89391666666667e+00 3.32878472938203e-02 1.77999792186237e-04
2.94175000000000e+00 3.30966036820229e-02 1.78433931182657e-04
2.98958333333333e+00 3.29064587926654e-02 1.78845474575288e-04
3.03741666666667e+00 3.27174063140691e-02 1.79235013911192e-04
3.08525000000000e+00 3.25294399701586e-02 1.79603120648922e-04
3.13308333333333e+00 3.23425535203256e-02 1.79950346291818e-04
3.18091666666667e+00 3.21567407610227e-02 1.80277223787734e-04
3.22875000000000e+00 3.19719955237263e-02 1.80584268842002e-04
3.27658333333333e+00 3.17883116747974e-02 1.80871979901214e-04
3.32441666666667e+00 3.16056831169699e-02 1.81140839364864e-04
3.37225000000000e+00 3.14241037874288e-02 1.81391314725395e-04
3.42008333333333e+00 3.12435676576686e-02 1.81623858440245e-04
3.46791666666667e+00 3.10640687348859e-02 1.81838908992856e-04
3.51575000000000e+00 3.08856010601627e-02 1.82036891893745e-04
3.56358333333333e+00 3.07081587083230e-02 1.82218219468835e-04
3.61141666666667e+00 3.05317357892384e-02 1.82383291798316e-04
3.65925000000000e+00 3.03563264461071e-02 1.82532497604675e-04
3.70708333333333e+00 3.01819248553103e-02 1.82666213978348e-04
3.75491666666667e+00 3.00085252276366e-02 1.82784807216368e-04
3.80275000000000e+00 2.98361218066509e-02 1.82888633617367e-04
3.85058333333333e+00 2.96647088685488e-02 1.82978039160538e-04
3.89841666666667e+00 2.94942807233091e-02 1.83053360261077e-04
3.94625000000000e+00 2.93248317131428e-02 1.83114924487823e-04
3.99408333333333e+00 2.91563562123485e-02 1.83163050207775e-04
4.04191666666667e+00 2.89888486283962e-02 1.83198047271774e-04
4.08975000000000e+00 2.88223034004530e-02 1.83220217667120e-04
4.13758333333333e+00 2.86567149992374e-02 1.83229855137013e-04
4.18541666666667e+00 2.84920779280420e-02 1.83227245807211e-04
4.23325000000000e+00 2.83283867213280e-02 1.83212668783473e-04
4.28108333333333e+00 2.81656359445807e-02 1.83186395753232e-04
4.32891666666667e+00 2.80038201952738e-02 1.83148691561847e-04
4.37675000000000e+00 2.78429341015301e-02 1.83099814762776e-04
4.42458333333333e+00 2.76829723219763e-02 1.83040017207170e-04
4.47241666666667e+00 2.75239295466548e-02 1.82969544576688e-04
4.52025000000000e+00 2.73658004957444e-02 1.82888636892872e-04
4.56808333333333e+00 2.72085799194162e-02 1.82797528099049e-04
4.61591666666667e+00 2.70522625986961e-02 1.82696446555462e-04
4.66375000000000e+00 2.68968433442412e-02 1.82585615513180e-04
4.71158333333333e+00 2.67423169961977e-02 1.82465252691796e-04
4.75941666666667e+00 2.65886784250163e-02 1.82335570741507e-04
4.80725000000000e+00 2.64359225302823e-02 1.82196777685937e-04
4.85508333333333e+00 2.62840442405739e-02 1.82049076498379e-04
4.90291666666667e+00 2.61330385142352e-02 1.81892665534769e-04
4.95075000000000e+00 2.59829003382556e-02 1.81727738949065e-04
4.99858333333333e+00 2.58336247281293e-02 1.81554486270182e-04
5.04641666666667e+00 2.56852067285882e-02 1.81373092809133e-04
5.09425000000000e+00 2.55376414125282e-02 1.81183740050035e-04
5.14208333333333e+00 2.53909238808692e-02 1.80986605229381e-04
5.18991666666667e+00 2.52450492632514e-02 1.80781861720144e-04
5.23775000000000e+00 2.51000127170046e-02 1.80569679400990e-04
5.28558333333333e+00 2.49558094270103e-02 1.80350224239269e-04
5.33341666666667e+00 2.48124346063622e-02 1.80123658654382e-04
5.38125000000000e+00 2.46698834953774e-02 1.79890141867344e-04
5.42908333333333e+00 2.45281513614594e-02 1.79649829488590e-04
5.47691666666667e+00 2.43872334997261e-02 1.79402873862612e-04
5.52475000000000e+00 2.42471252320596e-02 1.79149424399779e-04
5.57258333333333e+00 2.41078219069707e-02 1.78889627169691e-04
5.62041666666667e+00 2.39693189001964e-02 1.78623625228836e-04
5.66825000000000e+00 2.38316116137860e-02 1.78351558936329e-04
5.71608333333333e+00 2.36946954759675e-02 1.78073565553424e-04
5.76391666666667e+00 2.35585659417156e-02 1.77789779555632e-04
5.81175000000000e+00 2.34232184918732e-02 1.77500332933798e-04
5.85958333333333e+00 2.32886486330187e-02 1.77205354800234e-04
5.90741666666667e+00 2.31548518980075e-02 1.76904971686659e-04
5.95525000000000e+00 2.30218238451256e-02 1.76599307831777e-04
6.00308333333333e+00 2.28895600579589e-02 1.76288484794371e-04
6.05091666666667e+00 2.27580561459090e-02 1.75972621738216e-04
6.09875000000000e+00 2.26273077433780e-02 1.75651835707237e-04
6.14658333333333e+00 2.24973105096393e-02 1.75326241245835e-04
6.19441666666667e+00 2.23680601293293e-02 1.74995950671728e-04
6.24225000000000e+00 2.22395523116618e-02 1.74661074339600e-04
6.29008333333333e+00 2.21117827903005e-02 1.74321720268865e-04
6.33791666666667e+00 2.19847473238276e-02 1.73977994405373e-04
6.38575000000000e+00 2.18584416949866e-02 1.73630000874361e-04
6.43358333333333e+00 2.17328617105560e-02 1.73277841615690e-04
6.48141666666667e+00 2.16080032017974e-02 1.72921616635196e-04
6.52925000000000e+00 2.14838620237237e-02 1.72561424247738e-04
6.57708333333333e+00 2.13604340549754e-02 1.72197360720002e-04
6.62491666666667e+00 2.12377151982476e-02 1.71829520512130e-04
6.67275000000000e+00 2.11157013795846e-02 1.71457996511530e-04
6.72058333333333e+00 2.09943885482570e-02 1.71082879683253e-04
6.76841666666667e+00 2.08737726771699e-02 1.70704259302538e-04
6.81625000000000e+00 2.07538497621813e-02 1.70322223179992e-04
6.86408333333333e+00 2.06346158219814e-02 1.69936857319456e-04
6.91191666666667e+00 2.05160668984823e-02 1.69548246142093e-04
6.95975000000000e+00 2.03981990561597e-02 1.69156472703424e-04
7.00758333333333e+00 2.02810083819333e-02 1.68761618358709e-04
7.05541666666667e+00 2.01644909855400e-02 1.68363762979016e-04
7.10325000000000e+00 2.00486429988969e-02 1.67962985160601e-04
7.15108333333333e+00 1.99334605759843e-02 1.67559361897716e-04
7.19891666666667e+00 1.98189398932015e-02 1.67152968791158e-04
7.24675000000000e+00 1.97050771487517e-02 1.66743880250426e-04
7.29458333333333e+00 1.95918685625258e-02 1.66332169173842e-04
7.34241666666667e+00 1.94793103764438e-02 1.65917907150014e-04
7.39025000000000e+00 1.93673988538587e-02 1.65501164653150e-04
7.43808333333333e+00 1.92561302794427e-02 1.65082010730418e-04
7.48591666666667e+00 1.91455009595136e-02 1.64660513196660e-04
7.53375000000000e+00 1.90355072214579e-02 1.64236738823271e-04
7.58158333333333e+00 1.89261454136188e-02 1.63810753032651e-04
7.62941666666667e+00 1.88174119056084e-02 1.63382620086548e-04
7.67725000000000e+00 1.87093030877495e-02 1.62952403268809e-04
7.72508333333333e+00 1.86018153709651e-02 1.62520164586826e-04
7.77291666666667e+00 1.84949451870770e-02 1.62085964953790e-04
7.82075000000000e+00 1.83886889882658e-02 1.61649864365641e-04
7.86858333333333e+00 1.82830432469615e-02 1.61211921609371e-04
7.91641666666667e+00 1.81780044561300e-02 1.60772194439506e-04
7.96425000000000e+00 1.80735691287495e-02 1.60330739749552e-04
8.01208333333333e+00 1.79697337977031e-02 1.59887613286945e-04
8.05991666666667e+00 1.78664950160528e-02 1.59442869824105e-04
8.10775000000000e+00 1.77638493565328e-02 1.58996563324545e-04
8.15558333333333e+00 1.76617934114430e-02 1.58548746664487e-04
8.20341666666667e+00 1.75603237929120e-02 1.58099471798623e-04
8.25125000000000e+00 1.74594371324058e-02 1.57648789921174e-04
8.29908333333333e+00 1.73591300806227e-02 1.57196751193967e-04
8.34691666666667e+00 1.72593993077461e-02 1.56743404907181e-04
8.39475000000000e+00 1.71602415029670e-02 1.56288799635644e-04
8.44258333333333e+00 1.70616533743818e-02 1.55832982973152e-04
8.49041666666667e+00 1.69636316492333e-02 1.55376001688440e-04
8.53825000000000e+00 1.68661730734487e-02 1.54917901876882e-04
8.58608333333333e+00 1.67692744115384e-02 1.54458728700965e-04
8.63391666666667e+00 1.66729324468273e-02 1.53998526541697e-04
8.68175000000000e+00 1.65771439810064e-02 1.53537339145862e-04
8.72958333333333e+00 1.64819058340333e-02 1.53075209372538e-04
8.77741666666667e+00 1.63872148443539e-02 1.52612179340131e-04
8.82525000000000e+00 1.62930678684674e-02 1.52148290569371e-04
8.87308333333333e+00 1.61994617808284e-02 1.51683583735708e-04
8.92091666666667e+00 1.61063934740594e-02 1.51218098812137e-04
8.96875000000000e+00 1.60138598585285e-02 1.50751875208135e-04
9.01658333333333e+00 1.59218578622532e-02 1.50284951527822e-04
9.06441666666667e+00 1.58303844311043e-02 1.49817365708720e-04
9.11225000000000e+00 1.57394365283960e-02 1.49349155156802e-04
9.16008333333333e+00 1.56490111347904e-02 1.48880356510247e-04
9.20791666666667e+00 1.55591052484943e-02 1.48411005774297e-04
9.25575000000000e+00 1.54697158848603e-02 1.47941138452583e-04
9.30358333333333e+00 1.53808400762934e-02 1.47470789316345e-04
9.35141666666667e+00 1.52924748724395e-02 1.46999992535545e-04
9.39925000000000e+00 1.52046173397979e-02 1.46528781806576e-04
9.44708333333333e+00 1.51172645616296e-02 1.46057190126849e-04
9.49491666666667e+00 1.50304136381380e-02 1.45585249922302e-04
9.54275000000000e+00 1.49440616860929e-02 1.45112993171607e-04
9.59058333333333e+00 1.48582058387395e-02 1.44640451185972e-04
9.63841666666667e+00 1.47728432459727e-02 1.44167654733184e-04
9.68625000000000e+00 1.46879710739710e-02 1.43694634158493e-04
9.73408333333333e+00 1.46035865051075e-02 1.43221419169484e-04
9.78191666666667e+00 1.45196867381167e-02 1.42748038956767e-04
9.82975000000000e+00 1.44362689877395e-02 1.42274522311614e-04
9.87758333333333e+00 1.43533304846347e-02 1.41800897415825e-04
9.92541666666667e+00 1.42708684755398e-02 1.41327191959211e-04
9.97325000000000e+00 1.41888802229255e-02 1.40853433254058e-04
1.00210833333333e+01 1.41073630049091e-02 1.40379648029857e-04
1.00689166666667e+01 1.40263141154085e-02 1.39905862445764e-04
1.01167500000000e+01 1.39457308640435e-02 1.39432102712033e-04
1.01645833333333e+01 1.38656105748641e-02 1.38958393971685e-04
1.02124166666667e+01 1.37859505888731e-02 1.38484760818340e-04
1.02602500000000e+01 1.37067482615533e-02 1.38011228423796e-04
1.03080833333333e+01 1.36280009628222e-02 1.37537820515075e-04
1.03559166666667e+01 1.35497060792380e-02 1.37064560396885e-04
1.04037500000000e+01 1.34718610116016e-02 1.36591471948387e-04
1.04515833333333e+01 1.33944631749117e-02 1.36118577648577e-04
1.04994166666667e+01 1.33175100005016e-02 1.35645899573952e-04
1.05472500000000e+01 1.32409989337139e-02 1.35173460371318e-04
1.05950833333333e+01 1.31649274338554e-02 1.34701281330152e-04
1.06429166666667e+01 1.30892929762676e-02 1.34229383356206e-04
1.06907500000000e+01 1.30140930500715e-02 1.33757787921028e-04
1.07385833333333e+01 1.29393251581224e-02 1.33286515180016e-04
1.07864166666667e+01 1.28649868190161e-02 1.32815584922624e-04
1.08342500000000e+01 1.27910755649020e-02 1.32345017499260e-04
1.08820833333333e+01 1.27175889414369e-02 1.31874831983760e-04
1.09299166666667e+01 1.26445245097305e-02 1.31405047100898e-04
1.09777500000000e+01 1.25718798442228e-02 1.30935682131250e-04
1.10255833333333e+01 1.24996525326385e-02 1.30466755116922e-04
1.10734166666667e+01 1.24278401778730e-02 1.29998283766964e-04
1.11212500000000e+01 1.23564403959322e-02 1.29530286340814e-04
1.11690833333333e+01 1.22854508158874e-02 1.29062779896146e-04
1.12169166666667e+01 1.22148690817039e-02 1.28595781172754e-04
1.12647500000000e+01 1.21446928502414e-02 1.28129307455168e-04
1.13125833333333e+01 1.20749197912087e-02 1.27663374861493e-04
1.13604166666667e+01 1.20055475889377e-02 1.27197999206409e-04
1.14082500000000e+01 1.19365739404416e-02 1.26733196843492e-04
1.14560833333333e+01 1.18679965553703e-02 1.26268982993928e-04
1.15039166666667e+01 1.17998131577307e-02 1.25805372589194e-04
1.15517500000000e+01 1.17320214840015e-02 1.25342381093675e-04
1.15995833333333e+01 1.16646192830887e-02 1.24880022872183e-04
1.16474166666667e+01 1.15976043179947e-02 1.24418312012847e-04
1.16952500000000e+01 1.15309743639874e-02 1.23957263130577e-04
1.17430833333333e+01 1.14647272085561e-02 1.23496889772367e-04
1.17909166666667e+01 1.13988606530306e-02 1.23037205220931e-04
1.18387500000000e+01 1.13333725108033e-02 1.22578223279497e-04
1.18865833333333e+01 1.12682606072852e-02 1.22119956713919e-04
1.19344166666667e+01 1.12035227814770e-02 1.21662418037571e-04
1.19822500000000e+01 1.11391568842424e-02 1.21205620277970e-04
1.20300833333333e+01 1.10751607782638e-02 1.20749575454759e-04
1.20779166666667e+01 1.10115323395679e-02 1.20294295346352e-04
1.21257500000000e+01 1.09482694558471e-02 1.19839792238823e-04
1.21735833333333e+01 1.08853700264166e-02 1.19386077438848e-04
1.22214166666667e+01 1.08228319636945e-02 1.18933162022594e-04
1.22692500000000e+01 1.07606531915712e-02 1.18481057567369e-04
1.23170833333333e+01 1.06988316453664e-02 1.18029774698570e-04
1.23649166666667e+01 1.06373652732663e-02 1.17579323821313e-04
1.24127500000000e+01 1.05762520347388e-02 1.17129715835265e-04
1.24605833333333e+01 1.05154899004912e-02 1.16680960714754e-04
1.25084166666667e+01 1.04550768538648e-02 1.16233068223554e-04
1.25562500000000e+01 1.03950108892957e-02 1.15786048613391e-04
1.26040833333333e+01 1.03352900122717e-02 1.15339911236337e-04
1.26519166666667e+01 1.02759122406874e-02 1.14894665243200e-04
1.26997500000000e+01 1.02168756033475e-02 1.14450320266095e-04
1.27475833333333e+01 1.01581781399242e-02 1.14006885062306e-04
1.27954166666667e+01 1.00998179022735e-02 1.13564368196717e-04
1.28432500000000e+01 1.00417929529798e-02 1.13122778708870e-04
1.28910833333333e+01 9.98410136531361e-03 1.12682124787509e-04
1.29389166666667e+01 9.92674122451061e-03 1.12242414437422e-04
1.29867500000000e+01 9.86971062635586e-03 1.11803656131388e-04
1.30345833333333e+01 9.81300767714250e-03 1.11365857514626e-04
1.30824166666667e+01 9.75663049491383e-03 1.10929026056498e-04
1.31302500000000e+01 9.70057720808679e-03 1.10493169687689e-04
1.31780833333333e+01 9.64484595541094e-03 1.10058295533807e-04
1.32259166666667e+01 9.58943488717523e-03 1.09624410552332e-04
1.32737500000000e+01 9.53434216386928e-03 1.09191522155406e-04
1.33215833333333e+01 9.47956595614267e-03 1.08759636971893e-04
1.33694166666667e+01 9.42510444597765e-03 1.08328761469886e-04
1.34172500000000e+01 9.37095582538686e-03 1.07898902565515e-04
1.34650833333333e+01 9.31711829637309e-03 1.07470066412714e-04
1.35129166666667e+01 9.26359007206892e-03 1.07042259011699e-04
1.35607500000000e+01 9.21036937546982e-03 1.06615486804123e-04
1.36085833333333e+01 9.15745443939435e-03 1.06189755489858e-04
1.36564166666667e+01 9.10484350759175e-03 1.05765070621805e-04
1.37042500000000e+01 9.05253483350942e-03 1.05341438187716e-04
1.37520833333333e+01 9.00052668025341e-03 1.04918863453377e-04
1.37999166666667e+01 8.94881732166515e-03 1.04497351544044e-04
1.38477500000000e+01 8.89740504112208e-03 1.04076908013280e-04
1.38955833333333e+01 8.84628813149861e-03 1.03657537711849e-04
1.39434166666667e+01 8.79546489621280e-03 1.03239245356167e-04
1.39912500000000e+01 8.74493364805925e-03 1.02822036084463e-04
1.40390833333333e+01 8.69469270917042e-03 1.02405914350755e-04
1.40869166666667e+01 8.64474041203435e-03 1.01990884480620e-04
1.41347500000000e+01 8.59507509835864e-03 1.01576951214992e-04
1.41825833333333e+01 8.54569511903233e-03 1.01164118628616e-04
1.42304166666667e+01 8.49659883511535e-03 1.00752390673449e-04
1.42782500000000e+01 8.44778461673291e-03 1.00341771710409e-04
1.43260833333333e+01 8.39925084303764e-03 9.99322654517178e-05
1.43739166666667e+01 8.35099590317192e-03 9.95238754921978e-05
1.44217500000000e+01 8.30301819519152e-03 9.91166058292990e-05
1.44695833333333e+01 8.25531612602825e-03 9.87104598287224e-05
1.45174166666667e+01 8.20788811242580e-03 9.83054407439612e-05
1.45652500000000e+01 8.16073257989188e-03 9.79015522248414e-05
1.46130833333333e+01 8.11384796266130e-03 9.74987973058872e-05
1.46609166666667e+01 8.06723270460619e-03 9.70971789143847e-05
1.47087500000000e+01 8.02088525821578e-03 9.66967003677202e-05
1.47565833333333e+01 7.97480408455986e-03 9.62973643839412e-05
1.48044166666667e+01 7.92898765417425e-03 9.58991735786059e-05
1.48522500000000e+01 7.88343444606730e-03 9.55021309512184e-05
1.49000833333333e+01 7.83814294768384e-03 9.51062389174314e-05
1.49479166666667e+01 7.79311165576654e-03 9.47114997949633e-05
1.49957500000000e+01 7.74833907538845e-03 9.43179162793768e-05
1.50435833333333e+01 7.70382371991733e-03 9.39254904974153e-05
1.50914166666667e+01 7.65956411185372e-03 9.35342244822669e-05
