Energy (eV)          EEDF (eV^-(3/2))     First Anisotropy
8.21212121212121e-03 5.71074045442159e-01 3.69734402017146e-04
2.46363636363636e-02 5.65127452197686e-01 6.09406534522576e-04
4.10606060606061e-02 5.59242780822611e-01 8.01497532205202e-04
5.74848484848485e-02 5.53419386512196e-01 9.45624757582840e-04
7.39090909090909e-02 5.47656631202736e-01 1.06434351299393e-03
9.03333333333333e-02 5.41953883458000e-01 1.16622690809254e-03
1.06757575757576e-01 5.36310518418711e-01 1.25573388813389e-03
1.23181818181818e-01 5.30725917727936e-01 1.33557029227723e-03
1.39606060606061e-01 5.25199469492921e-01 1.40753935293712e-03
1.56030303030303e-01 5.19730568133749e-01 1.47292163873050e-03
1.72454545454545e-01 5.14318614451361e-01 1.53266956769162e-03
1.88878787878788e-01 5.08963015417558e-01 1.58751690616521e-03
2.05303030303030e-01 5.03663184241751e-01 1.63804491151345e-03
2.21727272727273e-01 4.98418540186053e-01 1.68472452832438e-03
2.38151515151515e-01 4.93228508612638e-01 1.72794450432663e-03
2.54575757575758e-01 4.88092520839327e-01 1.76803081795696e-03
2.71000000000000e-01 4.83010014088344e-01 1.80526048625528e-03
2.87424242424242e-01 4.77980431480950e-01 1.83987165801393e-03
3.03848484848485e-01 4.73003221900483e-01 1.87207113625374e-03
3.20272727272727e-01 4.68077840003671e-01 1.90204009659807e-03
3.36696969696970e-01 4.63203746107647e-01 1.92993851544173e-03
3.53121212121212e-01 4.58380406136570e-01 1.95590863065565e-03
3.69545454545455e-01 4.53607291603422e-01 1.98007770547375e-03
3.85969696969697e-01 4.48883879498097e-01 2.00256024621590e-03
4.02393939393939e-01 4.44209652281627e-01 2.02345980615691e-03
4.18818181818182e-01 4.39584097780197e-01 2.04287046722297e-03
4.35242424242424e-01 4.35006709176202e-01 2.06087806567209e-03
4.51666666666667e-01 4.30476984917543e-01 2.07756122168473e-03
4.68090909090909e-01 4.25994428665738e-01 2.09299219462669e-03
4.84515151515152e-01 4.21558549269885e-01 2.10723761808906e-03
5.00939393939394e-01 4.17168860674937e-01 2.12035912179045e-03
5.17363636363636e-01 4.12824881904952e-01 2.13241386553293e-03
5.33787878787879e-01 4.08526136975200e-01 2.14345500017851e-03
5.50212121212121e-01 4.04272154873953e-01 2.15353206588411e-03
5.66636363636364e-01 4.00062469485525e-01 2.16269134396510e-03
5.83060606060606e-01 3.95896619541086e-01 2.17097615556143e-03
5.99484848484849e-01 3.91774148589297e-01 2.17842713292263e-03
6.15909090909091e-01 3.87694604917993e-01 2.18508245465006e-03
6.32333333333333e-01 3.83657541532099e-01 2.19097805453064e-03
6.48757575757576e-01 3.79662516078097e-01 2.19614780752253e-03
6.65181818181818e-01 3.75709090821289e-01 2.20062369445681e-03
6.81606060606061e-01 3.71796832578611e-01 2.20443595359877e-03
6.98030303030303e-01 3.67925312672407e-01 2.20761320878339e-03
7.14454545454545e-01 3.64094106899931e-01 2.21018259229636e-03
7.30878787878788e-01 3.60302795464878e-01 2.21216985222630e-03
7.47303030303030e-01 3.56550962952758e-01 2.21359945003899e-03
7.63727272727273e-01 3.52838198264601e-01 2.21449464939575e-03
7.80151515151515e-01 3.49164094592108e-01 2.21487759592265e-03
7.96575757575758e-01 3.45528249357995e-01 2.21476939352681e-03
8.13000000000000e-01 3.41930264172736e-01 2.21419016729684e-03
8.29424242424242e-01 3.38369744804080e-01 2.21315912762285e-03
8.45848484848485e-01 3.34846301116298e-01 2.21169462591637e-03
8.62272727272727e-01 3.31359547044537e-01 2.20981420559359e-03
8.78696969696970e-01 3.27909100539736e-01 2.20753465224774e-03
8.95121212121212e-01 3.24494583527432e-01 2.20487203380034e-03
9.11545454545455e-01 3.21115621877621e-01 2.20184174349531e-03
9.27969696969697e-01 3.17771845348735e-01 2.19845853689649e-03
9.44393939393939e-01 3.14462887561730e-01 2.19473656652873e-03
9.60818181818182e-01 3.11188385945638e-01 2.19068941425918e-03
9.77242424242424e-01 3.07947981711801e-01 2.18633012063481e-03
9.93666666666667e-01 3.04741319804117e-01 2.18167121607183e-03
1.01009090909091e+00 3.01568048854372e-01 2.17672473938239e-03
1.02651515151515e+00 2.98427821178212e-01 2.17150226795157e-03
1.04293939393939e+00 2.95320292695532e-01 2.16601494844424e-03
1.05936363636364e+00 2.92245122880697e-01 2.16027349613493e-03
1.07578787878788e+00 2.89201974812107e-01 2.15428822760617e-03
1.09221212121212e+00 2.86190515047002e-01 2.14806908948122e-03
1.10863636363636e+00 2.83210413614632e-01 2.14162566051351e-03
1.12506060606061e+00 2.80261343980407e-01 2.13496717765607e-03
1.14148484848485e+00 2.77342982984882e-01 2.12810253806758e-03
1.15790909090909e+00 2.74455010884575e-01 2.12104032277848e-03
1.17433333333333e+00 2.71597111239554e-01 2.11378881957023e-03
1.19075757575758e+00 2.68768970905091e-01 2.10635602612103e-03
1.20718181818182e+00 2.65970279974514e-01 2.09874965437620e-03
1.22360606060606e+00 2.63200731814367e-01 2.09097715060381e-03
1.24003030303030e+00 2.60460022960678e-01 2.08304571487813e-03
1.25645454545455e+00 2.57747853109517e-01 2.07496230228937e-03
1.27287878787879e+00 2.55063925063357e-01 2.06673362539578e-03
1.28930303030303e+00 2.52407944761371e-01 2.05836617146761e-03
1.30572727272727e+00 2.49779621183445e-01 2.04986621930973e-03
1.32215151515152e+00 2.47178666339897e-01 2.04123983910817e-03
1.33857575757576e+00 2.44604795221044e-01 2.03249289350304e-03
1.35500000000000e+00 2.42057725823288e-01 2.02363105259847e-03
1.37142424242424e+00 2.39537179060096e-01 2.01465980866150e-03
1.38784848484848e+00 2.37042878751079e-01 2.00558447500729e-03
1.40427272727273e+00 2.34574551574490e-01 1.99641018607620e-03
1.42069696969697e+00 2.32131927089678e-01 1.98714191063828e-03
1.43712121212121e+00 2.29714737654337e-01 1.97778446476629e-03
1.45354545454545e+00 2.27322718413116e-01 1.96834251004722e-03
1.46996969696970e+00 2.24955607252825e-01 1.95882055293969e-03
1.48639393939394e+00 2.22613144821720e-01 1.94922295649537e-03
1.50281818181818e+00 2.20295074452436e-01 1.93955395190834e-03
1.51924242424242e+00 2.18001142150265e-01 1.92981763626010e-03
1.53566666666667e+00 2.15731096550867e-01 1.92001797135906e-03
1.55209090909091e+00 2.13484688936786e-01 1.91015879422636e-03
1.56851515151515e+00 2.11261673165557e-01 1.90024382745413e-03
1.58493939393939e+00 2.09061805657765e-01 1.89027667663495e-03
1.60136363636364e+00 2.06884845357072e-01 1.88026082883214e-03
1.61778787878788e+00 2.04730553744324e-01 1.87019966202287e-03
1.63421212121212e+00 2.02598694770369e-01 1.86009645444735e-03
1.65063636363636e+00 2.00489034843996e-01 1.84995437918718e-03
1.66706060606061e+00 1.98401342806430e-01 1.83977651299184e-03
1.68348484848485e+00 1.96335389893933e-01 1.82956583157144e-03
1.69990909090909e+00 1.94290949749220e-01 1.81932521790519e-03
1.71633333333333e+00 1.92267798359717e-01 1.80905747049287e-03
1.73275757575758e+00 1.90265714045531e-01 1.79876530047660e-03
1.74918181818182e+00 1.88284477424025e-01 1.78845132967714e-03
1.76560606060606e+00 1.86323871419459e-01 1.77811809816579e-03
1.78203030303030e+00 1.84383681205115e-01 1.76776807179724e-03
1.79845454545455e+00 1.82463694191288e-01 1.75740363927774e-03
1.81487878787879e+00 1.80563699991715e-01 1.74702711009684e-03
1.83130303030303e+00 1.78683490431653e-01 1.73664072145701e-03
1.84772727272727e+00 1.76822859493561e-01 1.72624664517816e-03
1.86415151515152e+00 1.74981603305173e-01 1.71584698475405e-03
1.88057575757576e+00 1.73159520107652e-01 1.70544377322361e-03
1.89700000000000e+00 1.71356410262302e-01 1.69503897953596e-03
1.91342424242424e+00 1.69572076199529e-01 1.68463451490126e-03
1.92984848484848e+00 1.67806322407037e-01 1.67423222986590e-03
1.94627272727273e+00 1.66058955399607e-01 1.66383391215744e-03
1.96269696969697e+00 1.64329783724594e-01 1.65344129254959e-03
1.97912121212121e+00 1.62618617913937e-01 1.64305605072119e-03
1.99554545454545e+00 1.60925270472502e-01 1.63267981237405e-03
2.01196969696970e+00 1.59249555849387e-01 1.62231414707584e-03
2.02839393939394e+00 1.57591290442356e-01 1.61196057367972e-03
2.04481818181818e+00 1.55950292552667e-01 1.60162056574450e-03
2.06124242424242e+00 1.54326382373597e-01 1.59129554871111e-03
2.07766666666667e+00 1.52719381963179e-01 1.58098689776292e-03
2.09409090909091e+00 1.51129115247702e-01 1.57069594284618e-03
2.11051515151515e+00 1.49555407979153e-01 1.56042397369600e-03
2.12693939393939e+00 1.47998087723952e-01 1.55017223708350e-03
2.14336363636364e+00 1.46456983837028e-01 1.53994193470793e-03
2.15978787878788e+00 1.44931927464508e-01 1.52973422785748e-03
2.17621212121212e+00 1.43422751503583e-01 1.51955024207948e-03
2.19263636363636e+00 1.41929290591473e-01 1.50939106288024e-03
2.20906060606061e+00 1.40451381087336e-01 1.49925774018246e-03
2.22548484848485e+00 1.38988861047892e-01 1.48915128451199e-03
2.24190909090909e+00 1.37541570229179e-01 1.47907267123749e-03
2.25833333333333e+00 1.36109350049273e-01 1.46902284482526e-03
2.27475757575758e+00 1.34692043577579e-01 1.45900271629031e-03
2.29118181818182e+00 1.33289495511624e-01 1.44901316121028e-03
2.30760606060606e+00 1.31901552178218e-01 1.43905502367792e-03
2.32403030303030e+00 1.30528061498239e-01 1.42912912027094e-03
2.34045454545455e+00 1.29168872976174e-01 1.41923623758982e-03
2.35687878787879e+00 1.27823837678032e-01 1.40937713032698e-03
2.37330303030303e+00 1.26492808231970e-01 1.39955252495739e-03
2.38972727272727e+00 1.25175638795014e-01 1.38976312344748e-03
2.40615151515152e+00 1.23872185042859e-01 1.38000960088154e-03
2.42257575757576e+00 1.22582304148833e-01 1.37029260358996e-03
2.43900000000000e+00 1.21305854784064e-01 1.36061275259942e-03
2.45542424242424e+00 1.20042697086005e-01 1.35097064710302e-03
2.47184848484848e+00 1.18792692648503e-01 1.34136686217578e-03
2.48827272727273e+00 1.17555704501757e-01 1.33180194696360e-03
2.50469696969697e+00 1.16331597112080e-01 1.32227642791328e-03
2.52112121212121e+00 1.15120236352121e-01 1.31279081202287e-03
2.53754545454545e+00 1.13921489491198e-01 1.30334558464579e-03
2.55396969696970e+00 1.12735225176203e-01 1.29394120774198e-03
2.57039393939394e+00 1.11561313431011e-01 1.28457812290498e-03
2.58681818181818e+00 1.10399625628287e-01 1.27525675440971e-03
2.60324242424242e+00 1.09250034480094e-01 1.26597750710395e-03
2.61966666666667e+00 1.08112414019688e-01 1.25674076472237e-03
2.63609090909091e+00 1.06986639600622e-01 1.24754689272634e-03
2.65251515151515e+00 1.05872587870047e-01 1.23839624116447e-03
2.66893939393939e+00 1.04770136759584e-01 1.22928914265002e-03
2.68536363636364e+00 1.03679165467972e-01 1.22022591073730e-03
2.70178787878788e+00 1.02599554459903e-01 1.21120684258833e-03
2.71821212121212e+00 1.01531185440727e-01 1.20223222166027e-03
2.73463636363636e+00 1.00473941347592e-01 1.19330231473522e-03
2.75106060606061e+00 9.94277063366265e-02 1.18441737449471e-03
2.76748484848485e+00 9.83923657665813e-02 1.17557763685918e-03
2.78390909090909e+00 9.73678061973607e-02 1.16678332344588e-03
2.80033333333333e+00 9.63539153663825e-02 1.15803464404840e-03
2.81675757575758e+00 9.53505821800613e-02 1.14933179480881e-03
2.83318181818182e+00 9.43576966981979e-02 1.14067495674058e-03
2.84960606060606e+00 9.33751501323293e-02 1.13206429804094e-03
2.86603030303030e+00 9.24028348233054e-02 1.12349997642461e-03
2.88245454545455e+00 9.14406442330351e-02 1.11498213737349e-03
2.89887878787879e+00 9.04884729295927e-02 1.10651091271846e-03
2.91530303030303e+00 8.95462165854099e-02 1.09808642281618e-03
2.93172727272727e+00 8.86137719560007e-02 1.08970877874702e-03
2.94815151515152e+00 8.76910368719661e-02 1.08137808063997e-03
2.96457575757576e+00 8.67779102247816e-02 1.07309441631157e-03
2.98100000000000e+00 8.58742919648572e-02 1.06485786331686e-03
2.99742424242424e+00 8.49800830813433e-02 1.05666849102044e-03
3.01384848484848e+00 8.40951855943907e-02 1.04852635899381e-03
3.03027272727273e+00 8.32195025415854e-02 1.04043151571029e-03
3.04669696969697e+00 8.23529379758990e-02 1.03238400047808e-03
3.06312121212121e+00 8.14953969465139e-02 1.02438384539312e-03
3.07954545454545e+00 8.06467854913345e-02 1.01643107380652e-03
3.09596969696970e+00 7.98070106240374e-02 1.00852569907330e-03
3.11239393939394e+00 7.89759803319312e-02 1.00066772637558e-03
3.12881818181818e+00 7.81536035577451e-02 9.92857154565033e-04
3.14524242424242e+00 7.73397901923856e-02 9.85093974697466e-04
3.16166666666667e+00 7.65344510625715e-02 9.77378168833986e-04
3.17809090909091e+00 7.57374979286225e-02 9.69709711761261e-04
3.19451515151515e+00 7.49488434671558e-02 9.62088572730639e-04
3.21093939393939e+00 7.41684012640840e-02 9.54514714057459e-04
3.22736363636364e+00 7.33960858028069e-02 9.46988089972646e-04
3.24378787878788e+00 7.26318124619436e-02 9.39508648246809e-04
3.26021212121212e+00 7.18754974988877e-02 9.32076331832522e-04
3.27663636363636e+00 7.11270580430409e-02 9.24691076858558e-04
3.29306060606061e+00 7.03864120867406e-02 9.17352814205723e-04
3.30948484848485e+00 6.96534784741022e-02 9.10061467698713e-04
3.32590909090909e+00 6.89281768986916e-02 9.02816955613170e-04
3.34233333333333e+00 6.82104278880963e-02 8.95619192200615e-04
3.35875757575758e+00 6.75001527974531e-02 8.88468086428804e-04
3.37518181818182e+00 6.67972737987893e-02 8.81363540945171e-04
3.39160606060606e+00 6.61017138786687e-02 8.74305453501083e-04
3.40803030303030e+00 6.54133968235188e-02 8.67293718393300e-04
3.42445454545455e+00 6.47322472133813e-02 8.60328225260315e-04
3.44087878787879e+00 6.40581904117279e-02 8.53408858090317e-04
3.45730303030303e+00 6.33911525630912e-02 8.46535496567605e-04
3.47372727272727e+00 6.27310605791069e-02 8.39708017435655e-04
3.49015151515152e+00 6.20778421324811e-02 8.32926293347212e-04
3.50657575757576e+00 6.14314256472595e-02 8.26190191914994e-04
3.52300000000000e+00 6.07917402964507e-02 8.19499576984981e-04
3.53942424242424e+00 6.01587159887465e-02 8.12854309925754e-04
3.55584848484849e+00 5.95322833627002e-02 8.06254248530124e-04
3.57227272727273e+00 5.89123737774267e-02 7.99699246106792e-04
3.58869696969697e+00 5.82989193102280e-02 7.93189152684934e-04
3.60512121212121e+00 5.76918527439552e-02 7.86723816234302e-04
3.62154545454545e+00 5.70911075613911e-02 7.80303081615982e-04
3.63796969696970e+00 5.64966179363624e-02 7.73926789713438e-04
3.65439393939394e+00 5.59083187313739e-02 7.67594778572517e-04
3.67081818181818e+00 5.53261454855781e-02 7.61306884556398e-04
3.68724242424242e+00 5.47500344093570e-02 7.55062941343287e-04
3.70366666666667e+00 5.41799223758275e-02 7.48862779095241e-04
3.72009090909091e+00 5.36157469184892e-02 7.42706225537408e-04
3.73651515151515e+00 5.30574462197713e-02 7.36593107051562e-04
3.75293939393939e+00 5.25049591058078e-02 7.30523247718724e-04
3.76936363636364e+00 5.19582250383162e-02 7.24496468524315e-04
3.78578787878788e+00 5.14171841122668e-02 7.18512588380052e-04
3.80221212121212e+00 5.08817770449755e-02 7.12571425159609e-04
3.81863636363636e+00 5.03519451710667e-02 7.06672794346748e-04
3.83506060606061e+00 4.98276304360497e-02 7.00816510029874e-04
3.85148484848485e+00 4.93087753886366e-02 6.95002383678033e-04
3.86790909090909e+00 4.87953231784388e-02 6.89230225092881e-04
3.88433333333333e+00 4.82872175457088e-02 6.83499843373942e-04
3.90075757575758e+00 4.77844028165336e-02 6.77811046058207e-04
3.91718181818182e+00 4.72868238954890e-02 6.72163638403975e-04
3.93360606060606e+00 4.67944262633674e-02 6.66557424292792e-04
3.95003030303030e+00 4.63071559674042e-02 6.60992207144211e-04
3.96645454545455e+00 4.58249596166462e-02 6.55467789094037e-04
3.98287878787879e+00 4.53477843749270e-02 6.49983970309528e-04
3.99930303030303e+00 4.48755779586294e-02 6.44540549844141e-04
4.01572727272727e+00 4.44082886273718e-02 6.39137326504697e-04
4.03215151515152e+00 4.39458651795457e-02 6.33774098066495e-04
4.04857575757576e+00 4.34882569455987e-02 6.28450660618457e-04
4.06500000000000e+00 4.30354137858324e-02 6.23166809373496e-04
4.08142424242424e+00 4.25872860815275e-02 6.17922339490583e-04
4.09784848484848e+00 4.21438247306445e-02 6.12717045325074e-04
4.11427272727273e+00 4.17049811413991e-02 6.07550719802733e-04
4.13069696969697e+00 4.12707072301002e-02 6.02423155187973e-04
4.14712121212121e+00 4.08409554126898e-02 5.97334143863423e-04
4.16354545454545e+00 4.04156786006025e-02 5.92283477614000e-04
4.17996969696970e+00 3.99948301946205e-02 5.87270947028290e-04
4.19639393939394e+00 3.95783640827524e-02 5.82296342227177e-04
4.21281818181818e+00 3.91662346321686e-02 5.77359453603316e-04
4.22924242424242e+00 3.87583966852134e-02 5.72460071137277e-04
4.24566666666667e+00 3.83548055535272e-02 5.67597983825201e-04
4.26209090909091e+00 3.79554170159683e-02 5.62772980369965e-04
4.27851515151515e+00 3.75601873109233e-02 5.57984849882728e-04
4.29493939393939e+00 3.71690731324676e-02 5.53233381229703e-04
4.31136363636364e+00 3.67820316247425e-02 5.48518362485028e-04
4.32778787878788e+00 3.63990203799207e-02 5.43839581586520e-04
4.34421212121212e+00 3.60199974308744e-02 5.39196827001221e-04
4.36063636363636e+00 3.56449212474778e-02 5.34589886811698e-04
4.37706060606061e+00 3.52737507320601e-02 5.30018549355549e-04
4.39348484848485e+00 3.49064452140818e-02 5.25482602395314e-04
4.40990909090909e+00 3.45429644481555e-02 5.20981833730860e-04
4.42633333333333e+00 3.41832686071368e-02 5.16516031821280e-04
4.44275757575758e+00 3.38273182786024e-02 5.12084985197516e-04
4.45918181818182e+00 3.34750744597572e-02 5.07688481969411e-04
4.47560606060606e+00 3.31264985555009e-02 5.03326310406875e-04
4.49203030303030e+00 3.27815523718381e-02 4.98998259530244e-04
4.50845454545455e+00 3.24401981124879e-02 4.94704118549208e-04
4.52487878787879e+00 3.21023983740112e-02 4.90443676391519e-04
4.54130303030303e+00 3.17681161439244e-02 4.86216722254661e-04
4.55772727272727e+00 3.14373147944121e-02 4.82023046166375e-04
4.57415151515151e+00 3.11099580790644e-02 4.77862438448660e-04
4.59057575757576e+00 3.07860101282146e-02 4.73734689267185e-04
4.60700000000000e+00 3.04654354470998e-02 4.69639589155095e-04
4.62342424242424e+00 3.01481989098618e-02 4.65576929545237e-04
4.63984848484848e+00 2.98342657564080e-02 4.61546502258152e-04
4.65627272727273e+00 2.95236015879496e-02 4.57548099071263e-04
4.67269696969697e+00 2.92161723652095e-02 4.53581512216291e-04
4.68912121212121e+00 2.89119444026977e-02 4.49646534884678e-04
4.70554545454545e+00 2.86108843656910e-02 4.45742960738442e-04
4.72196969696970e+00 2.83129592659632e-02 4.41870583498355e-04
4.73839393939394e+00 2.80181364600402e-02 4.38029197416321e-04
4.75481818181818e+00 2.77263836437363e-02 4.34218597755412e-04
4.77124242424242e+00 2.74376688492494e-02 4.30438580322613e-04
4.78766666666667e+00 2.71519604410737e-02 4.26688941075078e-04
4.80409090909091e+00 2.68692271143025e-02 4.22969476568793e-04
4.82051515151515e+00 2.65894378894131e-02 4.19279984414634e-04
4.83693939393939e+00 2.63125621094723e-02 4.15620262831913e-04
4.85336363636364e+00 2.60385694362248e-02 4.11990110271975e-04
4.86978787878788e+00 2.57674298484425e-02 4.08389325844430e-04
4.88621212121212e+00 2.54991136369467e-02 4.04817709750325e-04
4.90263636363636e+00 2.52335914019197e-02 4.01275062662202e-04
4.91906060606061e+00 2.49708340496848e-02 3.97761186140425e-04
4.93548484848485e+00 2.47108127890023e-02 3.94275882068422e-04
4.95190909090909e+00 2.44534991294746e-02 3.90818953051501e-04
4.96833333333333e+00 2.41988648768507e-02 3.87390202822349e-04
4.98475757575758e+00 2.39468821304666e-02 3.83989435839175e-04
5.00118181818182e+00 2.36975232797003e-02 3.80616456946400e-04
5.01760606060606e+00 2.34507610024225e-02 3.77271071753562e-04
5.03403030303030e+00 2.32065682605134e-02 3.73953087020669e-04
5.05045454545455e+00 2.29649182974014e-02 3.70662310274292e-04
5.06687878787879e+00 2.27257846346692e-02 3.67398549483090e-04
5.08330303030303e+00 2.24891410705505e-02 3.64161613417911e-04
5.09972727272727e+00 2.22549616756483e-02 3.60951312018094e-04
5.11615151515152e+00 2.20232207905689e-02 3.57767456024601e-04
5.13257575757576e+00 2.17938930226723e-02 3.54609856669771e-04
5.14900000000000e+00 2.15669532446139e-02 3.51478326019608e-04
5.16542424242424e+00 2.13423765902556e-02 3.48372677321956e-04
5.18184848484849e+00 2.11201384523906e-02 3.45292724655946e-04
