Energy (eV)          EEDF (eV^-(3/2))     First Anisotropy
7.76923076923077e-03 2.26040100968898e-01 1.05095227669229e-04
2.33076923076923e-02 2.24838658567070e-01 1.73664715911406e-04
3.88461538461538e-02 2.23643602036878e-01 2.29582184458900e-04
5.43846153846154e-02 2.22454897441445e-01 2.72261566636269e-04
6.99230769230769e-02 2.21272511016022e-01 3.08021359766663e-04
8.54615384615385e-02 2.20096409180777e-01 3.39245100846623e-04
1.01000000000000e-01 2.18926558531564e-01 3.67163628124452e-04
1.16538461538462e-01 2.17762925838692e-01 3.92518652511564e-04
1.32076923076923e-01 2.16605478061052e-01 4.15801072936115e-04
1.47615384615385e-01 2.15454182315459e-01 4.37357131872693e-04
1.63153846153846e-01 2.14309005910728e-01 4.57442609423528e-04
1.78692307692308e-01 2.13169916314372e-01 4.76253248426752e-04
1.94230769230769e-01 2.12036881180254e-01 4.93943082556312e-04
2.09769230769231e-01 2.10909868322092e-01 5.10636098211450e-04
2.25307692307692e-01 2.09788845730568e-01 5.26433981806035e-04
2.40846153846154e-01 2.08673781571691e-01 5.41421461516177e-04
2.56384615384615e-01 2.07564644170398e-01 5.55670093261688e-04
2.71923076923077e-01 2.06461402029458e-01 5.69241018599599e-04
2.87461538461538e-01 2.05364023810297e-01 5.82187016383971e-04
3.03000000000000e-01 2.04272478349061e-01 5.94554057945824e-04
3.18538461538462e-01 2.03186734639934e-01 6.06382506376428e-04
3.34076923076923e-01 2.02106761849034e-01 6.17708054520206e-04
3.49615384615385e-01 2.01032529299662e-01 6.28562468868528e-04
3.65153846153846e-01 1.99964006484499e-01 6.38974186027076e-04
3.80692307692308e-01 1.98901163052395e-01 6.48968796578252e-04
3.96230769230769e-01 1.97843968819198e-01 6.58569440974069e-04
4.11769230769231e-01 1.96792393755799e-01 6.67797137134062e-04
4.27307692307692e-01 1.95746407995369e-01 6.76671051127046e-04
4.42846153846154e-01 1.94705981832309e-01 6.85208728061146e-04
4.58384615384615e-01 1.93671085713974e-01 6.93426283496908e-04
4.73923076923077e-01 1.92641690249512e-01 7.01338567794651e-04
4.89461538461539e-01 1.91617766199778e-01 7.08959306469202e-04
5.05000000000000e-01 1.90599284485362e-01 7.16301220682105e-04
5.20538461538462e-01 1.89586216177270e-01 7.23376131536133e-04
5.36076923076923e-01 1.88578532504252e-01 7.30195050474138e-04
5.51615384615385e-01 1.87576204844155e-01 7.36768258280561e-04
5.67153846153846e-01 1.86579204730645e-01 7.43105374131964e-04
5.82692307692308e-01 1.85587503845137e-01 7.49215416460226e-04
5.98230769230769e-01 1.84601074022994e-01 7.55106856540344e-04
6.13769230769231e-01 1.83619887245969e-01 7.60787666388076e-04
6.29307692307692e-01 1.82643915646384e-01 7.66265359742883e-04
6.44846153846154e-01 1.81673131506238e-01 7.71547031577214e-04
6.60384615384615e-01 1.80707507251754e-01 7.76639390581469e-04
6.75923076923077e-01 1.79747015458717e-01 7.81548789626867e-04
6.91461538461538e-01 1.78791628845768e-01 7.86281252992014e-04
7.07000000000000e-01 1.77841320279371e-01 7.90842500798933e-04
7.22538461538462e-01 1.76896062767480e-01 7.95237971207778e-04
7.38076923076923e-01 1.75955829464165e-01 7.99472840420584e-04
7.53615384615385e-01 1.75020593663614e-01 8.03552040946049e-04
7.69153846153846e-01 1.74090328804461e-01 8.07480278122711e-04
7.84692307692308e-01 1.73165008464090e-01 8.11262045280873e-04
8.00230769230769e-01 1.72244606362686e-01 8.14901637503557e-04
8.15769230769231e-01 1.71329096357821e-01 8.18403164555745e-04
8.31307692307692e-01 1.70418452447160e-01 8.21770561461721e-04
8.46846153846154e-01 1.69512648767672e-01 8.25007600645020e-04
8.62384615384615e-01 1.68611659591609e-01 8.28117900757265e-04
8.77923076923077e-01 1.67715459330095e-01 8.31104935923467e-04
8.93461538461539e-01 1.66824022528194e-01 8.33972044124130e-04
9.09000000000000e-01 1.65937323868284e-01 8.36722434865562e-04
9.24538461538462e-01 1.65055338165345e-01 8.39359196360006e-04
9.40076923076923e-01 1.64178040370138e-01 8.41885302107500e-04
9.55615384615385e-01 1.63305405564692e-01 8.44303617080789e-04
9.71153846153846e-01 1.62437408965309e-01 8.46616903403761e-04
9.86692307692308e-01 1.61574025918232e-01 8.48827825707831e-04
1.00223076923077e+00 1.60715231902493e-01 8.50938956055504e-04
1.01776923076923e+00 1.59861002525747e-01 8.52952778401126e-04
1.03330769230769e+00 1.59011313527780e-01 8.54871693090120e-04
1.04884615384615e+00 1.58166140775639e-01 8.56698021526633e-04
1.06438461538462e+00 1.57325460264647e-01 8.58434010871255e-04
1.07992307692308e+00 1.56489248110023e-01 8.60081832122714e-04
1.09546153846154e+00 1.55657480569502e-01 8.61643587404507e-04
1.11100000000000e+00 1.54830134019138e-01 8.63121317051460e-04
1.12653846153846e+00 1.54007184960545e-01 8.64516996555359e-04
1.14207692307692e+00 1.53188610020235e-01 8.65832541335114e-04
1.15761538461538e+00 1.52374385948971e-01 8.67069811159934e-04
1.17315384615385e+00 1.51564489614223e-01 8.68230607132308e-04
1.18869230769231e+00 1.50758898020295e-01 8.69316677680795e-04
1.20423076923077e+00 1.49957588286702e-01 8.70329724429217e-04
1.21976923076923e+00 1.49160537654574e-01 8.71271398697138e-04
1.23530769230769e+00 1.48367723485991e-01 8.72143305313298e-04
1.25084615384615e+00 1.47579123263379e-01 8.72947004465283e-04
1.26638461538462e+00 1.46794714588850e-01 8.73684015129523e-04
1.28192307692308e+00 1.46014475177525e-01 8.74355811690460e-04
1.29746153846154e+00 1.45238382875178e-01 8.74963828898938e-04
1.31300000000000e+00 1.44466415639171e-01 8.75509466757777e-04
1.32853846153846e+00 1.43698551544020e-01 8.75994086816376e-04
1.34407692307692e+00 1.42934768780781e-01 8.76419015235082e-04
1.35961538461538e+00 1.42175045656438e-01 8.76785545634839e-04
1.37515384615385e+00 1.41419360587817e-01 8.77094935607146e-04
1.39069230769231e+00 1.40667692117488e-01 8.77348411040772e-04
1.40623076923077e+00 1.39920018896504e-01 8.77547170402985e-04
1.42176923076923e+00 1.39176319689395e-01 8.77692381005613e-04
1.43730769230769e+00 1.38436573373546e-01 8.77785181614017e-04
1.45284615384615e+00 1.37700758938629e-01 8.77826683409540e-04
1.46838461538462e+00 1.36968855485990e-01 8.77817972362595e-04
1.48392307692308e+00 1.36240842223188e-01 8.77760105742132e-04
1.49946153846154e+00 1.35516698478122e-01 8.77654115885348e-04
1.51500000000000e+00 1.34796403683607e-01 8.77501013940957e-04
1.53053846153846e+00 1.34079937381775e-01 8.77301786197616e-04
1.54607692307692e+00 1.33367279223495e-01 8.77057396305383e-04
1.56161538461538e+00 1.32658408967800e-01 8.76768787344147e-04
1.57715384615385e+00 1.31953306476871e-01 8.76436878397011e-04
1.59269230769231e+00 1.31251951728880e-01 8.76062567950988e-04
1.60823076923077e+00 1.30554324803901e-01 8.75646737282180e-04
1.62376923076923e+00 1.29860405887887e-01 8.75190246882005e-04
1.63930769230769e+00 1.29170175272096e-01 8.74693938423948e-04
1.65484615384615e+00 1.28483613352554e-01 8.74158635314037e-04
1.67038461538462e+00 1.27800700629485e-01 8.73585144491077e-04
1.68592307692308e+00 1.27121417702763e-01 8.72974253113116e-04
1.70146153846154e+00 1.26445745283434e-01 8.72326731608693e-04
1.71700000000000e+00 1.25773664181006e-01 8.71643336720788e-04
1.73253846153846e+00 1.25105155306983e-01 8.70924808075558e-04
1.74807692307692e+00 1.24440199674331e-01 8.70171869917668e-04
1.76361538461538e+00 1.23778778396939e-01 8.69385232727814e-04
1.77915384615385e+00 1.23120872685409e-01 8.68565590025043e-04
1.79469230769231e+00 1.22466463857610e-01 8.67713621172626e-04
1.81023076923077e+00 1.21815533326982e-01 8.66829994181819e-04
1.82576923076923e+00 1.21168062605756e-01 8.65915362413981e-04
1.84130769230769e+00 1.20524033304421e-01 8.64970366154306e-04
1.85684615384615e+00 1.19883427131219e-01 8.63995632950082e-04
1.87238461538462e+00 1.19246225891615e-01 8.62991779057903e-04
1.88792307692308e+00 1.18612411484454e-01 8.61959406390457e-04
1.90346153846154e+00 1.17981965911498e-01 8.60899105078701e-04
1.91900000000000e+00 1.17354871266795e-01 8.59811456035216e-04
1.93453846153846e+00 1.16731109739563e-01 8.58697027816375e-04
1.95007692307692e+00 1.16110663613685e-01 8.57556378042828e-04
1.96561538461538e+00 1.15493515267217e-01 8.56390054724284e-04
1.98115384615385e+00 1.14879647168801e-01 8.55198593333255e-04
1.99669230769231e+00 1.14269041886457e-01 8.53982519189080e-04
2.01223076923077e+00 1.13661682077738e-01 8.52742349845838e-04
2.02776923076923e+00 1.13057550492375e-01 8.51478592091104e-04
2.04330769230769e+00 1.12456629971783e-01 8.50191743254254e-04
2.05884615384615e+00 1.11858903448584e-01 8.48882291426327e-04
2.07438461538462e+00 1.11264353946116e-01 8.47550716666590e-04
2.08992307692308e+00 1.10672964575146e-01 8.46197488222820e-04
2.10546153846154e+00 1.10084718541862e-01 8.44823066732164e-04
2.12100000000000e+00 1.09499599138864e-01 8.43427906427572e-04
2.13653846153846e+00 1.08917589747558e-01 8.42012452292592e-04
2.15207692307692e+00 1.08338673837679e-01 8.40577141259375e-04
2.16761538461538e+00 1.07762834966824e-01 8.39122403326766e-04
2.18315384615385e+00 1.07190056777386e-01 8.37648658903459e-04
2.19869230769231e+00 1.06620323003939e-01 8.36156320871720e-04
2.21423076923077e+00 1.06053617464874e-01 8.34645796657609e-04
2.22976923076923e+00 1.05489924064589e-01 8.33117485514553e-04
2.24530769230769e+00 1.04929226793029e-01 8.31571779638281e-04
2.26084615384615e+00 1.04371509725241e-01 8.30009064316583e-04
2.27638461538462e+00 1.03816757020915e-01 8.28429718959310e-04
2.29192307692308e+00 1.03264952921550e-01 8.26834114579637e-04
2.30746153846154e+00 1.02716081757208e-01 8.25222615713194e-04
2.32300000000000e+00 1.02170127938820e-01 8.23595582344561e-04
2.33853846153846e+00 1.01627075960175e-01 8.21953367335376e-04
2.35407692307692e+00 1.01086910397482e-01 8.20296317455175e-04
2.36961538461538e+00 1.00549615908929e-01 8.18624774344051e-04
2.38515384615385e+00 1.00015177232029e-01 8.16939072107525e-04
2.40069230769231e+00 9.94835791898902e-02 8.15239539125513e-04
2.41623076923077e+00 9.89548066840373e-02 8.13526499868710e-04
2.43176923076923e+00 9.84288446962460e-02 8.11800272444630e-04
2.44730769230769e+00 9.79056782881136e-02 8.10061169563609e-04
2.46284615384615e+00 9.73852926006410e-02 8.08309498644236e-04
2.47838461538462e+00 9.68676728538077e-02 8.06545562707554e-04
2.49392307692308e+00 9.63528043441065e-02 8.04769658098496e-04
2.50946153846154e+00 9.58406724502983e-02 8.02982076176504e-04
2.52500000000000e+00 9.53312626267870e-02 8.01183105014223e-04
2.54053846153846e+00 9.48245604052875e-02 7.99373027074517e-04
2.55607692307692e+00 9.43205513944164e-02 7.97552120109575e-04
2.57161538461538e+00 9.38192212792846e-02 7.95720658001079e-04
2.58715384615385e+00 9.33205558191790e-02 7.93878908585149e-04
2.60269230769231e+00 9.28245408529231e-02 7.92027135251578e-04
2.61823076923077e+00 9.23311622926751e-02 7.90165598551259e-04
2.63376923076923e+00 9.18404061254725e-02 7.88294553979492e-04
2.64930769230769e+00 9.13522584128317e-02 7.86414252822703e-04
2.66484615384615e+00 9.08667052903574e-02 7.84524942235296e-04
2.68038461538462e+00 9.03837329673460e-02 7.82626866024373e-04
2.69592307692308e+00 8.99033277246293e-02 7.80720262588815e-04
2.71146153846154e+00 8.94254759195103e-02 7.78805366419676e-04
2.72700000000000e+00 8.89501639800185e-02 7.76882409608872e-04
2.74253846153846e+00 8.84773784063200e-02 7.74951619750101e-04
2.75807692307692e+00 8.80071057703347e-02 7.73013220730939e-04
2.77361538461538e+00 8.75393327153566e-02 7.71067433473483e-04
2.78915384615385e+00 8.70740459540197e-02 7.69114473966083e-04
2.80469230769231e+00 8.66112322729092e-02 7.67154554686830e-04
2.82023076923077e+00 8.61508785271685e-02 7.65187886035208e-04
2.83576923076923e+00 8.56929716418083e-02 7.63214674327920e-04
2.85130769230769e+00 8.52374986113332e-02 7.61235122547548e-04
2.86684615384615e+00 8.47844464993765e-02 7.59249430400052e-04
2.88238461538462e+00 8.43338024383306e-02 7.57257795009394e-04
2.89792307692308e+00 8.38855536274500e-02 7.55260409051958e-04
2.91346153846154e+00 8.34396873371088e-02 7.53257462095728e-04
2.92900000000000e+00 8.29961909037915e-02 7.51249141947632e-04
2.94453846153846e+00 8.25550517312904e-02 7.49235632754785e-04
2.96007692307692e+00 8.21162572903490e-02 7.47217115707444e-04
2.97561538461538e+00 8.16797951183072e-02 7.45193769696696e-04
2.99115384615385e+00 8.12456528173078e-02 7.43165769532166e-04
3.00669230769231e+00 8.08138180582835e-02 7.41133287215129e-04
3.02223076923077e+00 8.03842785762431e-02 7.39096493219478e-04
3.03776923076923e+00 7.99570221713863e-02 7.37055554678135e-04
3.05330769230769e+00 7.95320367087549e-02 7.35010636049470e-04
3.06884615384615e+00 7.91093101178922e-02 7.32961899160850e-04
3.08438461538462e+00 7.86888303924981e-02 7.30909503827463e-04
3.09992307692308e+00 7.82705855887521e-02 7.28853606162127e-04
3.11546153846154e+00 7.78545638290045e-02 7.26794359775562e-04
3.13100000000000e+00 7.74407532973860e-02 7.24731916984915e-04
3.14653846153846e+00 7.70291422408300e-02 7.22666427094115e-04
3.16207692307692e+00 7.66197189687396e-02 7.20598037021197e-04
3.17761538461538e+00 7.62124718526563e-02 7.18526891885734e-04
3.19315384615385e+00 7.58073893246723e-02 7.16453133393005e-04
3.20869230769231e+00 7.54044598808929e-02 7.14376900977172e-04
3.22423076923077e+00 7.50036720772976e-02 7.12298332952148e-04
3.23976923076923e+00 7.46050145306926e-02 7.10217564868117e-04
3.25530769230769e+00 7.42084759183870e-02 7.08134730107404e-04
3.27084615384615e+00 7.38140449778732e-02 7.06049959918675e-04
3.28638461538462e+00 7.34217105065058e-02 7.03963383970578e-04
3.30192307692308e+00 7.30314613600133e-02 7.01875128818481e-04
3.31746153846154e+00 7.26432864557115e-02 6.99785318984604e-04
3.33300000000000e+00 7.22571747686390e-02 6.97694078045291e-04
3.34853846153846e+00 7.18731153324337e-02 6.95601527071719e-04
3.36407692307692e+00 7.14910972390217e-02 6.93507785192350e-04
3.37961538461538e+00 7.11111096383080e-02 6.91412970119681e-04
3.39515384615385e+00 7.07331417367651e-02 6.89317196683786e-04
3.41069230769231e+00 7.03571828004525e-02 6.87220577862020e-04
3.42623076923077e+00 6.99832221513677e-02 6.85123225816224e-04
3.44176923076923e+00 6.96112491682635e-02 6.83025250401675e-04
3.45730769230769e+00 6.92412532863456e-02 6.80926759701961e-04
3.47284615384615e+00 6.88732239969746e-02 6.78827860056049e-04
3.48838461538462e+00 6.85071508473663e-02 6.76728656555854e-04
3.50392307692308e+00 6.81430234392663e-02 6.74629251653778e-04
3.51946153846154e+00 6.77808314317571e-02 6.72529746137038e-04
3.53500000000000e+00 6.74205645378455e-02 6.70430240108989e-04
3.55053846153846e+00 6.70622125252145e-02 6.68330831573607e-04
3.56607692307692e+00 6.67057652159341e-02 6.66231616941232e-04
3.58161538461538e+00 6.63512124861721e-02 6.64132691502626e-04
3.59715384615385e+00 6.59985442649354e-02 6.62034148096677e-04
3.61269230769231e+00 6.56477505367124e-02 6.59936078040425e-04
3.62823076923077e+00 6.52988213382440e-02 6.57838572065900e-04
3.64376923076923e+00 6.49517467592279e-02 6.55741718965825e-04
3.65930769230769e+00 6.46065169420359e-02 6.53645606075612e-04
3.67484615384615e+00 6.42631220814355e-02 6.51550319294707e-04
3.69038461538462e+00 6.39215524243111e-02 6.49455943535254e-04
3.70592307692308e+00 6.35817982684791e-02 6.47362561456135e-04
3.72146153846154e+00 6.32438499651490e-02 6.45270254344106e-04
3.73700000000000e+00 6.29076979158983e-02 6.43179103001339e-04
3.75253846153846e+00 6.25733325733217e-02 6.41089186458797e-04
3.76807692307692e+00 6.22407444407597e-02 6.39000582432614e-04
3.78361538461538e+00 6.19099240720298e-02 6.36913367751837e-04
3.79915384615385e+00 6.15808620703001e-02 6.34827617146605e-04
3.81469230769231e+00 6.12535490904085e-02 6.32743404089959e-04
3.83023076923077e+00 6.09279758359978e-02 6.30660801646158e-04
3.84576923076923e+00 6.06041330601222e-02 6.28579881238970e-04
3.86130769230769e+00 6.02820115649846e-02 6.26500713086866e-04
3.87684615384615e+00 5.99616022016764e-02 6.24423366220478e-04
3.89238461538462e+00 5.96428958699172e-02 6.22347908888088e-04
3.90792307692308e+00 5.93258835169934e-02 6.20274407403267e-04
3.92346153846154e+00 5.90105561399219e-02 6.18202926943332e-04
3.93900000000000e+00 5.86969047827610e-02 6.16133532353945e-04
3.95453846153846e+00 5.83849205371713e-02 6.14066286978174e-04
3.97007692307692e+00 5.80745945421624e-02 6.12001253069102e-04
3.98561538461539e+00 5.77659179838424e-02 6.09938492177152e-04
4.00115384615385e+00 5.74588820944066e-02 6.07878064046381e-04
4.01669230769231e+00 5.71534781541804e-02 6.05820027377901e-04
4.03223076923077e+00 5.68496974890680e-02 6.03764440599473e-04
4.04776923076923e+00 5.65475314710780e-02 6.01711360744023e-04
4.06330769230769e+00 5.62469715180778e-02 5.99660843843773e-04
4.07884615384615e+00 5.59480090935510e-02 5.97612944944398e-04
4.09438461538462e+00 5.56506357063540e-02 5.95567718472238e-04
4.10992307692308e+00 5.53548429097633e-02 5.93525217184446e-04
4.12546153846154e+00 5.50606223033826e-02 5.91485492893872e-04
4.14100000000000e+00 5.47679655307458e-02 5.89448597199377e-04
4.15653846153846e+00 5.44768642798025e-02 5.87414580419220e-04
4.17207692307692e+00 5.41873102826826e-02 5.85383491965205e-04
4.18761538461538e+00 5.38992953154613e-02 5.83355380693569e-04
4.20315384615385e+00 5.36128111972506e-02 5.81330293898930e-04
4.21869230769231e+00 5.33278497920017e-02 5.79308278007943e-04
4.23423076923077e+00 5.30444030062290e-02 5.77289379278549e-04
4.24976923076923e+00 5.27624627894647e-02 5.75273642777778e-04
4.26530769230769e+00 5.24820211340307e-02 5.73261112739148e-04
4.28084615384615e+00 5.22030700748113e-02 5.71251832574372e-04
4.29638461538462e+00 5.19256016890269e-02 5.69245845206710e-04
4.31192307692308e+00 5.16496080953755e-02 5.67243192113402e-04
4.32746153846154e+00 5.13750814557185e-02 5.65243913984642e-04
4.34300000000000e+00 5.11020139729390e-02 5.63248051387798e-04
4.35853846153846e+00 5.08303978913627e-02 5.61255643794794e-04
4.37407692307692e+00 5.05602254965381e-02 5.59266729921642e-04
4.38961538461538e+00 5.02914891150177e-02 5.57281348047179e-04
4.40515384615385e+00 5.00241811135389e-02 5.55299535095219e-04
4.42069230769231e+00 4.97582939006185e-02 5.53321327265493e-04
4.43623076923077e+00 4.94938199245170e-02 5.51346760669914e-04
4.45176923076923e+00 4.92307516736336e-02 5.49375870400075e-04
4.46730769230769e+00 4.89690816762923e-02 5.47408690852033e-04
4.48284615384615e+00 4.87088025005313e-02 5.45445255735940e-04
4.49838461538462e+00 4.84499067538906e-02 5.43485598378953e-04
4.51392307692308e+00 4.81923870826381e-02 5.41529750851259e-04
4.52946153846154e+00 4.79362361732624e-02 5.39577744565928e-04
4.54500000000000e+00 4.76814467505550e-02 5.37629610883762e-04
4.56053846153846e+00 4.74280115779758e-02 5.35685380225517e-04
4.57607692307692e+00 4.71759234574486e-02 5.33745082380634e-04
4.59161538461538e+00 4.69251752291563e-02 5.31808746797240e-04
4.60715384615385e+00 4.66757597708014e-02 5.29876401743791e-04
4.62269230769231e+00 4.64276699990198e-02 5.27948074883931e-04
4.63823076923077e+00 4.61808988675556e-02 5.26023793856150e-04
4.65376923076923e+00 4.59354393676051e-02 5.24103585422276e-04
4.66930769230769e+00 4.56912845276171e-02 5.22187475763009e-04
4.68484615384615e+00 4.54484274130959e-02 5.20275490485898e-04
4.70038461538462e+00 4.52068611264038e-02 5.18367654901151e-04
4.71592307692308e+00 4.49665788060612e-02 5.16463993223004e-04
4.73146153846154e+00 4.47275736280715e-02 5.14564529116652e-04
4.74700000000000e+00 4.44898388041999e-02 5.12669286249614e-04
4.76253846153846e+00 4.42533675822920e-02 5.10778287480620e-04
4.77807692307692e+00 4.40181532460825e-02 5.08891555140833e-04
4.79361538461538e+00 4.37841891150041e-02 5.07009111297865e-04
4.80915384615385e+00 4.35514685435192e-02 5.05130976989585e-04
4.82469230769231e+00 4.33199849223747e-02 5.03257172748441e-04
4.84023076923077e+00 4.30897316769634e-02 5.01387719130166e-04
4.85576923076923e+00 4.28607022676234e-02 4.99522635935504e-04
4.87130769230769e+00 4.26328901894516e-02 4.97661942479430e-04
4.88684615384615e+00 4.24062889721204e-02 4.95805657597939e-04
4.90238461538462e+00 4.21808921796927e-02 4.93953799899412e-04
