Energy (eV)          EEDF (eV^-(3/2))     First Anisotropy
5.66037735849057e-03 4.91790206372581e-01 2.52027128561504e-04
1.69811320754717e-02 4.88593194232731e-01 4.16214949738088e-04
2.83018867924528e-02 4.85416965116140e-01 5.49574171098003e-04
3.96226415094340e-02 4.82261383906615e-01 6.50963313356321e-04
5.09433962264151e-02 4.79126316389688e-01 7.35585318071763e-04
6.22641509433962e-02 4.76011629209048e-01 8.09185044960355e-04
7.35849056603774e-02 4.72917189876223e-01 8.74733904461788e-04
8.49056603773585e-02 4.69842866764257e-01 9.34025323922218e-04
9.62264150943396e-02 4.66788529102202e-01 9.88248131372548e-04
1.07547169811321e-01 4.63754046980067e-01 1.03824214353401e-03
1.18867924528302e-01 4.60739291302424e-01 1.08462872277025e-03
1.30188679245283e-01 4.57744133833403e-01 1.12788411877197e-03
1.41509433962264e-01 4.54768447170452e-01 1.16838368126247e-03
1.52830188679245e-01 4.51812104759755e-01 1.20643000930115e-03
1.64150943396226e-01 4.48874980828478e-01 1.24227166375038e-03
1.75471698113208e-01 4.45956950442142e-01 1.27611606084387e-03
1.86792452830189e-01 4.43057889494564e-01 1.30813864347410e-03
1.98113207547170e-01 4.40177674654029e-01 1.33848954729292e-03
2.09433962264151e-01 4.37316183406854e-01 1.36729856342061e-03
2.20754716981132e-01 4.34473294035645e-01 1.39467890985276e-03
2.32075471698113e-01 4.31648885626845e-01 1.42073014068139e-03
2.43396226415094e-01 4.28842838027591e-01 1.44554041841087e-03
2.54716981132075e-01 4.26055031878757e-01 1.46918831432780e-03
2.66037735849057e-01 4.23285348607724e-01 1.49174426603074e-03
2.77358490566038e-01 4.20533670391438e-01 1.51327174851947e-03
2.88679245283019e-01 4.17799880183506e-01 1.53382823424688e-03
3.00000000000000e-01 4.15083861698338e-01 1.55346599181440e-03
3.11320754716981e-01 4.12385499415130e-01 1.57223275133912e-03
3.22641509433962e-01 4.09704678546297e-01 1.59017225853296e-03
3.33962264150943e-01 4.07041285059345e-01 1.60732474252556e-03
3.45283018867925e-01 4.04395205663132e-01 1.62372731863315e-03
3.56603773584906e-01 4.01766327810464e-01 1.63941433286217e-03
3.67924528301887e-01 3.99154539670653e-01 1.65441765413682e-03
3.79245283018868e-01 3.96559730147581e-01 1.66876692559206e-03
3.90566037735849e-01 3.93981788874024e-01 1.68248979252450e-03
4.01886792452830e-01 3.91420606186830e-01 1.69561209227692e-03
4.13207547169811e-01 3.88876073142456e-01 1.70815802136294e-03
4.24528301886792e-01 3.86348081505597e-01 1.72015028669473e-03
4.35849056603774e-01 3.83836523750367e-01 1.73161023905016e-03
4.47169811320755e-01 3.81341293038154e-01 1.74255798776006e-03
4.58490566037736e-01 3.78862283230750e-01 1.75301250153641e-03
4.69811320754717e-01 3.76399388885208e-01 1.76299170679067e-03
4.81132075471698e-01 3.73952505233461e-01 1.77251256765291e-03
4.92452830188679e-01 3.71521528193820e-01 1.78159115844420e-03
5.03773584905660e-01 3.69106354361215e-01 1.79024273253442e-03
5.15094339622642e-01 3.66706881007465e-01 1.79848178436164e-03
5.26415094339623e-01 3.64323006062779e-01 1.80632210232890e-03
5.37735849056604e-01 3.61954628125610e-01 1.81377681575472e-03
5.49056603773585e-01 3.59601646457900e-01 1.82085844491641e-03
5.60377358490566e-01 3.57263960967856e-01 1.82757893954144e-03
5.71698113207547e-01 3.54941472218677e-01 1.83394971454614e-03
5.83018867924528e-01 3.52634081419980e-01 1.83998168593791e-03
5.94339622641509e-01 3.50341690427456e-01 1.84568530360151e-03
6.05660377358491e-01 3.48064201727041e-01 1.85107057853137e-03
6.16981132075472e-01 3.45801518442472e-01 1.85614710698907e-03
6.28301886792453e-01 3.43553544330837e-01 1.86092409933801e-03
6.39622641509434e-01 3.41320183767709e-01 1.86541040029028e-03
6.50943396226415e-01 3.39101341753890e-01 1.86961450818355e-03
6.62264150943396e-01 3.36896923907748e-01 1.87354459570410e-03
6.73584905660377e-01 3.34706836464452e-01 1.87720852899156e-03
6.84905660377358e-01 3.32530986262186e-01 1.88061388279204e-03
6.96226415094340e-01 3.30369280748024e-01 1.88376795376324e-03
7.07547169811321e-01 3.28221627973732e-01 1.88667777878026e-03
7.18867924528302e-01 3.26087936582744e-01 1.88935014624971e-03
7.30188679245283e-01 3.23968115815430e-01 1.89179160719645e-03
7.41509433962264e-01 3.21862075502161e-01 1.89400848821877e-03
7.52830188679245e-01 3.19769726062252e-01 1.89600690350821e-03
7.64150943396226e-01 3.17690978491794e-01 1.89779276376602e-03
7.75471698113207e-01 3.15625744368259e-01 1.89937178386778e-03
7.86792452830189e-01 3.13573935846527e-01 1.90074949541856e-03
7.98113207547170e-01 3.11535465647338e-01 1.90193125332623e-03
8.09433962264151e-01 3.09510247061428e-01 1.90292224247707e-03
8.20754716981132e-01 3.07498193943204e-01 1.90372748637366e-03
8.32075471698113e-01 3.05499220709475e-01 1.90435185518356e-03
8.43396226415094e-01 3.03513242328607e-01 1.90480007119944e-03
8.54716981132075e-01 3.01540174324142e-01 1.90507671336855e-03
8.66037735849057e-01 2.99579932771029e-01 1.90518622645464e-03
8.77358490566038e-01 2.97632434285289e-01 1.90513292493473e-03
8.88679245283019e-01 2.95697596027267e-01 1.90492099714662e-03
9.00000000000000e-01 2.93775335695824e-01 1.90455451136428e-03
9.11320754716981e-01 2.91865571526924e-01 1.90403742147202e-03
9.22641509433962e-01 2.89968222283880e-01 1.90337357039798e-03
9.33962264150943e-01 2.88083207260200e-01 1.90256669329663e-03
9.45283018867924e-01 2.86210446274052e-01 1.90162042262586e-03
9.56603773584906e-01 2.84349859666779e-01 1.90053829289178e-03
9.67924528301887e-01 2.82501368293676e-01 1.89932374329597e-03
9.79245283018868e-01 2.80664893526492e-01 1.89798011972619e-03
9.90566037735849e-01 2.78840357249946e-01 1.89651068091249e-03
1.00188679245283e+00 2.77027681852899e-01 1.89491860012369e-03
1.01320754716981e+00 2.75226790230583e-01 1.89320696497799e-03
1.02452830188679e+00 2.73437605788036e-01 1.89137879057798e-03
1.03584905660377e+00 2.71660052402532e-01 1.88943700848601e-03
1.04716981132075e+00 2.69894054480180e-01 1.88738447790528e-03
1.05849056603774e+00 2.68139536885084e-01 1.88522398646110e-03
1.06981132075472e+00 2.66396425002663e-01 1.88295825194802e-03
1.08113207547170e+00 2.64664644671046e-01 1.88058992519455e-03
1.09245283018868e+00 2.62944122242292e-01 1.87812159162532e-03
1.10377358490566e+00 2.61234784515914e-01 1.87555577392077e-03
1.11509433962264e+00 2.59536558798098e-01 1.87289493341588e-03
1.12641509433962e+00 2.57849372837269e-01 1.87014147257506e-03
1.13773584905660e+00 2.56173154881391e-01 1.86729773624452e-03
1.14905660377358e+00 2.54507833615487e-01 1.86436601396067e-03
1.16037735849057e+00 2.52853338217109e-01 1.86134854107189e-03
1.17169811320755e+00 2.51209598295730e-01 1.85824750089588e-03
1.18301886792453e+00 2.49576543946452e-01 1.85506502572505e-03
1.19433962264151e+00 2.47954105691206e-01 1.85180319884640e-03
1.20566037735849e+00 2.46342214530768e-01 1.84846405177926e-03
1.21698113207547e+00 2.44740801900676e-01 1.84504958085056e-03
1.22830188679245e+00 2.43149799669585e-01 1.84156172606441e-03
1.23962264150943e+00 2.41569140174671e-01 1.83800238712226e-03
1.25094339622641e+00 2.39998756167732e-01 1.83437342132148e-03
1.26226415094340e+00 2.38438580862597e-01 1.83067664425015e-03
1.27358490566038e+00 2.36888547882755e-01 1.82691383140473e-03
1.28490566037736e+00 2.35348591307332e-01 1.82308671881200e-03
1.29622641509434e+00 2.33818645620205e-01 1.81919700455639e-03
1.30754716981132e+00 2.32298645754595e-01 1.81524634933625e-03
1.31886792452830e+00 2.30788527043605e-01 1.81123637790720e-03
1.33018867924528e+00 2.29288225263491e-01 1.80716867957969e-03
1.34150943396226e+00 2.27797676585570e-01 1.80304480958532e-03
1.35283018867925e+00 2.26316817618215e-01 1.79886628952090e-03
1.36415094339623e+00 2.24845585360086e-01 1.79463460864338e-03
1.37547169811321e+00 2.23383917240898e-01 1.79035122426589e-03
1.38679245283019e+00 2.21931751075926e-01 1.78601756298671e-03
1.39811320754717e+00 2.20489025105588e-01 1.78163501799670e-03
1.40943396226415e+00 2.19055677961212e-01 1.77720496244807e-03
1.42075471698113e+00 2.17631648663298e-01 1.77272873153400e-03
1.43207547169811e+00 2.16216876648564e-01 1.76820763544205e-03
1.44339622641509e+00 2.14811301727909e-01 1.76364295726467e-03
1.45471698113208e+00 2.13414864122765e-01 1.75903595326503e-03
1.46603773584906e+00 2.12027504424171e-01 1.75438785390452e-03
1.47735849056604e+00 2.10649163628115e-01 1.74969986407739e-03
1.48867924528302e+00 2.09279783095663e-01 1.74497316409119e-03
1.50000000000000e+00 2.07919304587322e-01 1.74020890987291e-03
1.51132075471698e+00 2.06567670224200e-01 1.73540823390556e-03
1.52264150943396e+00 2.05224822521422e-01 1.73057224540800e-03
1.53396226415094e+00 2.03890704350287e-01 1.72570203123074e-03
1.54528301886792e+00 2.02565258970761e-01 1.72079865601147e-03
1.55660377358491e+00 2.01248429994605e-01 1.71586316303303e-03
1.56792452830189e+00 1.99940161416979e-01 1.71089657435717e-03
1.57924528301887e+00 1.98640397580508e-01 1.70589989164625e-03
1.59056603773585e+00 1.97349083206024e-01 1.70087409627731e-03
1.60188679245283e+00 1.96066163357536e-01 1.69582015013072e-03
1.61320754716981e+00 1.94791583472147e-01 1.69073899317813e-03
1.62452830188679e+00 1.93525289333588e-01 1.68563155428279e-03
1.63584905660377e+00 1.92267227070529e-01 1.68049873626858e-03
1.64716981132075e+00 1.91017343177048e-01 1.67534142640295e-03
1.65849056603774e+00 1.89775584480042e-01 1.67016049449839e-03
1.66981132075472e+00 1.88541898166893e-01 1.66495679297419e-03
1.68113207547170e+00 1.87316231753676e-01 1.65973115753681e-03
1.69245283018868e+00 1.86098533112092e-01 1.65448440722838e-03
1.70377358490566e+00 1.84888750438459e-01 1.64921734508162e-03
1.71509433962264e+00 1.83686832279937e-01 1.64393075815568e-03
1.72641509433962e+00 1.82492727504265e-01 1.63862541816713e-03
1.73773584905660e+00 1.81306385325310e-01 1.63330208151475e-03
1.74905660377358e+00 1.80127755273531e-01 1.62796148988766e-03
1.76037735849057e+00 1.78956787220865e-01 1.62260437027972e-03
1.77169811320755e+00 1.77793431351897e-01 1.61723143557598e-03
1.78301886792453e+00 1.76637638188110e-01 1.61184338455787e-03
1.79433962264151e+00 1.75489358559737e-01 1.60644090246911e-03
1.80566037735849e+00 1.74348543629390e-01 1.60102465889251e-03
1.81698113207547e+00 1.73215144870726e-01 1.59559531679040e-03
1.82830188679245e+00 1.72089114066847e-01 1.59015351979624e-03
1.83962264150943e+00 1.70970403326466e-01 1.58469990100038e-03
1.85094339622642e+00 1.69858965057611e-01 1.57923508126242e-03
1.86226415094340e+00 1.68754751989561e-01 1.57375966919304e-03
1.87358490566038e+00 1.67657717147168e-01 1.56827426165243e-03
1.88490566037736e+00 1.66567813872242e-01 1.56277944372549e-03
1.89622641509434e+00 1.65484995798458e-01 1.55727578920449e-03
1.90754716981132e+00 1.64409216872223e-01 1.55176386055837e-03
1.91886792452830e+00 1.63340431328145e-01 1.54624420939967e-03
1.93018867924528e+00 1.62278593709391e-01 1.54071737644893e-03
1.94150943396226e+00 1.61223658843715e-01 1.53518389198668e-03
1.95283018867925e+00 1.60175581863313e-01 1.52964427581277e-03
1.96415094339623e+00 1.59134318181396e-01 1.52409903768487e-03
1.97547169811321e+00 1.58099823511555e-01 1.51854867727292e-03
1.98679245283019e+00 1.57072053844870e-01 1.51299368458447e-03
1.99811320754717e+00 1.56050965468797e-01 1.50743453811159e-03
2.00943396226415e+00 1.55036514949764e-01 1.50187171246968e-03
2.02075471698113e+00 1.54028659131680e-01 1.49630566754191e-03
2.03207547169811e+00 1.53027355148847e-01 1.49073685590638e-03
2.04339622641509e+00 1.52032560404495e-01 1.48516572135532e-03
2.05471698113208e+00 1.51044232588384e-01 1.47959269883933e-03
2.06603773584906e+00 1.50062329655818e-01 1.47401821484746e-03
2.07735849056604e+00 1.49086809844818e-01 1.46844268734890e-03
2.08867924528302e+00 1.48117631655601e-01 1.46286652616210e-03
2.10000000000000e+00 1.47154753867349e-01 1.45729013289389e-03
2.11132075471698e+00 1.46198135518130e-01 1.45171390129793e-03
2.12264150943396e+00 1.45247735921272e-01 1.44613821721144e-03
2.13396226415094e+00 1.44303514645726e-01 1.44056345890380e-03
2.14528301886792e+00 1.43365431532044e-01 1.43498999701108e-03
2.15660377358491e+00 1.42433446673176e-01 1.42941819487481e-03
2.16792452830189e+00 1.41507520430072e-01 1.42384840847454e-03
2.17924528301887e+00 1.40587613412886e-01 1.41828098675742e-03
2.19056603773585e+00 1.39673686496221e-01 1.41271627156910e-03
2.20188679245283e+00 1.38765700800735e-01 1.40715459797458e-03
2.21320754716981e+00 1.37863617708028e-01 1.40159629267216e-03
2.22452830188679e+00 1.36967398846613e-01 1.39604168037534e-03
2.23584905660377e+00 1.36077006090555e-01 1.39049107466711e-03
2.24716981132075e+00 1.35192401569628e-01 1.38494478420872e-03
2.25849056603774e+00 1.34313547652019e-01 1.37940311146517e-03
2.26981132075472e+00 1.33440406958237e-01 1.37386635263295e-03
2.28113207547170e+00 1.32572942344182e-01 1.36833479793010e-03
2.29245283018868e+00 1.31711116914741e-01 1.36280873152354e-03
2.30377358490566e+00 1.30854894007210e-01 1.35728843181137e-03
2.31509433962264e+00 1.30004237204574e-01 1.35177417134901e-03
2.32641509433962e+00 1.29159110319283e-01 1.34626621712463e-03
2.33773584905660e+00 1.28319477406230e-01 1.34076483048447e-03
2.34905660377358e+00 1.27485302746859e-01 1.33527026740114e-03
2.36037735849057e+00 1.26656550861853e-01 1.32978277839844e-03
2.37169811320755e+00 1.25833186495575e-01 1.32430260881287e-03
2.38301886792453e+00 1.25015174628464e-01 1.31882999871791e-03
2.39433962264151e+00 1.24202480461798e-01 1.31336518317888e-03
2.40566037735849e+00 1.23395069429815e-01 1.30790839087674e-03
2.41698113207547e+00 1.22592907188056e-01 1.30245984956650e-03
2.42830188679245e+00 1.21795959612120e-01 1.29701977821170e-03
2.43962264150943e+00 1.21004192805917e-01 1.29158839229763e-03
2.45094339622641e+00 1.20217573087301e-01 1.28616590272031e-03
2.46226415094340e+00 1.19436066999424e-01 1.28075251571099e-03
2.47358490566038e+00 1.18659641296662e-01 1.27534843306837e-03
2.48490566037736e+00 1.17888262955717e-01 1.26995385208305e-03
2.49622641509434e+00 1.17121899161829e-01 1.26456896576456e-03
2.50754716981132e+00 1.16360517319632e-01 1.25919396276551e-03
2.51886792452830e+00 1.15604085039648e-01 1.25382902760307e-03
2.53018867924528e+00 1.14852570148899e-01 1.24847434058326e-03
2.54150943396226e+00 1.14105940677673e-01 1.24313007801729e-03
2.55283018867925e+00 1.13364164869906e-01 1.23779641214559e-03
2.56415094339623e+00 1.12627211170215e-01 1.23247351134911e-03
2.57547169811321e+00 1.11895048234047e-01 1.22716154007366e-03
2.58679245283019e+00 1.11167644914978e-01 1.22186065903627e-03
2.59811320754717e+00 1.10444970274634e-01 1.21657102402995e-03
2.60943396226415e+00 1.09726993572954e-01 1.21129279061153e-03
2.62075471698113e+00 1.09013684267051e-01 1.20602610731887e-03
2.63207547169811e+00 1.08305012017956e-01 1.20077112023506e-03
2.64339622641509e+00 1.07600946678616e-01 1.19552797202068e-03
2.65471698113208e+00 1.06901458303215e-01 1.19029680183969e-03
2.66603773584906e+00 1.06206517135402e-01 1.18507774554872e-03
2.67735849056604e+00 1.05516093617418e-01 1.17987093562351e-03
2.68867924528302e+00 1.04830158378551e-01 1.17467650134374e-03
2.70000000000000e+00 1.04148682244069e-01 1.16949456871942e-03
2.71132075471698e+00 1.03471636223905e-01 1.16432526067203e-03
2.72264150943396e+00 1.02798991521388e-01 1.15916869696149e-03
2.73396226415094e+00 1.02130719522160e-01 1.15402499436275e-03
2.74528301886792e+00 1.01466791802718e-01 1.14889426659318e-03
2.75660377358491e+00 1.00807180119541e-01 1.14377662448567e-03
2.76792452830189e+00 1.00151856417456e-01 1.13867217591592e-03
2.77924528301887e+00 9.95007928189752e-02 1.13358102597190e-03
2.79056603773585e+00 9.88539616324824e-02 1.12850327688196e-03
2.80188679245283e+00 9.82113353417799e-02 1.12343902818033e-03
2.81320754716981e+00 9.75728866140963e-02 1.11838837568423e-03
2.82452830188679e+00 9.69385882920512e-02 1.11335141546669e-03
2.83584905660377e+00 9.63084133926336e-02 1.10832823808805e-03
2.84716981132075e+00 9.56823351126288e-02 1.10331893246497e-03
2.85849056603774e+00 9.50603268187218e-02 1.09832358503990e-03
2.86981132075472e+00 9.44423620550320e-02 1.09334227971155e-03
2.88113207547170e+00 9.38284145334082e-02 1.08837509798760e-03
2.89245283018868e+00 9.32184581408034e-02 1.08342211891555e-03
2.90377358490566e+00 9.26124669297565e-02 1.07848341923207e-03
2.91509433962264e+00 9.20104151256117e-02 1.07355907329468e-03
2.92641509433962e+00 9.14122771171826e-02 1.06864915322784e-03
2.93773584905660e+00 9.08180274638195e-02 1.06375372885493e-03
2.94905660377358e+00 9.02276408862524e-02 1.05887286784141e-03
2.96037735849057e+00 8.96410922735099e-02 1.05400663562750e-03
2.97169811320755e+00 8.90583566739366e-02 1.04915509556815e-03
2.98301886792453e+00 8.84794093019672e-02 1.04431830886637e-03
2.99433962264151e+00 8.79042255293149e-02 1.03949633471031e-03
3.00566037735849e+00 8.73327808916039e-02 1.03468922938363e-03
3.01698113207547e+00 8.67650510815766e-02 1.02989704969903e-03
3.02830188679245e+00 8.62010119481688e-02 1.02511984799953e-03
3.03962264150943e+00 8.56406395009918e-02 1.02035767550337e-03
3.05094339622641e+00 8.50839099019741e-02 1.01561058157985e-03
3.06226415094340e+00 8.45307994716124e-02 1.01087861368506e-03
3.07358490566038e+00 8.39812846807711e-02 1.00616181748873e-03
3.08490566037736e+00 8.34353421568041e-02 1.00146023681077e-03
3.09622641509434e+00 8.28929486755080e-02 9.96773913745496e-04
3.10754716981132e+00 8.23540811671173e-02 9.92102888598805e-04
3.11886792452830e+00 8.18187167084088e-02 9.87447200009855e-04
3.13018867924528e+00 8.12868325285729e-02 9.82806884888590e-04
3.14150943396226e+00 8.07584060014658e-02 9.78181978535271e-04
3.15283018867924e+00 8.02334146513598e-02 9.73572514578650e-04
3.16415094339623e+00 7.97118361453402e-02 9.68978525092862e-04
3.17547169811321e+00 7.91936482989375e-02 9.64400040536192e-04
3.18679245283019e+00 7.86788290686658e-02 9.59837089865719e-04
3.19811320754717e+00 7.81673565575397e-02 9.55289699762389e-04
3.20943396226415e+00 7.76592090093086e-02 9.50757897605748e-04
3.22075471698113e+00 7.71543648076203e-02 9.46241707134065e-04
3.23207547169811e+00 7.66528024797374e-02 9.41741151342579e-04
3.24339622641509e+00 7.61545006894496e-02 9.37256251851427e-04
3.25471698113208e+00 7.56594382422806e-02 9.32787028847099e-04
3.26603773584906e+00 7.51675940785315e-02 9.28333501188756e-04
3.27735849056604e+00 7.46789472783816e-02 9.23895686350349e-04
3.28867924528302e+00 7.41934770550594e-02 9.19473600524880e-04
3.30000000000000e+00 7.37111627598405e-02 9.15067258566967e-04
3.31132075471698e+00 7.32319838753438e-02 9.10676674095102e-04
3.32264150943396e+00 7.27559200204283e-02 9.06301859434999e-04
3.33396226415094e+00 7.22829509436122e-02 9.01942825719729e-04
3.34528301886792e+00 7.18130565278700e-02 8.97599582833504e-04
3.35660377358491e+00 7.13462167841732e-02 8.93272139510191e-04
3.36792452830189e+00 7.08824118561897e-02 8.88960503277666e-04
3.37924528301887e+00 7.04216220139424e-02 8.84664680554082e-04
3.39056603773585e+00 6.99638276584144e-02 8.80384676593073e-04
3.40188679245283e+00 6.95090093153230e-02 8.76120495578248e-04
3.41320754716981e+00 6.90571476396319e-02 8.71872139957615e-04
3.42452830188679e+00 6.86082234107287e-02 8.67639612985203e-04
3.43584905660377e+00 6.81622175316786e-02 8.63422915005689e-04
3.44716981132075e+00 6.77191110322528e-02 8.59222045931018e-04
3.45849056603774e+00 6.72788850630063e-02 8.55037004696721e-04
3.46981132075472e+00 6.68415208995432e-02 8.50867789209364e-04
3.48113207547170e+00 6.64069999367010e-02 8.46714396434471e-04
3.49245283018868e+00 6.59753036927306e-02 8.42576822344779e-04
3.50377358490566e+00 6.55464138035864e-02 8.38455062006523e-04
3.51509433962264e+00 6.51203120270219e-02 8.34349109528054e-04
3.52641509433962e+00 6.46969802369830e-02 8.30258958144542e-04
3.53773584905660e+00 6.42764004276225e-02 8.26184600167322e-04
3.54905660377358e+00 6.38585547077937e-02 8.22126027066842e-04
3.56037735849057e+00 6.34434253049850e-02 8.18083229422677e-04
3.57169811320755e+00 6.30309945599124e-02 8.14056197004930e-04
