Energy (eV)          EEDF (eV^-(3/2))     First Anisotropy
1.42631578947368e-02 5.68837973491557e-01 4.83507554155423e-04
4.27894736842105e-02 5.58589438105387e-01 7.93884976113446e-04
7.13157894736842e-02 5.48525546646605e-01 1.03610274179282e-03
9.98421052631579e-02 5.38642972457675e-01 1.21302464457250e-03
1.28368421052632e-01 5.28938448829623e-01 1.35482363750050e-03
1.56894736842105e-01 5.19408767862911e-01 1.47310655719514e-03
1.85421052631579e-01 5.10050779487523e-01 1.57397879448774e-03
2.13947368421053e-01 5.00861390388204e-01 1.66118564584462e-03
2.42473684210526e-01 4.91837563019268e-01 1.73724920730832e-03
2.71000000000000e-01 4.82976314475745e-01 1.80397857714228e-03
2.99526315789474e-01 4.74274715638565e-01 1.86273221213835e-03
3.28052631578947e-01 4.65729890161305e-01 1.91456628345291e-03
3.56578947368421e-01 4.57339013543796e-01 1.96032468807030e-03
3.85105263157895e-01 4.49099312123616e-01 2.00069672190604e-03
4.13631578947368e-01 4.41008062236137e-01 2.03625568408637e-03
4.42157894736842e-01 4.33062589287494e-01 2.06748566619433e-03
4.70684210526316e-01 4.25260266871109e-01 2.09480069744462e-03
4.99210526315789e-01 4.17598515914888e-01 2.11855878853950e-03
5.27736842105263e-01 4.10074803780824e-01 2.13907245325887e-03
5.56263157894737e-01 4.02686643476892e-01 2.15661674585302e-03
5.84789473684211e-01 3.95431592817983e-01 2.17143550993285e-03
6.13315789473684e-01 3.88307253619089e-01 2.18374630110777e-03
6.41842105263158e-01 3.81311270913300e-01 2.19374432438120e-03
6.70368421052632e-01 3.74441332139716e-01 2.20160561414882e-03
6.98894736842105e-01 3.67695166413427e-01 2.20748963306795e-03
7.27421052631579e-01 3.61070543763109e-01 2.21154142125713e-03
7.55947368421053e-01 3.54565274394044e-01 2.21389338238548e-03
7.84473684210526e-01 3.48177207972356e-01 2.21466678678053e-03
8.13000000000000e-01 3.41904232889183e-01 2.21397303986528e-03
8.41526315789474e-01 3.35744275588196e-01 2.21191476247516e-03
8.70052631578947e-01 3.29695299871525e-01 2.20858671993756e-03
8.98578947368421e-01 3.23755306233279e-01 2.20407662308923e-03
9.27105263157895e-01 3.17922331178507e-01 2.19846582088686e-03
9.55631578947368e-01 3.12194446594607e-01 2.19182990403626e-03
9.84157894736842e-01 3.06569759106989e-01 2.18423923675659e-03
1.01268421052632e+00 3.01046409453290e-01 2.17575942295814e-03
1.04121052631579e+00 2.95622571863508e-01 2.16645171393871e-03
1.06973684210526e+00 2.90296453501863e-01 2.15637338566017e-03
1.09826315789474e+00 2.85066293749639e-01 2.14557805584564e-03
1.12678947368421e+00 2.79930363758393e-01 2.13411596285583e-03
1.15531578947368e+00 2.74886965872008e-01 2.12203425397815e-03
1.18384210526316e+00 2.69934432931343e-01 2.10937720199654e-03
1.21236842105263e+00 2.65071127898633e-01 2.09618642018828e-03
1.24089473684211e+00 2.60295443149238e-01 2.08250105598121e-03
1.26942105263158e+00 2.55605800099521e-01 2.06835796309519e-03
1.29794736842105e+00 2.51000648533033e-01 2.05379186516145e-03
1.32647368421053e+00 2.46478466199920e-01 2.03883548371409e-03
1.35500000000000e+00 2.42037758309017e-01 2.02351969332629e-03
1.38352631578947e+00 2.37677056933982e-01 2.00787362759709e-03
1.41205263157895e+00 2.33394920658935e-01 1.99192479257512e-03
1.44057894736842e+00 2.29189933976789e-01 1.97569917335698e-03
1.46910526315789e+00 2.25060706913554e-01 1.95922131383082e-03
1.49763157894737e+00 2.21005874565090e-01 1.94251442363968e-03
1.52615789473684e+00 2.17024096563331e-01 1.92560044543299e-03
1.55468421052632e+00 2.13114056741790e-01 1.90850013138685e-03
1.58321052631579e+00 2.09274462596334e-01 1.89123311331876e-03
1.61173684210526e+00 2.05504044957877e-01 1.87381796544347e-03
1.64026315789474e+00 2.01801557476916e-01 1.85627226766936e-03
1.66878947368421e+00 1.98165776282306e-01 1.83861264938915e-03
1.69731578947368e+00 1.94595499573991e-01 1.82085485785526e-03
1.72584210526316e+00 1.91089547161886e-01 1.80301379585183e-03
1.75436842105263e+00 1.87646760159723e-01 1.78510356874363e-03
1.78289473684211e+00 1.84266000521222e-01 1.76713752775283e-03
1.81142105263158e+00 1.80946150741602e-01 1.74912830860564e-03
1.83994736842105e+00 1.77686113413383e-01 1.73108787179897e-03
1.86847368421053e+00 1.74484810918936e-01 1.71302752786962e-03
1.89700000000000e+00 1.71341185072149e-01 1.69495798401848e-03
1.92552631578947e+00 1.68254196718604e-01 1.67688936615083e-03
1.95405263157895e+00 1.65222825457971e-01 1.65883124953229e-03
1.98257894736842e+00 1.62246069243204e-01 1.64079268891558e-03
2.01110526315789e+00 1.59322944096275e-01 1.62278223587883e-03
2.03963157894737e+00 1.56452483781144e-01 1.60480797541697e-03
2.06815789473684e+00 1.53633739441777e-01 1.58687754118453e-03
2.09668421052632e+00 1.50865779344644e-01 1.56899813869908e-03
2.12521052631579e+00 1.48147688516531e-01 1.55117656665596e-03
2.15373684210526e+00 1.45478568494410e-01 1.53341923574971e-03
2.18226315789474e+00 1.42857536977930e-01 1.51573218942947e-03
2.21078947368421e+00 1.40283727575162e-01 1.49812111430274e-03
2.23931578947368e+00 1.37756289514855e-01 1.48059136696231e-03
2.26784210526316e+00 1.35274387331163e-01 1.46314798321881e-03
2.29636842105263e+00 1.32837200632373e-01 1.44579569425962e-03
2.32489473684211e+00 1.30443923786321e-01 1.42853894144900e-03
2.35342105263158e+00 1.28093765696048e-01 1.41138188927521e-03
2.38194736842105e+00 1.25785949497714e-01 1.39432844009799e-03
2.41047368421053e+00 1.23519712333888e-01 1.37738224039813e-03
2.43900000000000e+00 1.21294305100282e-01 1.36054670100174e-03
2.46752631578947e+00 1.19108992170717e-01 1.34382500265405e-03
2.49605263157895e+00 1.16963051190140e-01 1.32722010757930e-03
2.52457894736842e+00 1.14855772800830e-01 1.31073477122046e-03
2.55310526315789e+00 1.12786460433873e-01 1.29437154650802e-03
2.58163157894737e+00 1.10754430077982e-01 1.27813280063869e-03
2.61015789473684e+00 1.08759010029686e-01 1.26202071889308e-03
2.63868421052632e+00 1.06799540702604e-01 1.24603731385690e-03
2.66721052631579e+00 1.04875374379084e-01 1.23018443378242e-03
2.69573684210526e+00 1.02985875025485e-01 1.21446376975144e-03
2.72426315789474e+00 1.01130418053454e-01 1.19887686433581e-03
2.75278947368421e+00 9.93083901345896e-02 1.18342511401760e-03
2.78131578947368e+00 9.75191889969667e-02 1.16810978226188e-03
2.80984210526316e+00 9.57622232067189e-02 1.15293200168755e-03
2.83836842105263e+00 9.40369119980709e-02 1.13789278087087e-03
2.86689473684211e+00 9.23426850566081e-02 1.12299301047321e-03
2.89542105263158e+00 9.06789823547628e-02 1.10823346841490e-03
2.92394736842105e+00 8.90452539434082e-02 1.09361482635733e-03
2.95247368421053e+00 8.74409597873595e-02 1.07913765094698e-03
2.98100000000000e+00 8.58655695862570e-02 1.06480241413820e-03
3.00952631578947e+00 8.43185625834352e-02 1.05060949430165e-03
3.03805263157895e+00 8.27994274147158e-02 1.03655918130922e-03
3.06657894736842e+00 8.13076619190613e-02 1.02265168184884e-03
3.09510526315789e+00 7.98427729876659e-02 1.00888712008176e-03
3.12363157894737e+00 7.84042764004297e-02 9.95265546436720e-04
3.15215789473684e+00 7.69916966520721e-02 9.81786938187973e-04
3.18068421052632e+00 7.56045668132347e-02 9.68451203611901e-04
3.20921052631579e+00 7.42424283583805e-02 9.55258185670500e-04
3.23773684210526e+00 7.29048310314679e-02 9.42207665027126e-04
3.26626315789474e+00 7.15913326803727e-02 9.29299364097228e-04
3.29478947368421e+00 7.03014991231671e-02 9.16532947156082e-04
3.32331578947368e+00 6.90349040041787e-02 9.03908027399092e-04
3.35184210526316e+00 6.77911286416310e-02 8.91424167022825e-04
3.38036842105263e+00 6.65697619043523e-02 8.79080880373226e-04
3.40889473684211e+00 6.53704000611978e-02 8.66877636706883e-04
3.43742105263158e+00 6.41926466618562e-02 8.54813862403826e-04
3.46594736842105e+00 6.30361123919402e-02 8.42888944074158e-04
3.49447368421053e+00 6.19004149545991e-02 8.31102228319162e-04
3.52300000000000e+00 6.07851789437973e-02 8.19453027440012e-04
3.55152631578947e+00 5.96900357107537e-02 8.07940619200278e-04
3.58005263157895e+00 5.86146232546085e-02 7.96564249223085e-04
3.60857894736842e+00 5.75585860905854e-02 7.85323133572773e-04
3.63710526315789e+00 5.65215751415354e-02 7.74216458344924e-04
3.66563157894737e+00 5.55032476222394e-02 7.63243384597608e-04
3.69415789473684e+00 5.45032669177768e-02 7.52403047957260e-04
3.72268421052632e+00 5.35213024832708e-02 7.41694560596898e-04
3.75121052631579e+00 5.25570297239111e-02 7.31117012930407e-04
3.77973684210526e+00 5.16101298980791e-02 7.20669474907809e-04
3.80826315789474e+00 5.06802900018495e-02 7.10350998010082e-04
3.83678947368421e+00 4.97672026730606e-02 7.00160614692356e-04
3.86531578947368e+00 4.88705660894645e-02 6.90097342407423e-04
3.89384210526316e+00 4.79900838620169e-02 6.80160183078180e-04
3.92236842105263e+00 4.71254649460893e-02 6.70348124607729e-04
3.95089473684211e+00 4.62764235363261e-02 6.60660142152731e-04
3.97942105263158e+00 4.54426789808670e-02 6.51095199063408e-04
4.00794736842105e+00 4.46239556801116e-02 6.41652248426754e-04
4.03647368421053e+00 4.38199830019158e-02 6.32330232430941e-04
4.06500000000000e+00 4.30304951919214e-02 6.23128085661298e-04
4.09352631578947e+00 4.22552312799101e-02 6.14044734499007e-04
4.12205263157895e+00 4.14939350012164e-02 6.05079098273770e-04
4.15057894736842e+00 4.07463547045441e-02 5.96230090550868e-04
4.17910526315789e+00 4.00122432743414e-02 5.87496618463070e-04
4.20763157894737e+00 3.92913580489302e-02 5.78877585579969e-04
4.23615789473684e+00 3.85834607351691e-02 5.70371891276829e-04
4.26468421052632e+00 3.78883173364704e-02 5.61978431684514e-04
4.29321052631579e+00 3.72056980688428e-02 5.53696100461546e-04
4.32173684210526e+00 3.65353772913712e-02 5.45523789318455e-04
4.35026315789474e+00 3.58771334253625e-02 5.37460389013433e-04
4.37878947368421e+00 3.52307488857642e-02 5.29504788672323e-04
4.40731578947368e+00 3.45960100090881e-02 5.21655878151405e-04
4.43584210526316e+00 3.39727069784798e-02 5.13912547396179e-04
4.46436842105263e+00 3.33606337600602e-02 5.06273687161351e-04
4.49289473684211e+00 3.27595880292703e-02 4.98738189580995e-04
4.52142105263158e+00 3.21693711093989e-02 4.91304948529669e-04
4.54994736842105e+00 3.15897879006404e-02 4.83972860390237e-04
4.57847368421053e+00 3.10206468195256e-02 4.76740823384677e-04
4.60700000000000e+00 3.04617597354632e-02 4.69607739524196e-04
4.63552631578947e+00 2.99129419049333e-02 4.62572513977441e-04
4.66405263157895e+00 2.93740119152131e-02 4.55634055612984e-04
4.69257894736842e+00 2.88447916197394e-02 4.48791277636814e-04
4.72110526315790e+00 2.83251060826973e-02 4.42043096937174e-04
4.74963157894737e+00 2.78147835210808e-02 4.35388435789797e-04
4.77815789473684e+00 2.73136552446987e-02 4.28826221239340e-04
4.80668421052632e+00 2.68215556046667e-02 4.22355385540562e-04
4.83521052631579e+00 2.63383219345052e-02 4.15974866485378e-04
4.86373684210526e+00 2.58637945004109e-02 4.09683607572458e-04
4.89226315789474e+00 2.53978164445164e-02 4.03480558495057e-04
4.92078947368421e+00 2.49402337359724e-02 3.97364674517183e-04
4.94931578947368e+00 2.44908951199372e-02 3.91334917885187e-04
4.97784210526316e+00 2.40496520648687e-02 3.85390257238968e-04
5.00636842105263e+00 2.36163587170164e-02 3.79529667937618e-04
5.03489473684211e+00 2.31908718487093e-02 3.73752132288217e-04
5.06342105263158e+00 2.27730508144234e-02 3.68056639640874e-04
5.09194736842105e+00 2.23627575009633e-02 3.62442186758837e-04
5.12047368421053e+00 2.19598562842864e-02 3.56907777232219e-04
5.14900000000000e+00 2.15642139845906e-02 3.51452422647957e-04
5.17752631578947e+00 2.11756998200011e-02 3.46075142035777e-04
5.20605263157895e+00 2.07941853663747e-02 3.40774962104458e-04
5.23457894736842e+00 2.04195445118885e-02 3.35550917544477e-04
5.26310526315789e+00 2.00516534175577e-02 3.30402050468835e-04
5.29163157894737e+00 1.96903904762276e-02 3.25327411438623e-04
5.32015789473684e+00 1.93356362703390e-02 3.20326058934484e-04
5.34868421052632e+00 1.89872735351542e-02 3.15397059542000e-04
5.37721052631579e+00 1.86451871173606e-02 3.10539488062774e-04
5.40573684210526e+00 1.83092639395758e-02 3.05752427523864e-04
5.43426315789474e+00 1.79793929604630e-02 3.01034969402818e-04
5.46278947368421e+00 1.76554651398920e-02 2.96386213109635e-04
5.49131578947368e+00 1.73373734028359e-02 2.91805266838076e-04
5.51984210526316e+00 1.70250126022496e-02 2.87291247075972e-04
5.54836842105263e+00 1.67182794866020e-02 2.82843278732709e-04
5.57689473684210e+00 1.64170726635125e-02 2.78460495203414e-04
5.60542105263158e+00 1.61212925684144e-02 2.74142038346394e-04
5.63394736842105e+00 1.58308414295169e-02 2.69887058647176e-04
5.66247368421053e+00 1.55456232370707e-02 2.65694714741732e-04
5.69100000000000e+00 1.52655437115798e-02 2.61564174123552e-04
5.71952631578947e+00 1.49905102711714e-02 2.57494612692420e-04
5.74805263157895e+00 1.47204320029359e-02 2.53485214837558e-04
5.77657894736842e+00 1.44552196309787e-02 2.49535173566938e-04
5.80510526315789e+00 1.41947854883221e-02 2.45643690058347e-04
5.83363157894737e+00 1.39390434878812e-02 2.41809974279870e-04
5.86215789473684e+00 1.36879090927003e-02 2.38033244564898e-04
5.89068421052632e+00 1.34412992897419e-02 2.34312727670317e-04
5.91921052631579e+00 1.31991325607544e-02 2.30647658785813e-04
5.94773684210526e+00 1.29613288569778e-02 2.27037281476832e-04
5.97626315789474e+00 1.27278095710707e-02 2.23480847774097e-04
6.00478947368421e+00 1.24984975123275e-02 2.19977617763539e-04
6.03331578947368e+00 1.22733168811242e-02 2.16526860101853e-04
6.06184210526316e+00 1.20521932427507e-02 2.13127851628259e-04
6.09036842105263e+00 1.18350535042797e-02 2.09779877394591e-04
6.11889473684211e+00 1.16218258889669e-02 2.06482230653609e-04
6.14742105263158e+00 1.14124399139300e-02 2.03234212790518e-04
6.17594736842105e+00 1.12068263654779e-02 2.00035133381534e-04
6.20447368421053e+00 1.10049172772547e-02 1.96884309820755e-04
6.23300000000000e+00 1.08066459077397e-02 1.93781067748527e-04
6.26152631578947e+00 1.06119467172398e-02 1.90724740697846e-04
6.29005263157895e+00 1.04207553474793e-02 1.87714670103430e-04
6.31857894736842e+00 1.02330085991014e-02 1.84750205342908e-04
6.34710526315789e+00 1.00486444116898e-02 1.81830703388059e-04
6.37563157894737e+00 9.86760184322573e-03 1.78955529180731e-04
6.40415789473684e+00 9.68982104909683e-03 1.76124055302235e-04
6.43268421052632e+00 9.51524326343768e-03 1.73335661970931e-04
6.46121052631579e+00 9.34381077860830e-03 1.70589737007464e-04
6.48973684210526e+00 9.17546692718919e-03 1.67885675756315e-04
6.51826315789474e+00 9.01015606220425e-03 1.65222881107345e-04
6.54678947368421e+00 8.84782353950533e-03 1.62600763179864e-04
6.57531578947368e+00 8.68841569968482e-03 1.60018739634840e-04
6.60384210526316e+00 8.53187984961616e-03 1.57476235375370e-04
6.63236842105263e+00 8.37816424599338e-03 1.54972682531692e-04
6.66089473684211e+00 8.22721807729199e-03 1.52507520418460e-04
6.68942105263158e+00 8.07899144788645e-03 1.50080195454574e-04
6.71794736842105e+00 7.93343536066471e-03 1.47690161169763e-04
6.74647368421053e+00 7.79050170149702e-03 1.45336877919092e-04
6.77500000000000e+00 7.65014322331045e-03 1.43019813142145e-04
6.80352631578947e+00 7.51231352985474e-03 1.40738441092137e-04
6.83205263157895e+00 7.37696706118334e-03 1.38492242812020e-04
6.86057894736842e+00 7.24405907779477e-03 1.36280706132936e-04
6.88910526315789e+00 7.11354564643899e-03 1.34103325408599e-04
6.91763157894737e+00 6.98538362557619e-03 1.31959601742545e-04
6.94615789473684e+00 6.85953065056432e-03 1.29849042736028e-04
6.97468421052632e+00 6.73594512038726e-03 1.27771162459588e-04
7.00321052631579e+00 6.61458618318827e-03 1.25725481403097e-04
7.03173684210526e+00 6.49541372346501e-03 1.23711526396871e-04
7.06026315789474e+00 6.37838834812644e-03 1.21728830601186e-04
7.08878947368421e+00 6.26347137398014e-03 1.19776933266945e-04
7.11731578947368e+00 6.15062481492939e-03 1.17855379924077e-04
7.14584210526316e+00 6.03981136894469e-03 1.15963722154349e-04
7.17436842105263e+00 5.93099440635945e-03 1.14101517558327e-04
7.20289473684211e+00 5.82413795715020e-03 1.12268329703856e-04
7.23142105263158e+00 5.71920669964428e-03 1.10463728049678e-04
7.25994736842105e+00 5.61616594826003e-03 1.08687287928473e-04
7.28847368421053e+00 5.51498164247672e-03 1.06938590331582e-04
7.31700000000000e+00 5.41562033556199e-03 1.05217222065034e-04
7.34552631578947e+00 5.31804918311196e-03 1.03522775545056e-04
7.37405263157895e+00 5.22223593273014e-03 1.01854848762282e-04
7.40257894736842e+00 5.12814891284270e-03 1.00213045261518e-04
7.43110526315790e+00 5.03575702261958e-03 9.85969739420812e-05
7.45963157894737e+00 4.94502972168170e-03 9.70062491943525e-05
7.48815789473684e+00 4.85593701964355e-03 9.54404907100528e-05
7.51668421052632e+00 4.76844946668021e-03 9.38993234454080e-05
7.54521052631579e+00 4.68253814332298e-03 9.23823775699099e-05
7.57373684210526e+00 4.59817465135891e-03 9.08892883958414e-05
7.60226315789474e+00 4.51533110399509e-03 8.94196963547057e-05
7.63078947368421e+00 4.43398011697490e-03 8.79732468179763e-05
7.65931578947368e+00 4.35409479951559e-03 8.65495902099420e-05
7.68784210526316e+00 4.27564874510908e-03 8.51483818373647e-05
7.71636842105263e+00 4.19861602320482e-03 8.37692818519677e-05
7.74489473684211e+00 4.12297117023596e-03 8.24119552005546e-05
7.77342105263158e+00 4.04868918159565e-03 8.10760715585626e-05
7.80194736842105e+00 3.97574550298706e-03 7.97613053044078e-05
7.83047368421053e+00 3.90411602259366e-03 7.84673353587629e-05
7.85900000000000e+00 3.83377706309988e-03 7.71938452776617e-05
7.88752631578947e+00 3.76470537359840e-03 7.59405230996735e-05
7.91605263157895e+00 3.69687812225748e-03 7.47070613086069e-05
7.94457894736842e+00 3.63027288842868e-03 7.34931568070625e-05
7.97310526315789e+00 3.56486765549301e-03 7.22985107677041e-05
8.00163157894737e+00 3.50064080357504e-03 7.11228287144910e-05
8.03015789473684e+00 3.43757110215762e-03 6.99658203812165e-05
8.05868421052632e+00 3.37563770338092e-03 6.88271996747936e-05
8.08721052631579e+00 3.31482013484120e-03 6.77066846288919e-05
8.11573684210526e+00 3.25509829312660e-03 6.66039973447175e-05
8.14426315789474e+00 3.19645243687561e-03 6.55188639640425e-05
8.17278947368421e+00 3.13886318047235e-03 6.44510145360357e-05
8.20131578947368e+00 3.08231148763171e-03 6.34001830840549e-05
8.22984210526316e+00 3.02677866490168e-03 6.23661074789709e-05
8.25836842105263e+00 2.97224635575633e-03 6.13485294035850e-05
8.28689473684211e+00 2.91869653426185e-03 6.03471943087420e-05
8.31542105263158e+00 2.86611149937824e-03 5.93618513583613e-05
8.34394736842105e+00 2.81447386885370e-03 5.83922534025373e-05
8.37247368421053e+00 2.76376657366861e-03 5.74381568584154e-05
8.40100000000000e+00 2.71397285238733e-03 5.64993217649821e-05
8.42952631578947e+00 2.66507624544148e-03 5.55755116696900e-05
8.45805263157895e+00 2.61706058992292e-03 5.46664935943765e-05
8.48657894736842e+00 2.56991001401246e-03 5.37720380087474e-05
8.51510526315790e+00 2.52360893190380e-03 5.28919187203268e-05
8.54363157894737e+00 2.47814203864626e-03 5.20259129220466e-05
8.57215789473684e+00 2.43349430492734e-03 5.11738010874789e-05
8.60068421052632e+00 2.38965097231487e-03 5.03353669379963e-05
8.62921052631579e+00 2.34659754817298e-03 4.95103974034428e-05
8.65773684210526e+00 2.30431980107253e-03 4.86986825741833e-05
8.68626315789474e+00 2.26280375589030e-03 4.79000156753769e-05
8.71478947368421e+00 2.22203568933603e-03 4.71141929686320e-05
8.74331578947368e+00 2.18200212541151e-03 4.63410137908526e-05
8.77184210526316e+00 2.14268983081997e-03 4.55802804606059e-05
8.80036842105263e+00 2.10408581077235e-03 4.48317982470868e-05
8.82889473684211e+00 2.06617730451518e-03 4.40953753335040e-05
8.85742105263158e+00 2.02895178128523e-03 4.33708227730216e-05
8.88594736842105e+00 1.99239693599843e-03 4.26579544640572e-05
8.91447368421053e+00 1.95650068530840e-03 4.19565870624643e-05
8.94300000000000e+00 1.92125116360838e-03 4.12665400131260e-05
8.97152631578947e+00 1.88663671899182e-03 4.05876354663115e-05
9.00005263157895e+00 1.85264590955625e-03 3.99196982485579e-05
