Energy (eV)          EEDF (eV^-(3/2))     First Anisotropy
1.65151515151515e-02 2.01508292686874e-01 1.31283882069518e-04
4.95454545454545e-02 1.99401153496624e-01 2.16380981626522e-04
8.25757575757576e-02 1.97316048312691e-01 2.84573811109734e-04
1.15606060606061e-01 1.95252746733788e-01 3.35731688941914e-04
1.48636363636364e-01 1.93211020763179e-01 3.77864488979676e-04
1.81666666666667e-01 1.91190644786471e-01 4.14016910834041e-04
2.14696969696970e-01 1.89191395550253e-01 4.45772628642887e-04
2.47727272727273e-01 1.87213052135651e-01 4.74092729481638e-04
2.80757575757576e-01 1.85255395933907e-01 4.99617741271017e-04
3.13787878787879e-01 1.83318210622220e-01 5.22802563985544e-04
3.46818181818182e-01 1.81401282139845e-01 5.43985547263089e-04
3.79848484848485e-01 1.79504398664435e-01 5.63427378748508e-04
4.12878787878788e-01 1.77627350588635e-01 5.81334575334379e-04
4.45909090909091e-01 1.75769930496921e-01 5.97874469434013e-04
4.78939393939394e-01 1.73931933142679e-01 6.13185195884299e-04
5.11969696969697e-01 1.72113155425526e-01 6.27382589506500e-04
5.45000000000000e-01 1.70313396368866e-01 6.40565093731021e-04
5.78030303030303e-01 1.68532457094551e-01 6.52817342285568e-04
6.11060606060606e-01 1.66770140810546e-01 6.64212832325195e-04
6.44090909090909e-01 1.65026252779268e-01 6.74815956928757e-04
6.77121212121212e-01 1.63300600299479e-01 6.84683575060742e-04
7.10151515151515e-01 1.61592992684989e-01 6.93866244351397e-04
7.43181818181818e-01 1.59903241243585e-01 7.02409200932417e-04
7.76212121212121e-01 1.58231159256177e-01 7.10353147700876e-04
8.09242424242424e-01 1.56576561956170e-01 7.17734895289076e-04
8.42272727272727e-01 1.54939266509044e-01 7.24587888353115e-04
8.75303030303030e-01 1.53319091992151e-01 7.30942641546342e-04
9.08333333333333e-01 1.51715859374721e-01 7.36827103621690e-04
9.41363636363636e-01 1.50129391498082e-01 7.42266963790544e-04
9.74393939393939e-01 1.48559513056081e-01 7.47285911278698e-04
1.00742424242424e+00 1.47006050575714e-01 7.51905855940970e-04
1.04045454545455e+00 1.45468832403744e-01 7.56147121412640e-04
1.07348484848485e+00 1.43947688660157e-01 7.60028603194533e-04
1.10651515151515e+00 1.42442451271799e-01 7.63567912728349e-04
1.13954545454545e+00 1.40952953907993e-01 7.66781507253091e-04
1.17257575757576e+00 1.39479031965059e-01 7.69684787476861e-04
1.20560606060606e+00 1.38020522586258e-01 7.72292197890322e-04
1.23863636363636e+00 1.36577264604538e-01 7.74617315403185e-04
1.27166666666667e+00 1.35149098527019e-01 7.76672914005461e-04
1.30469696969697e+00 1.33735866551653e-01 7.78471035652413e-04
1.33772727272727e+00 1.32337412514684e-01 7.80023052229128e-04
1.37075757575758e+00 1.30953581885341e-01 7.81339714840887e-04
1.40378787878788e+00 1.29584221739185e-01 7.82431198590286e-04
1.43681818181818e+00 1.28229180770634e-01 7.83307147947840e-04
1.46984848484848e+00 1.26888309246113e-01 7.83976719179761e-04
1.50287878787879e+00 1.25561458989124e-01 7.84448606960859e-04
1.53590909090909e+00 1.24248483390544e-01 7.84731079994669e-04
1.56893939393939e+00 1.22949237365107e-01 7.84832013458176e-04
1.60196969696970e+00 1.21663577336756e-01 7.84758907468056e-04
1.63500000000000e+00 1.20391361247113e-01 7.84518914779292e-04
1.66803030303030e+00 1.19132448514928e-01 7.84118865070757e-04
1.70106060606061e+00 1.17886700029003e-01 7.83565282278713e-04
1.73409090909091e+00 1.16653978125817e-01 7.82864400946229e-04
1.76712121212121e+00 1.15434146595690e-01 7.82022185416418e-04
1.80015151515152e+00 1.14227070645937e-01 7.81044348719248e-04
1.83318181818182e+00 1.13032616886972e-01 7.79936360404976e-04
1.86621212121212e+00 1.11850653337202e-01 7.78703463199051e-04
1.89924242424242e+00 1.10681049388400e-01 7.77350688458290e-04
1.93227272727273e+00 1.09523675792189e-01 7.75882861414948e-04
1.96530303030303e+00 1.08378404663839e-01 7.74304614971182e-04
1.99833333333333e+00 1.07245109449701e-01 7.72620401632464e-04
2.03136363636364e+00 1.06123664919497e-01 7.70834500578669e-04
2.06439393939394e+00 1.05013947147170e-01 7.68951024602852e-04
2.09742424242424e+00 1.03915833513329e-01 7.66973930033258e-04
2.13045454545455e+00 1.02829202675292e-01 7.64907026989468e-04
2.16348484848485e+00 1.01753934554348e-01 7.62753981016445e-04
2.19651515151515e+00 1.00689910337431e-01 7.60518322440617e-04
2.22954545454545e+00 9.96370124487707e-02 7.58203455158432e-04
2.26257575757576e+00 9.85951245375408e-02 7.55812657324613e-04
2.29560606060606e+00 9.75641314788537e-02 7.53349089444131e-04
2.32863636363636e+00 9.65439193469330e-02 7.50815801993252e-04
2.36166666666667e+00 9.55343754030756e-02 7.48215735400592e-04
2.39469696969697e+00 9.45353880961022e-02 7.45551727108767e-04
2.42772727272727e+00 9.35468470369180e-02 7.42826517519273e-04
2.46075757575758e+00 9.25686429907480e-02 7.40042752391520e-04
2.49378787878788e+00 9.16006678612483e-02 7.37202985376356e-04
2.52681818181818e+00 9.06428146902087e-02 7.34309683176302e-04
2.55984848484848e+00 8.96949776338944e-02 7.31365231191596e-04
2.59287878787879e+00 8.87570519518020e-02 7.28371932506214e-04
2.62590909090909e+00 8.78289340059522e-02 7.25332013197593e-04
2.65893939393939e+00 8.69105212383888e-02 7.22247627373270e-04
2.69196969696970e+00 8.60017121602537e-02 7.19120855887577e-04
2.72500000000000e+00 8.51024063507381e-02 7.15953711100946e-04
2.75803030303030e+00 8.42125044356649e-02 7.12748140787642e-04
2.79106060606061e+00 8.33319080799991e-02 7.09506029143741e-04
2.82409090909091e+00 8.24605199739416e-02 7.06229197967083e-04
2.85712121212121e+00 8.15982438314240e-02 7.02919410123214e-04
2.89015151515152e+00 8.07449843700842e-02 6.99578373491593e-04
2.92318181818182e+00 7.99006473010690e-02 6.96207739332678e-04
2.95621212121212e+00 7.90651393272818e-02 6.92809106053122e-04
2.98924242424242e+00 7.82383681242706e-02 6.89384022795193e-04
3.02227272727273e+00 7.74202423303368e-02 6.85933987713923e-04
3.05530303030303e+00 7.66106715445729e-02 6.82460451415797e-04
3.08833333333333e+00 7.58095663086183e-02 6.78964819714864e-04
3.12136363636364e+00 7.50168380995684e-02 6.75448453968179e-04
3.15439393939394e+00 7.42323993177393e-02 6.71912671581499e-04
3.18742424242424e+00 7.34561632844332e-02 6.68358748490686e-04
3.22045454545455e+00 7.26880442248148e-02 6.64787922086006e-04
3.25348484848485e+00 7.19279572586817e-02 6.61201389409803e-04
3.28651515151515e+00 7.11758183980883e-02 6.57600309974342e-04
3.31954545454545e+00 7.04315445309588e-02 6.53985808457749e-04
3.35257575757576e+00 6.96950534121438e-02 6.50358972889457e-04
3.38560606060606e+00 6.89662636609218e-02 6.46720857257972e-04
3.41863636363636e+00 6.82450947453209e-02 6.43072484007565e-04
3.45166666666667e+00 6.75314669734349e-02 6.39414842225360e-04
3.48469696969697e+00 6.68253014908342e-02 6.35748890058893e-04
3.51772727272727e+00 6.61265202655546e-02 6.32075556605715e-04
3.55075757575758e+00 6.54350460815990e-02 6.28395741844939e-04
3.58378787878788e+00 6.47508025285245e-02 6.24710316719934e-04
3.61681818181818e+00 6.40737139987177e-02 6.21020124861736e-04
3.64984848484848e+00 6.34037056732437e-02 6.17325984691107e-04
3.68287878787879e+00 6.27407035137642e-02 6.13628687662833e-04
3.71590909090909e+00 6.20846342597518e-02 6.09929000311378e-04
3.74893939393939e+00 6.14354254149236e-02 6.06227666214111e-04
3.78196969696970e+00 6.07930052394019e-02 6.02525404263630e-04
3.81500000000000e+00 6.01573027468860e-02 5.98822910580605e-04
3.84803030303030e+00 5.95282476916432e-02 5.95120859981748e-04
3.88106060606061e+00 5.89057705624894e-02 5.91419905775305e-04
3.91409090909091e+00 5.82898025735576e-02 5.87720679689990e-04
3.94712121212121e+00 5.76802756614061e-02 5.84023793222746e-04
3.98015151515151e+00 5.70771224727284e-02 5.80329839321663e-04
4.01318181818182e+00 5.64802763570556e-02 5.76639390752068e-04
4.04621212121212e+00 5.58896713638458e-02 5.72953001741187e-04
4.07924242424242e+00 5.53052422306830e-02 5.69271209559472e-04
4.11227272727273e+00 5.47269243762028e-02 5.65594532925239e-04
4.14530303030303e+00 5.41546538971727e-02 5.61923473552437e-04
4.17833333333333e+00 5.35883675571602e-02 5.58258517319551e-04
4.21136363636364e+00 5.30280027809878e-02 5.54600134001970e-04
4.24439393939394e+00 5.24734976465288e-02 5.50948777120874e-04
4.27742424242424e+00 5.19247908817725e-02 5.47304885021444e-04
4.31045454545455e+00 5.13818218541000e-02 5.43668882246687e-04
4.34348484848485e+00 5.08445305636993e-02 5.40041178047383e-04
4.37651515151515e+00 5.03128576406376e-02 5.36422167728414e-04
4.40954545454545e+00 4.97867443345512e-02 5.32812233945274e-04
4.44257575757576e+00 4.92661325082646e-02 5.29211745255522e-04
4.47560606060606e+00 4.87509646348767e-02 5.25621057391967e-04
4.50863636363636e+00 4.82411837878489e-02 5.22040514489121e-04
4.54166666666667e+00 4.77367336348168e-02 5.18470447676330e-04
4.57469696969697e+00 4.72375584346980e-02 5.14911176281707e-04
4.60772727272727e+00 4.67436030281612e-02 5.11363008727809e-04
4.64075757575758e+00 4.62548128326669e-02 5.07826242236544e-04
4.67378787878788e+00 4.57711338354169e-02 5.04301162631529e-04
4.70681818181818e+00 4.52925125904810e-02 5.00788045167716e-04
4.73984848484848e+00 4.48188962097585e-02 4.97287155608972e-04
4.77287878787879e+00 4.43502323572237e-02 4.93798748925405e-04
4.80590909090909e+00 4.38864692460815e-02 4.90323070353443e-04
4.83893939393939e+00 4.34275556300697e-02 4.86860356418113e-04
4.87196969696970e+00 4.29734407978800e-02 4.83410833670658e-04
4.90500000000000e+00 4.25240745703480e-02 4.79974719694455e-04
4.93803030303030e+00 4.20794072920819e-02 4.76552223844662e-04
4.97106060606061e+00 4.16393898269289e-02 4.73143546955947e-04
5.00409090909091e+00 4.12039735516872e-02 4.69748881134822e-04
5.03712121212121e+00 4.07731103533351e-02 4.66368410446340e-04
5.07015151515151e+00 4.03467526210831e-02 4.63002311818735e-04
5.10318181818182e+00 3.99248532411850e-02 4.59650753878656e-04
5.13621212121212e+00 3.95073655942059e-02 4.56313897842256e-04
5.16924242424242e+00 3.90942435473673e-02 4.52991898375396e-04
5.20227272727273e+00 3.86854414495187e-02 4.49684902466427e-04
5.23530303030303e+00 3.82809141284460e-02 4.46393050274070e-04
5.26833333333333e+00 3.78806168834999e-02 4.43116475744517e-04
5.30136363636364e+00 3.74845054814593e-02 4.39855306331749e-04
5.33439393939394e+00 3.70925361509183e-02 4.36609662791304e-04
5.36742424242424e+00 3.67046655796456e-02 4.33379659754057e-04
5.40045454545455e+00 3.63208509075786e-02 4.30165406491805e-04
5.43348484848485e+00 3.59410497221467e-02 4.26967005879356e-04
5.46651515151515e+00 3.55652200556748e-02 4.23784555149231e-04
5.49954545454545e+00 3.51933203786313e-02 4.20618146620840e-04
5.53257575757576e+00 3.48253095950968e-02 4.17467866696822e-04
5.56560606060606e+00 3.44611470402127e-02 4.14333796582872e-04
5.59863636363636e+00 3.41007924736751e-02 4.11216012983250e-04
5.63166666666667e+00 3.37442060753408e-02 4.08114587130604e-04
5.66469696969697e+00 3.33913484427245e-02 4.05029585472081e-04
5.69772727272727e+00 3.30421805847275e-02 4.01961070163920e-04
5.73075757575758e+00 3.26966639179743e-02 3.98909098814192e-04
5.76378787878788e+00 3.23547602619650e-02 3.95873724286882e-04
5.79681818181818e+00 3.20164318366292e-02 3.92854995162548e-04
5.82984848484848e+00 3.16816412563589e-02 3.89852956360225e-04
5.86287878787879e+00 3.13503515259240e-02 3.86867648245458e-04
5.89590909090909e+00 3.10225260380750e-02 3.83899107244550e-04
5.92893939393939e+00 3.06981285677884e-02 3.80947366438450e-04
5.96196969696970e+00 3.03771232683084e-02 3.78012454700979e-04
5.99500000000000e+00 3.00594746687981e-02 3.75094397285295e-04
6.02803030303030e+00 2.97451476687903e-02 3.72193216243327e-04
6.06106060606061e+00 2.94341075348576e-02 3.69308930188539e-04
6.09409090909091e+00 2.91263198962768e-02 3.66441554112121e-04
6.12712121212121e+00 2.88217507427398e-02 3.63591099773906e-04
6.16015151515151e+00 2.85203664190704e-02 3.60757576235341e-04
6.19318181818182e+00 2.82221336215442e-02 3.57940989067578e-04
6.22621212121212e+00 2.79270193956487e-02 3.55141340878013e-04
6.25924242424242e+00 2.76349911309860e-02 3.52358631819764e-04
6.29227272727273e+00 2.73460165577068e-02 3.49592858826686e-04
6.32530303030303e+00 2.70600637443186e-02 3.46844016116951e-04
6.35833333333333e+00 2.67771010927686e-02 3.44112095550498e-04
6.39136363636364e+00 2.64970973354200e-02 3.41397086411919e-04
6.42439393939394e+00 2.62200215311712e-02 3.38698975240026e-04
6.45742424242424e+00 2.59458430633257e-02 3.36017746161179e-04
6.49045454545455e+00 2.56745316349069e-02 3.33353381347836e-04
6.52348484848485e+00 2.54060572653430e-02 3.30705860315808e-04
6.55651515151515e+00 2.51403902883845e-02 3.28075160377411e-04
6.58954545454545e+00 2.48775013475824e-02 3.25461257080087e-04
6.62257575757576e+00 2.46173613930758e-02 3.22864123527619e-04
6.65560606060606e+00 2.43599416795573e-02 3.20283730814133e-04
6.68863636363636e+00 2.41052137619083e-02 3.17720048444169e-04
6.72166666666667e+00 2.38531494920861e-02 3.15173043677112e-04
6.75469696969697e+00 2.36037210171358e-02 3.12642681942492e-04
6.78772727272727e+00 2.33569007749786e-02 3.10128927132779e-04
6.82075757575758e+00 2.31126614917479e-02 3.07631741411070e-04
6.85378787878788e+00 2.28709761784278e-02 3.05151085057869e-04
6.88681818181818e+00 2.26318181289245e-02 3.02686916744318e-04
6.91984848484848e+00 2.23951609160506e-02 3.00239193911167e-04
6.95287878787879e+00 2.21609783886314e-02 2.97807872166608e-04
6.98590909090909e+00 2.19292446696222e-02 2.95392905661206e-04
7.01893939393939e+00 2.16999341522313e-02 2.92994247451024e-04
7.05196969696970e+00 2.14730214971153e-02 2.90611848916104e-04
7.08500000000000e+00 2.12484816305419e-02 2.88245660119657e-04
7.11803030303030e+00 2.10262897406472e-02 2.85895630059756e-04
7.15106060606061e+00 2.08064212750206e-02 2.83561706495142e-04
7.18409090909091e+00 2.05888519376937e-02 2.81243835805312e-04
7.21712121212121e+00 2.03735576873598e-02 2.78941963225426e-04
7.25015151515152e+00 2.01605147338041e-02 2.76656033174569e-04
7.28318181818182e+00 1.99496995352965e-02 2.74385988721503e-04
7.31621212121212e+00 1.97410887968557e-02 2.72131771909495e-04
7.34924242424242e+00 1.95346594668012e-02 2.69893324070967e-04
7.38227272727273e+00 1.93303887342269e-02 2.67670585311566e-04
7.41530303030303e+00 1.91282540273083e-02 2.65463494821637e-04
7.44833333333333e+00 1.89282330099724e-02 2.63271991093126e-04
7.48136363636364e+00 1.87303035797112e-02 2.61096011762300e-04
7.51439393939394e+00 1.85344438648817e-02 2.58935493482430e-04
7.54742424242424e+00 1.83406322230682e-02 2.56790372126237e-04
7.58045454545455e+00 1.81488472379040e-02 2.54660583070935e-04
7.61348484848485e+00 1.79590677167243e-02 2.52546060724206e-04
7.64651515151515e+00 1.77712726889691e-02 2.50446738806110e-04
7.67954545454545e+00 1.75854414031132e-02 2.48362550622378e-04
7.71257575757576e+00 1.74015533243917e-02 2.46293428606647e-04
7.74560606060606e+00 1.72195881332434e-02 2.44239304591060e-04
7.77863636363636e+00 1.70395257223458e-02 2.42200110068587e-04
7.81166666666667e+00 1.68613461944100e-02 2.40175775750927e-04
7.84469696969697e+00 1.66850298606647e-02 2.38166231828054e-04
7.87772727272727e+00 1.65105572379914e-02 2.36171408148057e-04
7.91075757575758e+00 1.63379090470033e-02 2.34191234079470e-04
7.94378787878788e+00 1.61670662097033e-02 2.32225638398882e-04
7.97681818181818e+00 1.59980098480175e-02 2.30274549458812e-04
8.00984848484848e+00 1.58307212810611e-02 2.28337895425584e-04
8.04287878787879e+00 1.56651820230891e-02 2.26415603873010e-04
8.07590909090909e+00 1.55013737820691e-02 2.24507602017873e-04
8.10893939393939e+00 1.53392784570385e-02 2.22613816948267e-04
8.14196969696970e+00 1.51788781361189e-02 2.20734175231207e-04
8.17500000000000e+00 1.50201550951264e-02 2.18868603138674e-04
8.20803030303030e+00 1.48630917950177e-02 2.17017026803419e-04
8.24106060606061e+00 1.47076708801527e-02 2.15179372095028e-04
8.27409090909091e+00 1.45538751761929e-02 2.13355564518233e-04
8.30712121212121e+00 1.44016876887591e-02 2.11545529358383e-04
8.34015151515151e+00 1.42510916009927e-02 2.09749191888762e-04
8.37318181818182e+00 1.41020702717110e-02 2.07966477009851e-04
8.40621212121212e+00 1.39546072340997e-02 2.06197309454607e-04
8.43924242424242e+00 1.38086861933563e-02 2.04441613987534e-04
8.47227272727273e+00 1.36642910249023e-02 2.02699315056276e-04
8.50530303030303e+00 1.35214057731111e-02 2.00970336988798e-04
8.53833333333333e+00 1.33800146490299e-02 1.99254604128591e-04
8.57136363636364e+00 1.32401020288086e-02 1.97552040723241e-04
8.60439393939394e+00 1.31016524518145e-02 1.95862570832552e-04
8.63742424242424e+00 1.29646506194042e-02 1.94186118454757e-04
8.67045454545454e+00 1.28290813927483e-02 1.92522607707542e-04
8.70348484848485e+00 1.26949297911697e-02 1.90871962507636e-04
8.73651515151515e+00 1.25621809909487e-02 1.89234106749998e-04
8.76954545454545e+00 1.24308203232198e-02 1.87608964481639e-04
8.80257575757576e+00 1.23008332723619e-02 1.85996459592158e-04
8.83560606060606e+00 1.21722054748354e-02 1.84396515985975e-04
8.86863636363636e+00 1.20449227171497e-02 1.82809057749397e-04
8.90166666666667e+00 1.19189709343024e-02 1.81234008851714e-04
8.93469696969697e+00 1.17943362086485e-02 1.79671293310609e-04
8.96772727272727e+00 1.16710047679358e-02 1.78120835305094e-04
9.00075757575758e+00 1.15489629839257e-02 1.76582559078419e-04
9.03378787878788e+00 1.14281973707564e-02 1.75056388857534e-04
9.06681818181818e+00 1.13086945838515e-02 1.73542248958513e-04
9.09984848484848e+00 1.11904414180423e-02 1.72040063938568e-04
9.13287878787879e+00 1.10734248061184e-02 1.70549758321052e-04
9.16590909090909e+00 1.09576318177658e-02 1.69071256746036e-04
9.19893939393939e+00 1.08430496577521e-02 1.67604484116446e-04
9.23196969696970e+00 1.07296656645215e-02 1.66149365332418e-04
9.26500000000000e+00 1.06174673091623e-02 1.64705825436023e-04
9.29803030303030e+00 1.05064421936528e-02 1.63273789709583e-04
9.33106060606061e+00 1.03965780496148e-02 1.61853183588484e-04
9.36409090909091e+00 1.02878627368444e-02 1.60443932588600e-04
9.39712121212121e+00 1.01802842423168e-02 1.59045962398057e-04
9.43015151515151e+00 1.00738306785088e-02 1.57659199010287e-04
9.46318181818182e+00 9.96849028209333e-03 1.56283568479613e-04
9.49621212121212e+00 9.86425141297212e-03 1.54918997053049e-04
9.52924242424242e+00 9.76110255265373e-03 1.53565411298216e-04
9.56227272727273e+00 9.65903230298838e-03 1.52222737867222e-04
9.59530303030303e+00 9.55802938522746e-03 1.50890903623396e-04
9.62833333333333e+00 9.45808263845517e-03 1.49569835726980e-04
9.66136363636364e+00 9.35918101846367e-03 1.48259461556871e-04
9.69439393939394e+00 9.26131359643303e-03 1.46959708645244e-04
9.72742424242424e+00 9.16446955802495e-03 1.45670504757503e-04
9.76045454545454e+00 9.06863820188370e-03 1.44391778008920e-04
9.79348484848485e+00 8.97380893846036e-03 1.43123456647269e-04
9.82651515151515e+00 8.87997128913191e-03 1.41865469168303e-04
9.85954545454545e+00 8.78711488475131e-03 1.40617744427855e-04
9.89257575757576e+00 8.69522946450846e-03 1.39380211431855e-04
9.92560606060606e+00 8.60430487507374e-03 1.38152799447443e-04
9.95863636363636e+00 8.51433106919603e-03 1.36935438110794e-04
9.99166666666667e+00 8.42529810459864e-03 1.35728057159063e-04
1.00246969696970e+01 8.33719614332052e-03 1.34530586734318e-04
1.00577272727273e+01 8.25001544983596e-03 1.33342957323385e-04
1.00907575757576e+01 8.16374639059795e-03 1.32165099523740e-04
1.01237878787879e+01 8.07837943279593e-03 1.30996944284472e-04
1.01568181818182e+01 7.99390514330238e-03 1.29838422841341e-04
1.01898484848485e+01 7.91031418763046e-03 1.28689466719907e-04
1.02228787878788e+01 7.82759732890255e-03 1.27550007738515e-04
1.02559090909091e+01 7.74574542682957e-03 1.26419978011163e-04
1.02889393939394e+01 7.66474943670093e-03 1.25299309950276e-04
1.03219696969697e+01 7.58460040838513e-03 1.24187936269316e-04
1.03550000000000e+01 7.50528948534074e-03 1.23085790271174e-04
1.03880303030303e+01 7.42680790289124e-03 1.21992804986486e-04
1.04210606060606e+01 7.34914698951416e-03 1.20908913754572e-04
