Energy (eV)          EEDF (eV^-(3/2))     First Anisotropy
2.39166666666667e-01 4.58083082786812e-02 6.84476167240191e-05
7.17500000000000e-01 4.32428776406337e-02 1.10232103681254e-04
1.19583333333333e+00 4.08211203775685e-02 1.38299155965211e-04
1.67416666666667e+00 3.85349902655278e-02 1.55651218636484e-04
2.15250000000000e+00 3.63768916961403e-02 1.67121321229096e-04
2.63083333333333e+00 3.43396544314016e-02 1.74682521429446e-04
3.10916666666667e+00 3.24165098114942e-02 1.79423927988690e-04
3.58750000000000e+00 3.06010682347506e-02 1.82039589515216e-04
4.06583333333333e+00 2.88872979371632e-02 1.83010494546750e-04
4.54416666666667e+00 2.72695049648286e-02 1.82688597674367e-04
5.02250000000000e+00 2.57423142404009e-02 1.81341283524207e-04
5.50083333333333e+00 2.43006517080385e-02 1.79177247789670e-04
5.97916666666667e+00 2.29397274830753e-02 1.76362667368669e-04
6.45750000000000e+00 2.16550199284994e-02 1.73031871035746e-04
6.93583333333333e+00 2.04422606337340e-02 1.69294694168574e-04
7.41416666666667e+00 1.92974202383525e-02 1.65241732167839e-04
7.89250000000000e+00 1.82166950386085e-02 1.60948204372933e-04
8.37083333333333e+00 1.71964943507845e-02 1.56476866369489e-04
8.84916666666667e+00 1.62334285849933e-02 1.51880252129283e-04
9.32750000000000e+00 1.53242979792218e-02 1.47202430825308e-04
9.80583333333333e+00 1.44660819688711e-02 1.42480404202423e-04
1.02841666666667e+01 1.36559291537008e-02 1.37745233386550e-04
1.07625000000000e+01 1.28911478232339e-02 1.33022958242039e-04
1.12408333333333e+01 1.21691970037970e-02 1.28335353151424e-04
1.17191666666667e+01 1.14876780387999e-02 1.23700556162412e-04
1.21975000000000e+01 1.08443265979244e-02 1.19133596257848e-04
1.26758333333333e+01 1.02370051570300e-02 1.14646835226718e-04
1.31541666666667e+01 9.66369591097936e-03 1.10250344449887e-04
1.36325000000000e+01 9.12249405371854e-03 1.05952225856066e-04
1.41108333333333e+01 8.61160145179878e-03 1.01758884708688e-04
1.45891666666667e+01 8.12932068121333e-03 9.76752657512408e-05
1.50675000000000e+01 7.67404937586116e-03 9.37050567326563e-05
1.55458333333333e+01 7.24427490531531e-03 8.98508628659892e-05
1.60241666666667e+01 6.83856935760461e-03 8.61143594770956e-05
1.65025000000000e+01 6.45558478597309e-03 8.24964245694381e-05
1.69808333333333e+01 6.09404873153261e-03 7.89972529739016e-05
1.74591666666667e+01 5.75276000205768e-03 7.56164569832856e-05
1.79375000000000e+01 5.43058467411759e-03 7.23531541359432e-05
1.84158333333333e+01 5.12645232651994e-03 6.92060429037796e-05
1.88941666666667e+01 4.83935248890644e-03 6.61734697615968e-05
1.93725000000000e+01 4.56833127912561e-03 6.32534877988690e-05
1.98508333333333e+01 4.31248823464491e-03 6.04439071711166e-05
2.03291666666667e+01 4.07097332471943e-03 5.77423399469535e-05
2.08075000000000e+01 3.84298412200987e-03 5.51462392751952e-05
2.12858333333333e+01 3.62776313704230e-03 5.26529329370261e-05
2.17641666666667e+01 3.42459530455177e-03 5.02596532103497e-05
2.22425000000000e+01 3.23280560442672e-03 4.79635628661304e-05
2.27208333333333e+01 3.05175681935939e-03 4.57617772460487e-05
2.31991666666667e+01 2.88084742013578e-03 4.36513839012629e-05
2.36775000000000e+01 2.71950956449847e-03 4.16294595741644e-05
2.41558333333333e+01 2.56720721080499e-03 3.96930844184202e-05
2.46341666666667e+01 2.42343433896349e-03 3.78393546090754e-05
2.51125000000000e+01 2.28771326716235e-03 3.60653931202195e-05
2.55908333333333e+01 2.15959306501794e-03 3.43683585444848e-05
2.60691666666667e+01 2.03864805689401e-03 3.27454528600233e-05
2.65475000000000e+01 1.92447640599450e-03 3.11939279343782e-05
2.70258333333333e+01 1.81669877945362e-03 2.97110906360783e-05
2.75041666666667e+01 1.71495708922554e-03 2.82943072716544e-05
2.79825000000000e+01 1.61891330106472e-03 2.69410071566146e-05
2.84608333333333e+01 1.52824831155913e-03 2.56486851968436e-05
2.89391666666667e+01 1.44266088888635e-03 2.44149040526707e-05
2.94175000000000e+01 1.36186667095614e-03 2.32372957156483e-05
2.98958333333333e+01 1.28559722073788e-03 2.21135623844874e-05
3.03741666666667e+01 1.21359913516107e-03 2.10414770986483e-05
3.08525000000000e+01 1.14563320237227e-03 2.00188839810069e-05
3.13308333333333e+01 1.08147360704942e-03 1.90436979877316e-05
3.18091666666667e+01 1.02090718075868e-03 1.81139045341788e-05
3.22875000000000e+01 9.63732693051873e-04 1.72275588682504e-05
3.27658333333333e+01 9.09760182954689e-04 1.63827851012758e-05
3.32441666666667e+01 8.58810328326699e-04 1.55777751940471e-05
3.37225000000000e+01 8.10713849541058e-04 1.48107877875666e-05
3.42008333333333e+01 7.65310947113995e-04 1.40801467999701e-05
3.46791666666667e+01 7.22450771178367e-04 1.33842400304607e-05
3.51575000000000e+01 6.81990919864398e-04 1.27215176758598e-05
3.56358333333333e+01 6.43796966218416e-04 1.20904906917298e-05
3.61141666666667e+01 6.07742011898214e-04 1.14897291933918e-05
3.65925000000000e+01 5.73706265214150e-04 1.09178608164629e-05
3.70708333333333e+01 5.41576643160588e-04 1.03735689782919e-05
3.75491666666667e+01 5.11246395963651e-04 9.85559119901795e-06
3.80275000000000e+01 4.82614752131119e-04 9.36271741400079e-06
3.85058333333333e+01 4.55586583670838e-04 8.89378822733839e-06
3.89841666666667e+01 4.30072090243455e-04 8.44769323567333e-06
3.94625000000000e+01 4.05986500579139e-04 8.02336936444991e-06
3.99408333333333e+01 3.83249790850608e-04 7.61979917363616e-06
4.04191666666667e+01 3.61786418968769e-04 7.23600923822862e-06
4.08975000000000e+01 3.41525073414539e-04 6.87106855460955e-06
4.13758333333333e+01 3.22398436326999e-04 6.52408693609988e-06
4.18541666666667e+01 3.04342959981790e-04 6.19421348367035e-06
4.23325000000000e+01 2.87298655508092e-04 5.88063509046456e-06
4.28108333333333e+01 2.71208893592359e-04 5.58257494893884e-06
4.32891666666667e+01 2.56020216442880e-04 5.29929113086207e-06
4.37675000000000e+01 2.41682160057925e-04 5.03007520527130e-06
4.42458333333333e+01 2.28147086572680e-04 4.77425086787836e-06
4.47241666666667e+01 2.15370026076445e-04 4.53117263938332e-06
4.52025000000000e+01 2.03308527103865e-04 4.30022460325138e-06
4.56808333333333e+01 1.91922515600975e-04 4.08081916046172e-06
4.61591666666667e+01 1.81174161855760e-04 3.87239584826793e-06
4.66375000000000e+01 1.71027754730595e-04 3.67442019814668e-06
4.71158333333333e+01 1.61449583020963e-04 3.48638261386925e-06
4.75941666666667e+01 1.52407823512482e-04 3.30779730823861e-06
4.80725000000000e+01 1.43872435184422e-04 3.13820127757332e-06
4.85508333333333e+01 1.35815059405729e-04 2.97715329779093e-06
4.90291666666667e+01 1.28208925764509e-04 2.82423297369495e-06
4.95075000000000e+01 1.21028763071253e-04 2.67903982384274e-06
4.99858333333333e+01 1.14250715401270e-04 2.54119238732858e-06
5.04641666666667e+01 1.07852262875096e-04 2.41032737841307e-06
5.09425000000000e+01 1.01812146793665e-04 2.28609887415788e-06
5.14208333333333e+01 9.61102990111537e-05 2.16817752350647e-06
5.18991666666667e+01 9.07277752926861e-05 2.05624979910042e-06
5.23775000000000e+01 8.56466923373666e-05 1.95001727933543e-06
5.28558333333333e+01 8.08501683649919e-05 1.84919595088433e-06
5.33341666666667e+01 7.63222670542680e-05 1.75351554917545e-06
5.38125000000000e+01 7.20479445659661e-05 1.66271892630697e-06
5.42908333333333e+01 6.80129995630229e-05 1.57656143813799e-06
5.47691666666667e+01 6.42040260494807e-05 1.49481036493003e-06
5.52475000000000e+01 6.06083688058097e-05 1.41724435668403e-06
5.57258333333333e+01 5.72140813446066e-05 1.34365289619531e-06
5.62041666666667e+01 5.40098862371505e-05 1.27383579164573e-06
5.66825000000000e+01 5.09851376250984e-05 1.20760269127989e-06
5.71608333333333e+01 4.81297858518063e-05 1.14477261427247e-06
5.76391666666667e+01 4.54343440877342e-05 1.08517350750943e-06
5.81175000000000e+01 4.28898567948455e-05 1.02864182201034e-06
5.85958333333333e+01 4.04878699736234e-05 9.75022104016241e-07
5.90741666666667e+01 3.82204030872914e-05 9.24166608744055e-07
5.95525000000000e+01 3.60799225336775e-05 8.75934931528896e-07
6.00308333333333e+01 3.40593166162930e-05 8.30193652153692e-07
6.05091666666667e+01 3.21518719260968e-05 7.86815998953151e-07
6.09875000000000e+01 3.03512510256895e-05 7.45681528249597e-07
6.14658333333333e+01 2.86514713943862e-05 7.06675815575448e-07
6.19441666666667e+01 2.70468855598194e-05 6.69690164106811e-07
6.24225000000000e+01 2.55321623255869e-05 6.34621326569785e-07
6.29008333333333e+01 2.41022690593457e-05 6.01371237627582e-07
6.33791666666667e+01 2.27524549789029e-05 5.69846761217070e-07
6.38575000000000e+01 2.14782353606571e-05 5.39959449688811e-07
6.43358333333333e+01 2.02753766399207e-05 5.11625312225996e-07
6.48141666666667e+01 1.91398823506711e-05 4.84764596224582e-07
6.52925000000000e+01 1.80679798414683e-05 4.59301578987205e-07
6.57708333333333e+01 1.70561077414927e-05 4.35164367600883e-07
6.62491666666667e+01 1.61009041326404e-05 4.12284710033638e-07
6.67275000000000e+01 1.51991953747603e-05 3.90597815222164e-07
6.72058333333333e+01 1.43479855617886e-05 3.70042180353595e-07
6.76841666666667e+01 1.35444465717622e-05 3.50559427843755e-07
6.81625000000000e+01 1.27859086664427e-05 3.32094150137022e-07
6.86408333333333e+01 1.20698516215680e-05 3.14593760811987e-07
6.91191666666667e+01 1.13938963566287e-05 2.98008354056507e-07
6.95975000000000e+01 1.07557970271304e-05 2.82290570934319e-07
7.00758333333333e+01 1.01534335631508e-05 2.67395471164677e-07
7.05541666666667e+01 9.58480462806446e-06 2.53280412117099e-07
7.10325000000000e+01 9.04802096642973e-06 2.39904933693377e-07
7.15108333333333e+01 8.54129912724857e-06 2.27230648018471e-07
7.19891666666667e+01 8.06295554064077e-06 2.15221135344511e-07
7.24675000000000e+01 7.61140092198226e-06 2.03841845050403e-07
7.29458333333333e+01 7.18513499176315e-06 1.93060000827522e-07
7.34241666666667e+01 6.78274149271609e-06 1.82844511210219e-07
7.39025000000000e+01 6.40288348248753e-06 1.73165884510615e-07
7.43808333333333e+01 6.04429889185837e-06 1.63996147390644e-07
7.48591666666667e+01 5.70579633301023e-06 1.55308768027639e-07
7.53375000000000e+01 5.38625113964377e-06 1.47078583081880e-07
7.58158333333333e+01 5.08460163044974e-06 1.39281727819232e-07
7.62941666666667e+01 4.79984558290400e-06 1.31895570178261e-07
7.67725000000000e+01 4.53103690214948e-06 1.24898648115548e-07
7.72508333333333e+01 4.27728247774051e-06 1.18270609683722e-07
7.77291666666667e+01 4.03773921730020e-06 1.11992156493899e-07
7.82075000000000e+01 3.81161124432801e-06 1.06044990001715e-07
7.86858333333333e+01 3.59814725401955e-06 1.00411760156982e-07
7.91641666666667e+01 3.39663801789645e-06 9.50760169550406e-08
7.96425000000000e+01 3.20641402655446e-06 9.00221644177731e-08
8.01208333333333e+01 3.02684326531727e-06 8.52354166164131e-08
8.05991666666667e+01 2.85732911506201e-06 8.07017561804708e-08
8.10775000000000e+01 2.69730836925841e-06 7.64078948954600e-08
8.15558333333333e+01 2.54624936279686e-06 7.23412360623547e-08
8.20341666666667e+01 2.40365020610506e-06 6.84898389857496e-08
8.25125000000000e+01 2.26903711704681e-06 6.48423852562652e-08
8.29908333333333e+01 2.14196284684858e-06 6.13881465514097e-08
8.34691666666667e+01 2.02200519459010e-06 5.81169542580244e-08
8.39475000000000e+01 1.90876560396827e-06 5.50191706347515e-08
8.44258333333333e+01 1.80186783914995e-06 5.20856612819919e-08
8.49041666666667e+01 1.70095673512099e-06 4.93077691697520e-08
8.53825000000000e+01 1.60569701725917e-06 4.66772899863592e-08
8.58608333333333e+01 1.51577218743067e-06 4.41864486119785e-08
8.63391666666667e+01 1.43088347274992e-06 4.18278769237982e-08
8.68175000000000e+01 1.35074883258316e-06 3.95945927333471e-08
8.72958333333333e+01 1.27510202150690e-06 3.74799796906290e-08
8.77741666666667e+01 1.20369170497641e-06 3.54777683259920e-08
8.82525000000000e+01 1.13628062399914e-06 3.35820180617469e-08
8.87308333333333e+01 1.07264480687363e-06 3.17871000541534e-08
8.92091666666667e+01 1.01257282526614e-06 3.00876810069945e-08
8.96875000000000e+01 9.55865091518705e-07 2.84787078153186e-08
9.01658333333333e+01 9.02333195545591e-07 2.69553929218252e-08
9.06441666666667e+01 8.51799279025144e-07 2.55132005025977e-08
9.11225000000000e+01 8.04095444282404e-07 2.41478333631134e-08
9.16008333333333e+01 7.59063196471006e-07 2.28552204454438e-08
9.20791666666667e+01 7.16552917126782e-07 2.16315050430887e-08
9.25575000000000e+01 6.76423366908856e-07 2.04730336231949e-08
9.30358333333333e+01 6.38541216350129e-07 1.93763451726159e-08
9.35141666666667e+01 6.02780602996665e-07 1.83381611475189e-08
9.39925000000000e+01 5.69022713104222e-07 1.73553759421301e-08
9.44708333333333e+01 5.37155386894689e-07 1.64250478061849e-08
9.49491666666667e+01 5.07072746010097e-07 1.55443902769577e-08
9.54275000000000e+01 4.78674841627878e-07 1.47107640547988e-08
9.59058333333333e+01 4.51867322393441e-07 1.39216692627975e-08
9.63841666666667e+01 4.26561121024732e-07 1.31747381450161e-08
9.68625000000000e+01 4.02672158300137e-07 1.24677281434538e-08
9.73408333333333e+01 3.80121063715683e-07 1.17985153036731e-08
9.78191666666667e+01 3.58832911848614e-07 1.11650880540938e-08
9.82975000000000e+01 3.38736973346394e-07 1.05655413085627e-08
9.87758333333333e+01 3.19766479937076e-07 9.99807084999165e-09
9.92541666666667e+01 3.01858402651493e-07 9.46096803225996e-09
9.97325000000000e+01 2.84953242350448e-07 8.95261475795261e-09
1.00210833333333e+02 2.68994832046004e-07 8.47147869634663e-09
1.00689166666667e+02 2.53930150336244e-07 8.01610876715075e-09
1.01167500000000e+02 2.39709145233536e-07 7.58513089099574e-09
1.01645833333333e+02 2.26284567668467e-07 7.17724387230885e-09
1.02124166666667e+02 2.13611814954864e-07 6.79121557823339e-09
1.02602500000000e+02 2.01648782181542e-07 6.42587935403348e-09
1.03080833333333e+02 1.90355722358816e-07 6.08013046642742e-09
1.03559166666667e+02 1.79695114691542e-07 5.75292288118754e-09
1.04037500000000e+02 1.69631539571372e-07 5.44326620621969e-09
1.04515833333333e+02 1.60131560928345e-07 5.15022266710093e-09
1.04994166666667e+02 1.51163615415325e-07 4.87290436487394e-09
1.05472500000000e+02 1.42697907252675e-07 4.61047067493810e-09
1.05950833333333e+02 1.34706309259323e-07 4.36212567573564e-09
1.06429166666667e+02 1.27162269629071e-07 4.12711581576983e-09
1.06907500000000e+02 1.20040723474817e-07 3.90472770088978e-09
1.07385833333333e+02 1.13318009573318e-07 3.69428590870458e-09
1.07864166666667e+02 1.06971791940730e-07 3.49515100423463e-09
1.08342500000000e+02 1.00980985424286e-07 3.30671765804155e-09
1.08820833333333e+02 9.53256856658332e-08 3.12841278889317e-09
1.09299166666667e+02 8.99871031272855e-08 2.95969387633971e-09
1.09777500000000e+02 8.49475004988610e-08 2.80004736058468e-09
1.10255833333333e+02 8.01901337825910e-08 2.64898706441665e-09
1.10734166666667e+02 7.56991967913139e-08 2.50605275859900e-09
1.11212500000000e+02 7.14597684968619e-08 2.37080880159830e-09
1.11690833333333e+02 6.74577634679917e-08 2.24284279905066e-09
1.12169166666667e+02 6.36798851802641e-08 2.12176438434791e-09
1.12647500000000e+02 6.01135817256203e-08 2.00720406251170e-09
1.13125833333333e+02 5.67470041194954e-08 1.89881207165104e-09
1.13604166666667e+02 5.35689670228704e-08 1.79625734667704e-09
1.14082500000000e+02 5.05689114853731e-08 1.69922653688338e-09
1.14560833333333e+02 4.77368698721538e-08 1.60742303913155e-09
1.15039166666667e+02 4.50634328214330e-08 1.52056611736604e-09
1.15517500000000e+02 4.25397179041451e-08 1.43839006796397e-09
1.15995833333333e+02 4.01573401195303e-08 1.36064339888729e-09
1.16474166666667e+02 3.79083840982941e-08 1.28708808171662e-09
1.16952500000000e+02 3.57853777392021e-08 1.21749884267609e-09
1.17430833333333e+02 3.37812673892205e-08 1.15166246583036e-09
1.17909166666667e+02 3.18893944595434e-08 1.08937715780842e-09
1.18387500000000e+02 3.01034732487653e-08 1.03045194568888e-09
1.18865833333333e+02 2.84175700637856e-08 9.74706085591083e-10
1.19344166666667e+02 2.68260835481543e-08 9.21968523205835e-10
1.19822500000000e+02 2.53237260269697e-08 8.72077382523485e-10
1.20300833333333e+02 2.39055059428546e-08 8.24879463955339e-10
1.20779166666667e+02 2.25667113072823e-08 7.80229786300536e-10
1.21257500000000e+02 2.13028940079319e-08 7.37991152683857e-10
1.21735833333333e+02 2.01098550333875e-08 6.98033724717556e-10
1.22214166666667e+02 1.89836305516637e-08 6.60234633674889e-10
1.22692500000000e+02 1.79204787095664e-08 6.24477612037482e-10
1.23170833333333e+02 1.69168672033373e-08 5.90652632228688e-10
1.23649166666667e+02 1.59694615673028e-08 5.58655576589308e-10
1.24127500000000e+02 1.50751140694999e-08 5.28387924666339e-10
1.24605833333333e+02 1.42308532557903e-08 4.99756446769423e-10
1.25084166666667e+02 1.34338740977665e-08 4.72672923898995e-10
1.25562500000000e+02 1.26815286517501e-08 4.47053882383668e-10
1.26040833333333e+02 1.19713172630382e-08 4.22820333975347e-10
1.26519166666667e+02 1.13008802779017e-08 3.99897538204236e-10
1.26997500000000e+02 1.06679901859278e-08 3.78214777228506e-10
1.27475833333333e+02 1.00705442208117e-08 3.57705135429241e-10
1.27954166666667e+02 9.50655738814035e-09 3.38305297794128e-10
1.28432500000000e+02 8.97415585552066e-09 3.19955358912771e-10
1.28910833333333e+02 8.47157072818118e-09 3.02598636092022e-10
1.29389166666667e+02 7.99713218365204e-09 2.86181498329870e-10
1.29867500000000e+02 7.54926391152987e-09 2.70653204300160e-10
1.30345833333333e+02 7.12647787735865e-09 2.55965743909799e-10
1.30824166666667e+02 6.72736938847999e-09 2.42073693241045e-10
1.31302500000000e+02 6.35061241675116e-09 2.28934077143998e-10
1.31780833333333e+02 5.99495519379160e-09 2.16506234923154e-10
1.32259166666667e+02 5.65921606017398e-09 2.04751697321071e-10
1.32737500000000e+02 5.34227953088246e-09 1.93634069996047e-10
1.33215833333333e+02 5.04309258992460e-09 1.83118919676499e-10
1.33694166666667e+02 4.76066119850267e-09 1.73173669849997e-10
1.34172500000000e+02 4.49404698526497e-09 1.63767501963992e-10
1.34650833333333e+02 4.24236412924168e-09 1.54871258939783e-10
1.35129166666667e+02 4.00477642237824e-09 1.46457356733471e-10
1.35607500000000e+02 3.78049448536322e-09 1.38499700574184e-10
1.36085833333333e+02 3.56877314547694e-09 1.30973603199469e-10
1.36564166666667e+02 3.36890896547755e-09 1.23855709882012e-10
1.37042500000000e+02 3.18023790154468e-09 1.17123927424924e-10
1.37520833333333e+02 3.00213309746091e-09 1.10757354879765e-10
1.37999166666667e+02 2.83400280581335e-09 1.04736219996033e-10
1.38477500000000e+02 2.67528841784567e-09 9.90418190374418e-11
1.38955833333333e+02 2.52546260786935e-09 9.36564580829464e-11
1.39434166666667e+02 2.38402758449707e-09 8.85633991646756e-11
1.39912500000000e+02 2.25051343334507e-09 8.37468092617349e-11
1.40390833333333e+02 2.12447655606626e-09 7.91917105726188e-11
1.40869166666667e+02 2.00549819921995e-09 7.48839348695199e-11
1.41347500000000e+02 1.89318306014472e-09 7.08100802748003e-11
1.41825833333333e+02 1.78715797383474e-09 6.69574691377217e-11
1.42304166666667e+02 1.68707067536844e-09 6.33141093558468e-11
1.42782500000000e+02 1.59258862716127e-09 5.98686577505000e-11
1.43260833333333e+02 1.50339791433381e-09 5.66103843883416e-11
1.43739166666667e+02 1.41920220361963e-09 5.35291398098095e-11
1.44217500000000e+02 1.33972175684354e-09 5.06153239992387e-11
1.44695833333333e+02 1.26469250167824e-09 4.78598561680012e-11
1.45174166666667e+02 1.19386515583821e-09 4.52541469906305e-11
1.45652500000000e+02 1.12700439721163e-09 4.27900723175692e-11
1.46130833333333e+02 1.06388808215815e-09 4.04599475861258e-11
1.46609166666667e+02 1.00430650874793e-09 3.82565043013608e-11
1.47087500000000e+02 9.48061718671282e-10 3.61728677687358e-11
1.47565833333333e+02 8.94966839651688e-10 3.42025354260099e-11
1.48044166666667e+02 8.44845465655044e-10 3.23393569217989e-11
1.48522500000000e+02 7.97531069651352e-10 3.05775152551560e-11
1.49000833333333e+02 7.52866450436526e-10 2.89115084291729e-11
1.49479166666667e+02 7.10703211241495e-10 2.73361325784360e-11
1.49957500000000e+02 6.70901265743212e-10 2.58464659957264e-11
1.50435833333333e+02 6.33328372717690e-10 2.44378535993993e-11
1.50914166666667e+02 5.97859697426856e-10 2.31058926443950e-11
