Energy (eV)          EEDF (eV^-(3/2))     First Anisotropy
8.64893617021277e-04 9.84819411653266e+00 5.09109025371370e-03
2.59468085106383e-03 9.77606702844009e+00 8.40430531224345e-03
4.32446808510638e-03 9.70446819104442e+00 1.10879304207677e-02
6.05425531914894e-03 9.63339373572073e+00 1.31226251906645e-02
7.78404255319149e-03 9.56283982180990e+00 1.48162158541471e-02
9.51382978723404e-03 9.49280263703185e+00 1.62851635599027e-02
1.12436170212766e-02 9.42327839689636e+00 1.75897744125391e-02
1.29734042553192e-02 9.35426334478477e+00 1.87664875103647e-02
1.47031914893617e-02 9.28575375099835e+00 1.98394842564206e-02
1.64329787234043e-02 9.21774591408228e+00 2.08258656469008e-02
1.81627659574468e-02 9.15023615917493e+00 2.17382982223473e-02
1.98925531914894e-02 9.08322083805530e+00 2.25865009114256e-02
2.16223404255319e-02 9.01669632986911e+00 2.33781418456962e-02
2.33521276595745e-02 8.95065903993018e+00 2.41194095311315e-02
2.50819148936170e-02 8.88510539965952e+00 2.48153926726759e-02
2.68117021276596e-02 8.82003186710639e+00 2.54703422196072e-02
2.85414893617021e-02 8.75543492599870e+00 2.60878575290724e-02
3.02712765957447e-02 8.69131108563599e+00 2.66710218628410e-02
3.20010638297872e-02 8.62765688127725e+00 2.72225034356010e-02
3.37308510638298e-02 8.56446887334944e+00 2.77446321126187e-02
3.54606382978723e-02 8.50174364731792e+00 2.82394584628885e-02
3.71904255319149e-02 8.43947781398176e+00 2.87088001401303e-02
3.89202127659575e-02 8.37766800879194e+00 2.91542786936558e-02
4.06500000000000e-02 8.31631089171002e+00 2.95773490029239e-02
4.23797872340426e-02 8.25540314743600e+00 2.99793233015859e-02
4.41095744680851e-02 8.19494148468337e+00 3.03613908042242e-02
4.58393617021277e-02 8.13492263652869e+00 3.07246339308649e-02
4.75691489361702e-02 8.07534335984148e+00 3.10700418983222e-02
4.92989361702128e-02 8.01620043513636e+00 3.13985220076051e-02
5.10287234042553e-02 7.95749066673116e+00 3.17109092977364e-02
5.27585106382979e-02 7.89921088223269e+00 3.20079747626286e-02
5.44882978723404e-02 7.84135793238743e+00 3.22904322790690e-02
5.62180851063830e-02 7.78392869120372e+00 3.25589446719203e-02
5.79478723404255e-02 7.72692005548253e+00 3.28141289627542e-02
5.96776595744681e-02 7.67032894466811e+00 3.30565608338741e-02
6.14074468085106e-02 7.61415230094145e+00 3.32867786220944e-02
6.31372340425532e-02 7.55838708878833e+00 3.35052868219996e-02
6.48670212765958e-02 7.50303029485071e+00 3.37125590778307e-02
6.65968085106383e-02 7.44807892799694e+00 3.39090409174530e-02
6.83265957446809e-02 7.39353001892122e+00 3.40951521777844e-02
7.00563829787234e-02 7.33938061999630e+00 3.42712890761109e-02
7.17861702127660e-02 7.28562780532460e+00 3.44378261439222e-02
7.35159574468085e-02 7.23226867036456e+00 3.45951179589820e-02
7.52457446808511e-02 7.17930033178509e+00 3.47435006186485e-02
7.69755319148936e-02 7.12671992750079e+00 3.48832931466143e-02
7.87053191489362e-02 7.07452461632173e+00 3.50147987632328e-02
8.04351063829787e-02 7.02271157780980e+00 3.51383059576371e-02
8.21648936170213e-02 6.97127801230077e+00 3.52540895362224e-02
8.38946808510638e-02 6.92022114057447e+00 3.53624115761942e-02
8.56244680851064e-02 6.86953820371343e+00 3.54635222209591e-02
8.73542553191489e-02 6.81922646311364e+00 3.55576604784097e-02
8.90840425531915e-02 6.76928320017314e+00 3.56450549514657e-02
9.08138297872341e-02 6.71970571615270e+00 3.57259244379684e-02
9.25436170212766e-02 6.67049133217726e+00 3.58004785500212e-02
9.42734042553192e-02 6.62163738894086e+00 3.58689182839386e-02
9.60031914893617e-02 6.57314124656954e+00 3.59314364791024e-02
9.77329787234043e-02 6.52500028461485e+00 3.59882183066271e-02
9.94627659574468e-02 6.47721190177350e+00 3.60394417493841e-02
1.01192553191489e-01 6.42977351558262e+00 3.60852778584110e-02
1.02922340425532e-01 6.38268256300465e+00 3.61258912298535e-02
1.04652127659574e-01 6.33593649946887e+00 3.61614404192508e-02
1.06381914893617e-01 6.28953279903957e+00 3.61920781881082e-02
1.08111702127660e-01 6.24346895390205e+00 3.62179516550512e-02
1.09841489361702e-01 6.19774247538140e+00 3.62392027065862e-02
1.11571276595745e-01 6.15235089263752e+00 3.62559683884909e-02
1.13301063829787e-01 6.10729175292489e+00 3.62683809447240e-02
1.15030851063830e-01 6.06256262146358e+00 3.62765681715760e-02
1.16760638297872e-01 6.01816108096758e+00 3.62806534479624e-02
1.18490425531915e-01 5.97408473254104e+00 3.62807560567231e-02
1.20220212765957e-01 5.93033119450850e+00 3.62769914934605e-02
1.21950000000000e-01 5.88689810263836e+00 3.62694715116189e-02
1.23679787234043e-01 5.84378310970456e+00 3.62583041784257e-02
1.25409574468085e-01 5.80098388630125e+00 3.62435941459965e-02
1.27139361702128e-01 5.75849811976355e+00 3.62254429133437e-02
1.28869148936170e-01 5.71632351436412e+00 3.62039488413395e-02
1.30598936170213e-01 5.67445779090440e+00 3.61792071796791e-02
1.32328723404255e-01 5.63289868745752e+00 3.61513102996520e-02
1.34058510638298e-01 5.59164395836941e+00 3.61203479201906e-02
1.35788297872340e-01 5.55069137443209e+00 3.60864070507768e-02
1.37518085106383e-01 5.51003872276529e+00 3.60495722016993e-02
1.39247872340426e-01 5.46968380643820e+00 3.60099253319600e-02
1.40977659574468e-01 5.42962444513144e+00 3.59675460447571e-02
1.42707446808511e-01 5.38985847422938e+00 3.59225117783108e-02
1.44437234042553e-01 5.35038374497060e+00 3.58748977826911e-02
1.46167021276596e-01 5.31119812409277e+00 3.58247771091099e-02
1.47896808510638e-01 5.27229949443995e+00 3.57722207828993e-02
1.49626595744681e-01 5.23368575411737e+00 3.57172979730775e-02
1.51356382978723e-01 5.19535481662454e+00 3.56600759594355e-02
1.53086170212766e-01 5.15730461052144e+00 3.56006201119443e-02
1.54815957446809e-01 5.11953307998674e+00 3.55389940455175e-02
1.56545744680851e-01 5.08203818402914e+00 3.54752597721905e-02
1.58275531914894e-01 5.04481789660505e+00 3.54094776614252e-02
1.60005319148936e-01 5.00787020630427e+00 3.53417064124281e-02
1.61735106382979e-01 4.97119311686411e+00 3.52720031938657e-02
1.63464893617021e-01 4.93478464643195e+00 3.52004237816384e-02
1.65194680851064e-01 4.89864282766936e+00 3.51270224737979e-02
1.66924468085106e-01 4.86276570764732e+00 3.50518522211522e-02
1.68654255319149e-01 4.82715134755221e+00 3.49749645503000e-02
1.70384042553192e-01 4.79179782314942e+00 3.48964096872401e-02
1.72113829787234e-01 4.75670322410507e+00 3.48162366796914e-02
1.73843617021277e-01 4.72186565407674e+00 3.47344933497446e-02
1.75573404255319e-01 4.68728323043565e+00 3.46512262575607e-02
1.77303191489362e-01 4.65295408469519e+00 3.45664808147391e-02
1.79032978723404e-01 4.61887636187427e+00 3.44803013967587e-02
1.80762765957447e-01 4.58504822057749e+00 3.43927312939128e-02
1.82492553191489e-01 4.55146783273217e+00 3.43038126728338e-02
1.84222340425532e-01 4.51813338398518e+00 3.42135866810689e-02
1.85952127659574e-01 4.48504307310427e+00 3.41220935509754e-02
1.87681914893617e-01 4.45219511204897e+00 3.40293725497384e-02
1.89411702127660e-01 4.41958772572132e+00 3.39354619395478e-02
1.91141489361702e-01 4.38721915233374e+00 3.38403990745192e-02
1.92871276595745e-01 4.35508764284539e+00 3.37442204970971e-02
1.94601063829787e-01 4.32319146102484e+00 3.36469618546744e-02
1.96330851063830e-01 4.29152888335705e+00 3.35486579918669e-02
1.98060638297872e-01 4.26009819880888e+00 3.34493428746711e-02
1.99790425531915e-01 4.22889770916334e+00 3.33490496786216e-02
2.01520212765957e-01 4.19792572849703e+00 3.32478108767258e-02
2.03250000000000e-01 4.16718058323422e+00 3.31456581898650e-02
2.04979787234043e-01 4.13666061192400e+00 3.30426225463308e-02
2.06709574468085e-01 4.10636416555110e+00 3.29387341642221e-02
2.08439361702128e-01 4.07628960704241e+00 3.28340226337447e-02
2.10169148936170e-01 4.04643531131449e+00 3.27285168681320e-02
2.11898936170213e-01 4.01679966506164e+00 3.26222450632892e-02
2.13628723404255e-01 3.98738106704507e+00 3.25152347750429e-02
2.15358510638298e-01 3.95817792762647e+00 3.24075129963902e-02
2.17088297872340e-01 3.92918866880964e+00 3.22991060806643e-02
2.18818085106383e-01 3.90041172415580e+00 3.21900398157996e-02
2.20547872340426e-01 3.87184553858358e+00 3.20803393541929e-02
2.22277659574468e-01 3.84348856863297e+00 3.19700292839029e-02
2.24007446808511e-01 3.81533928203076e+00 3.18591336999326e-02
2.25737234042553e-01 3.78739615772617e+00 3.17476761574235e-02
2.27467021276596e-01 3.75965768570012e+00 3.16356796326884e-02
2.29196808510638e-01 3.73212236721141e+00 3.15231665903081e-02
2.30926595744681e-01 3.70478871438501e+00 3.14101590503921e-02
2.32656382978723e-01 3.67765525024300e+00 3.12966785428316e-02
2.34386170212766e-01 3.65072050852262e+00 3.11827460690295e-02
2.36115957446809e-01 3.62398303390602e+00 3.10683821652777e-02
2.37845744680851e-01 3.59744138162989e+00 3.09536069663499e-02
2.39575531914894e-01 3.57109411751215e+00 3.08384401608821e-02
2.41305319148936e-01 3.54493981777824e+00 3.07229009539024e-02
2.43035106382979e-01 3.51897706927572e+00 3.06070081268026e-02
2.44764893617021e-01 3.49320446910383e+00 3.04907800975593e-02
2.46494680851064e-01 3.46762062463630e+00 3.03742348536867e-02
2.48224468085106e-01 3.44222415344652e+00 3.02573900102919e-02
2.49954255319149e-01 3.41701368314311e+00 3.01402627486653e-02
2.51684042553191e-01 3.39198785156654e+00 3.00228698721097e-02
2.53413829787234e-01 3.36714530644239e+00 2.99052278620743e-02
2.55143617021277e-01 3.34248470540025e+00 2.97873528365099e-02
2.56873404255319e-01 3.31800471581648e+00 2.96692605146471e-02
2.58603191489362e-01 3.29370401499818e+00 2.95509662700055e-02
2.60332978723404e-01 3.26958128985356e+00 2.94324851837215e-02
2.62062765957447e-01 3.24563523690775e+00 2.93138320041298e-02
2.63792553191489e-01 3.22186456215241e+00 2.91950211124780e-02
2.65522340425532e-01 3.19826798121789e+00 2.90760665733250e-02
2.67252127659575e-01 3.17484421905970e+00 2.89569821852567e-02
2.68981914893617e-01 3.15159200997151e+00 2.88377814416948e-02
2.70711702127660e-01 3.12851009744120e+00 2.87184774975743e-02
2.72441489361702e-01 3.10559723431214e+00 2.85990832173067e-02
2.74171276595745e-01 3.08285218248466e+00 2.84796112230508e-02
2.75901063829787e-01 3.06027371292665e+00 2.83600738370584e-02
2.77630851063830e-01 3.03786060560748e+00 2.82404831283081e-02
2.79360638297872e-01 3.01561164936113e+00 2.81208508595013e-02
2.81090425531915e-01 2.99352564203466e+00 2.80011885320047e-02
2.82820212765957e-01 2.97160139020760e+00 2.78815074311565e-02
2.84550000000000e-01 2.94983770920000e+00 2.77618185899929e-02
2.86279787234043e-01 2.92823342294141e+00 2.76421327582703e-02
2.88009574468085e-01 2.90678736410994e+00 2.75224604453270e-02
2.89739361702128e-01 2.88549837386488e+00 2.74028119633036e-02
2.91469148936170e-01 2.86436530185272e+00 2.72831973920518e-02
2.93198936170213e-01 2.84338700608150e+00 2.71636265490998e-02
2.94928723404255e-01 2.82256235305130e+00 2.70441090305652e-02
2.96658510638298e-01 2.80189021749920e+00 2.69246542524221e-02
2.98388297872340e-01 2.78136948240351e+00 2.68052713993447e-02
3.00118085106383e-01 2.76099903892361e+00 2.66859694646132e-02
3.01847872340426e-01 2.74077778628043e+00 2.65667572029939e-02
3.03577659574468e-01 2.72070463187673e+00 2.64476431692339e-02
3.05307446808511e-01 2.70077849105688e+00 2.63286357568997e-02
3.07037234042553e-01 2.68099828710922e+00 2.62097431659911e-02
3.08767021276596e-01 2.66136295115136e+00 2.60909733751360e-02
3.10496808510638e-01 2.64187142224311e+00 2.59723341783753e-02
3.12226595744681e-01 2.62252264715707e+00 2.58538332223117e-02
3.13956382978723e-01 2.60331558037961e+00 2.57354779748055e-02
3.15686170212766e-01 2.58424918400071e+00 2.56172756980606e-02
3.17415957446809e-01 2.56532242782000e+00 2.54992334838113e-02
3.19145744680851e-01 2.54653428912774e+00 2.53813582888659e-02
3.20875531914894e-01 2.52788375270431e+00 2.52636569048649e-02
3.22605319148936e-01 2.50936981071456e+00 2.51461359322323e-02
3.24335106382979e-01 2.49099146280735e+00 2.50288018138535e-02
3.26064893617021e-01 2.47274771590629e+00 2.49116608691086e-02
3.27794680851064e-01 2.45463758420804e+00 2.47947192501485e-02
3.29524468085106e-01 2.43666008912931e+00 2.46779829748206e-02
3.31254255319149e-01 2.41881425920600e+00 2.45614578863271e-02
3.32984042553192e-01 2.40109913018526e+00 2.44451496850049e-02
3.34713829787234e-01 2.38351374482775e+00 2.43290639604642e-02
3.36443617021277e-01 2.36605715290489e+00 2.42132061637266e-02
3.38173404255319e-01 2.34872841110197e+00 2.40975815831729e-02
3.39903191489362e-01 2.33152658310471e+00 2.39821953749961e-02
3.41632978723404e-01 2.31445073941009e+00 2.38670525940002e-02
3.43362765957447e-01 2.29749995732266e+00 2.37521581666941e-02
3.45092553191489e-01 2.28067332086142e+00 2.36375168680341e-02
3.46822340425532e-01 2.26396992084117e+00 2.35231333506151e-02
3.48552127659574e-01 2.24738885469154e+00 2.34090121742009e-02
3.50281914893617e-01 2.23092922645244e+00 2.32951577797381e-02
3.52011702127660e-01 2.21459014668450e+00 2.31815744668759e-02
3.53741489361702e-01 2.19837073254560e+00 2.30682664219605e-02
3.55471276595745e-01 2.18227010761765e+00 2.29552377463509e-02
3.57201063829787e-01 2.16628740190124e+00 2.28424924190770e-02
3.58930851063830e-01 2.15042175176886e+00 2.27300343242500e-02
3.60660638297872e-01 2.13467229987930e+00 2.26178672165292e-02
3.62390425531915e-01 2.11903819524854e+00 2.25059947476120e-02
3.64120212765957e-01 2.10351859308570e+00 2.23944204930444e-02
3.65850000000000e-01 2.08811265478710e+00 2.22831479282947e-02
3.67579787234043e-01 2.07281954785396e+00 2.21721804080159e-02
3.69309574468085e-01 2.05763844595905e+00 2.20615211914647e-02
3.71039361702128e-01 2.04256852878959e+00 2.19511734682393e-02
3.72769148936170e-01 2.02760898204066e+00 2.18411403351817e-02
3.74498936170213e-01 2.01275899733603e+00 2.17314247763325e-02
3.76228723404255e-01 1.99801777229089e+00 2.16220296873337e-02
3.77958510638298e-01 1.98338451036128e+00 2.15129579001495e-02
3.79688297872340e-01 1.96885842083700e+00 2.14042121499507e-02
3.81418085106383e-01 1.95443871879897e+00 2.12957950990574e-02
3.83147872340426e-01 1.94012462504363e+00 2.11877093062857e-02
3.84877659574468e-01 1.92591536614099e+00 2.10799572500789e-02
3.86607446808511e-01 1.91181017429190e+00 2.09725413519389e-02
3.88337234042553e-01 1.89780828732056e+00 2.08654639551531e-02
3.90067021276596e-01 1.88390894860161e+00 2.07587273063095e-02
3.91796808510638e-01 1.87011140711485e+00 2.06523335775140e-02
3.93526595744681e-01 1.85641491730836e+00 2.05462848889078e-02
3.95256382978723e-01 1.84281873909058e+00 2.04405832881256e-02
3.96986170212766e-01 1.82932213776014e+00 2.03352307324322e-02
3.98715957446809e-01 1.81592438405732e+00 2.02302291100798e-02
4.00445744680851e-01 1.80262475403282e+00 2.01255802619440e-02
4.02175531914894e-01 1.78942252903943e+00 2.00212859616912e-02
4.03905319148936e-01 1.77631699566445e+00 1.99173478985222e-02
4.05635106382979e-01 1.76330744577819e+00 1.98137676976960e-02
4.07364893617021e-01 1.75039317640800e+00 1.97105469413314e-02
4.09094680851064e-01 1.73757348972968e+00 1.96076871400710e-02
4.10824468085106e-01 1.72484769302987e+00 1.95051897532344e-02
4.12554255319149e-01 1.71221509864140e+00 1.94030561625542e-02
4.14284042553192e-01 1.69967502398820e+00 1.93012876916576e-02
4.16013829787234e-01 1.68722679146575e+00 1.91998856258186e-02
4.17743617021277e-01 1.67486972843225e+00 1.90988511936906e-02
4.19473404255319e-01 1.66260316714632e+00 1.89981855513883e-02
4.21203191489362e-01 1.65042644480928e+00 1.88978898012209e-02
4.22932978723404e-01 1.63833890345043e+00 1.87979650106927e-02
4.24662765957447e-01 1.62633988991796e+00 1.86984121948641e-02
4.26392553191489e-01 1.61442875581887e+00 1.85992323009703e-02
4.28122340425532e-01 1.60260485755889e+00 1.85004262264439e-02
4.29852127659574e-01 1.59086755623221e+00 1.84019948371927e-02
4.31581914893617e-01 1.57921621761227e+00 1.83039389505678e-02
4.33311702127660e-01 1.56765021209385e+00 1.82062593204997e-02
4.35041489361702e-01 1.55616891473060e+00 1.81089566548412e-02
4.36771276595745e-01 1.54477170512921e+00 1.80120316329527e-02
4.38501063829787e-01 1.53345796744003e+00 1.79154848814237e-02
4.40230851063830e-01 1.52222709032384e+00 1.78193169911110e-02
4.41960638297872e-01 1.51107846689645e+00 1.77235284946087e-02
4.43690425531915e-01 1.50001149476345e+00 1.76281198827288e-02
4.45420212765958e-01 1.48902557591963e+00 1.75330916212197e-02
4.47150000000000e-01 1.47812011673951e+00 1.74384441350707e-02
4.48879787234043e-01 1.46729452792385e+00 1.73441777948005e-02
4.50609574468085e-01 1.45654822453248e+00 1.72502929323166e-02
4.52339361702128e-01 1.44588062588756e+00 1.71567898570146e-02
4.54069148936170e-01 1.43529115556409e+00 1.70636688406176e-02
4.55798936170213e-01 1.42477924133825e+00 1.69709301039264e-02
4.57528723404255e-01 1.41434431521838e+00 1.68785738320903e-02
4.59258510638298e-01 1.40398581335195e+00 1.67866001901064e-02
4.60988297872340e-01 1.39370317601603e+00 1.66950093012339e-02
4.62718085106383e-01 1.38349584758706e+00 1.66038012620172e-02
4.64447872340426e-01 1.37336327649146e+00 1.65129761222403e-02
4.66177659574468e-01 1.36330491523423e+00 1.64225338994538e-02
4.67907446808511e-01 1.35332022031060e+00 1.63324745937193e-02
4.69637234042553e-01 1.34340865219635e+00 1.62427981736334e-02
4.71367021276596e-01 1.33356967530017e+00 1.61535045640986e-02
4.73096808510638e-01 1.32380275799064e+00 1.60645936603112e-02
4.74826595744681e-01 1.31410737251118e+00 1.59760653419645e-02
4.76556382978723e-01 1.30448299497045e+00 1.58879194597482e-02
4.78286170212766e-01 1.29492910529630e+00 1.58001558235301e-02
4.80015957446809e-01 1.28544518726123e+00 1.57127742158313e-02
4.81745744680851e-01 1.27603072840058e+00 1.56257744055079e-02
4.83475531914894e-01 1.26668522000290e+00 1.55391561347094e-02
4.85205319148936e-01 1.25740815706553e+00 1.54529191074597e-02
4.86935106382979e-01 1.24819903831856e+00 1.53670630026354e-02
4.88664893617021e-01 1.23905736614616e+00 1.52815874871499e-02
4.90394680851064e-01 1.22998264657693e+00 1.51964921974143e-02
4.92124468085106e-01 1.22097438925731e+00 1.51117767521130e-02
4.93854255319149e-01 1.21203210740896e+00 1.50274407349697e-02
4.95584042553192e-01 1.20315531785097e+00 1.49434837071110e-02
4.97313829787234e-01 1.19434354092495e+00 1.48599052196170e-02
4.99043617021277e-01 1.18559630048545e+00 1.47767048014885e-02
5.00773404255319e-01 1.17691312385889e+00 1.46938819491027e-02
5.02503191489362e-01 1.16829354186446e+00 1.46114361381225e-02
5.04232978723404e-01 1.15973708874200e+00 1.45293668355947e-02
5.05962765957447e-01 1.15124330214254e+00 1.44476734883259e-02
5.07692553191489e-01 1.14281172308853e+00 1.43663555126925e-02
5.09422340425532e-01 1.13444189599362e+00 1.42854123061160e-02
5.11152127659575e-01 1.12613336859320e+00 1.42048432587237e-02
5.12881914893617e-01 1.11788569193497e+00 1.41246477421210e-02
5.14611702127660e-01 1.10969842034060e+00 1.40448250995406e-02
5.16341489361702e-01 1.10157111142429e+00 1.39653746569044e-02
5.18071276595745e-01 1.09350332602592e+00 1.38862957340633e-02
5.19801063829787e-01 1.08549462820173e+00 1.38075876288570e-02
5.21530851063830e-01 1.07754458520077e+00 1.37292496280066e-02
5.23260638297872e-01 1.06965276742812e+00 1.36512809922827e-02
5.24990425531915e-01 1.06181874846211e+00 1.35736809670501e-02
5.26720212765957e-01 1.05404210499057e+00 1.34964487929765e-02
5.28450000000000e-01 1.04632241680163e+00 1.34195836956686e-02
5.30179787234043e-01 1.03865926674819e+00 1.33430848765713e-02
5.31909574468085e-01 1.03105224076410e+00 1.32669515231287e-02
5.33639361702128e-01 1.02350092780278e+00 1.31911828191168e-02
5.35369148936170e-01 1.01600491982813e+00 1.31157779346261e-02
5.37098936170213e-01 1.00856381178016e+00 1.30407360172627e-02
5.38828723404255e-01 1.00117720159025e+00 1.29660562019483e-02
5.40558510638298e-01 9.93844690122015e-01 1.28917376208844e-02
5.42288297872340e-01 9.86565881162324e-01 1.28177793893386e-02
5.44018085106383e-01 9.79340381399862e-01 1.27441806153023e-02
5.45747872340426e-01 9.72167800392224e-01 1.26709403862607e-02
