Energy (eV)          EEDF (eV^-(3/2))     First Anisotropy
6.36111111111111e-04 2.32236744811664e+01 1.30247730705448e-02
1.90833333333333e-03 2.30021248920513e+01 2.14772152811319e-02
3.18055555555556e-03 2.27826888453475e+01 2.82719714007700e-02
4.45277777777778e-03 2.25653461777918e+01 3.33853379625166e-02
5.72500000000000e-03 2.23500769195238e+01 3.76098672190900e-02
6.99722222222222e-03 2.21368612905151e+01 4.12464029121973e-02
8.26944444444445e-03 2.19256796994873e+01 4.44512191232327e-02
9.54166666666667e-03 2.17165127418926e+01 4.73190320527447e-02
1.08138888888889e-02 2.15093411983512e+01 4.99128866397895e-02
1.20861111111111e-02 2.13041460336866e+01 5.22775014903749e-02
1.33583333333333e-02 2.11009083934717e+01 5.44460972105396e-02
1.46305555555556e-02 2.08996096032331e+01 5.64442385685488e-02
1.59027777777778e-02 2.07002311656310e+01 5.82921541362671e-02
1.71750000000000e-02 2.05027547619655e+01 6.00062155780716e-02
1.84472222222222e-02 2.03071622471283e+01 6.15999229843187e-02
1.97194444444444e-02 2.01134356491260e+01 6.30845848562226e-02
2.09916666666667e-02 1.99215571666785e+01 6.44698017528310e-02
2.22638888888889e-02 1.97315091699019e+01 6.57638192832392e-02
2.35361111111111e-02 1.95432741962745e+01 6.69737913154560e-02
2.48083333333333e-02 1.93568349498567e+01 6.81059797673153e-02
2.60805555555556e-02 1.91721742997257e+01 6.91659091871787e-02
2.73527777777778e-02 1.89892752778435e+01 7.01584877837318e-02
2.86250000000000e-02 1.88081210791692e+01 7.10881037707662e-02
2.98972222222222e-02 1.86286950583923e+01 7.19587028433219e-02
3.11694444444444e-02 1.84509807289985e+01 7.27738509905333e-02
3.24416666666667e-02 1.82749617613144e+01 7.35367860504341e-02
3.37138888888889e-02 1.81006219823612e+01 7.42504605193451e-02
3.49861111111111e-02 1.79279453729769e+01 7.49175772915002e-02
3.62583333333333e-02 1.77569160668160e+01 7.55406195449763e-02
3.75305555555556e-02 1.75875183489010e+01 7.61218762067673e-02
3.88027777777778e-02 1.74197366538238e+01 7.66634635050415e-02
4.00750000000000e-02 1.72535555653851e+01 7.71673435839389e-02
4.13472222222222e-02 1.70889598140833e+01 7.76353405547676e-02
4.26194444444444e-02 1.69259342760857e+01 7.80691542830833e-02
4.38916666666667e-02 1.67644639715423e+01 7.84703723991782e-02
4.51638888888889e-02 1.66045340641195e+01 7.88404809024836e-02
4.64361111111111e-02 1.64461298587064e+01 7.91808734798616e-02
4.77083333333333e-02 1.62892368003789e+01 7.94928595872792e-02
4.89805555555556e-02 1.61338404730672e+01 7.97776717316867e-02
5.02527777777778e-02 1.59799265979816e+01 8.00364718190616e-02
5.15250000000000e-02 1.58274810330540e+01 8.02703569266867e-02
5.27972222222222e-02 1.56764897708704e+01 8.04803644683830e-02
5.40694444444444e-02 1.55269389376454e+01 8.06674767290143e-02
5.53416666666667e-02 1.53788147917315e+01 8.08326249494315e-02
5.66138888888889e-02 1.52321037230161e+01 8.09766930939168e-02
5.78861111111111e-02 1.50867922509991e+01 8.11005212604670e-02
5.91583333333333e-02 1.49428670237805e+01 8.12049086611166e-02
6.04305555555556e-02 1.48003148168370e+01 8.12906164368128e-02
6.17027777777778e-02 1.46591225316206e+01 8.13583701211496e-02
6.29750000000000e-02 1.45192771949165e+01 8.14088619849100e-02
6.42472222222222e-02 1.43807659570801e+01 8.14427531835480e-02
6.55194444444444e-02 1.42435760910506e+01 8.14606756436344e-02
6.67916666666667e-02 1.41076949910170e+01 8.14632338006812e-02
6.80638888888889e-02 1.39731101717603e+01 8.14510062678326e-02
6.93361111111111e-02 1.38398092669977e+01 8.14245473763696e-02
7.06083333333333e-02 1.37077800284179e+01 8.13843885044466e-02
7.18805555555556e-02 1.35770103245572e+01 8.13310393957367e-02
7.31527777777778e-02 1.34474881395416e+01 8.12649892962214e-02
7.44250000000000e-02 1.33192015724159e+01 8.11867080898460e-02
7.56972222222222e-02 1.31921388356103e+01 8.10966473558175e-02
7.69694444444445e-02 1.30662882540063e+01 8.09952412828881e-02
7.82416666666667e-02 1.29416382637359e+01 8.08829075258437e-02
7.95138888888889e-02 1.28181774115093e+01 8.07600480640006e-02
8.07861111111111e-02 1.26958943531667e+01 8.06270500050751e-02
8.20583333333333e-02 1.25747778527685e+01 8.04842862573916e-02
8.33305555555556e-02 1.24548167815650e+01 8.03321162360185e-02
8.46027777777778e-02 1.23360001168596e+01 8.01708864524320e-02
8.58750000000000e-02 1.22183169413396e+01 8.00009311374555e-02
8.71472222222222e-02 1.21017564417250e+01 7.98225728283137e-02
8.84194444444445e-02 1.19863079078922e+01 7.96361228613450e-02
8.96916666666667e-02 1.18719607317882e+01 7.94418818400017e-02
9.09638888888889e-02 1.17587044067671e+01 7.92401401270794e-02
9.22361111111111e-02 1.16465285263088e+01 7.90311783106403e-02
9.35083333333333e-02 1.15354227831691e+01 7.88152675755503e-02
9.47805555555556e-02 1.14253769684336e+01 7.85926701207047e-02
9.60527777777778e-02 1.13163809704879e+01 7.83636394913387e-02
9.73250000000000e-02 1.12084247743653e+01 7.81284209537439e-02
9.85972222222222e-02 1.11014984605464e+01 7.78872518517806e-02
9.98694444444445e-02 1.09955922041420e+01 7.76403619402985e-02
1.01141666666667e-01 1.08906962735696e+01 7.73879734965609e-02
1.02413888888889e-01 1.07868010311017e+01 7.71303017684453e-02
1.03686111111111e-01 1.06838969303493e+01 7.68675553633325e-02
1.04958333333333e-01 1.05819745159912e+01 7.65999362719493e-02
1.06230555555556e-01 1.04810244229123e+01 7.63276403036942e-02
1.07502777777778e-01 1.03810373745914e+01 7.60508569957887e-02
1.08775000000000e-01 1.02820041845179e+01 7.57697700506234e-02
1.10047222222222e-01 1.01839157530509e+01 7.54845577660653e-02
1.11319444444444e-01 1.00867630673587e+01 7.51953930012054e-02
1.12591666666667e-01 9.99053719990389e+00 7.49024431763718e-02
1.13863888888889e-01 9.89522930970949e+00 7.46058706604646e-02
1.15136111111111e-01 9.80083063943466e+00 7.43058331533986e-02
1.16408333333333e-01 9.70733251527980e+00 7.40024835370684e-02
1.17680555555556e-01 9.61472634619456e+00 7.36959702337652e-02
1.18952777777778e-01 9.52300362246623e+00 7.33864370780513e-02
1.20225000000000e-01 9.43215591681721e+00 7.30740236519219e-02
1.21497222222222e-01 9.34217488172913e+00 7.27588656172146e-02
1.22769444444444e-01 9.25305224931767e+00 7.24410946456150e-02
1.24041666666667e-01 9.16477983000114e+00 7.21208383802455e-02
1.25313888888889e-01 9.07734951348385e+00 7.17982207378418e-02
1.26586111111111e-01 8.99075326625469e+00 7.14733622092513e-02
1.27858333333333e-01 8.90498313143915e+00 7.11463796975198e-02
1.29130555555556e-01 8.82003122807194e+00 7.08173868012457e-02
1.30402777777778e-01 8.73588974985250e+00 7.04864936737978e-02
1.31675000000000e-01 8.65255096599945e+00 7.01538072897719e-02
1.32947222222222e-01 8.57000721895071e+00 6.98194317109387e-02
1.34219444444444e-01 8.48825092419616e+00 6.94834680011195e-02
1.35491666666667e-01 8.40727456910063e+00 6.91460141694923e-02
1.36763888888889e-01 8.32707071367047e+00 6.88071654139309e-02
1.38036111111111e-01 8.24763198839668e+00 6.84670143643908e-02
1.39308333333333e-01 8.16895109407279e+00 6.81256509215803e-02
1.40580555555556e-01 8.09102080112700e+00 6.77831624874265e-02
1.41852777777778e-01 8.01383394851938e+00 6.74396338237605e-02
1.43125000000000e-01 7.93738344440854e+00 6.70951472698634e-02
1.44397222222222e-01 7.86166226416085e+00 6.67497829607161e-02
1.45669444444444e-01 7.78666345015655e+00 6.64036187373355e-02
1.46941666666667e-01 7.71238011074445e+00 6.60567300824472e-02
1.48213888888889e-01 7.63880542084026e+00 6.57091903210379e-02
1.49486111111111e-01 7.56593262005452e+00 6.53610708218990e-02
1.50758333333333e-01 7.49375501248968e+00 6.50124408433333e-02
1.52030555555556e-01 7.42226596612704e+00 6.46633677245393e-02
1.53302777777778e-01 7.35145891184535e+00 6.43139167497309e-02
1.54575000000000e-01 7.28132734394107e+00 6.39641513292839e-02
1.55847222222222e-01 7.21186481839478e+00 6.36141331822233e-02
1.57119444444444e-01 7.14306495266197e+00 6.32639222475168e-02
1.58391666666667e-01 7.07492142474107e+00 6.29135766178754e-02
1.59663888888889e-01 7.00742797364016e+00 6.25631527079245e-02
1.60936111111111e-01 6.94057839774308e+00 6.22127054238461e-02
1.62208333333333e-01 6.87436655459514e+00 6.18622880190516e-02
1.63480555555556e-01 6.80878636034052e+00 6.15119522555901e-02
1.64752777777778e-01 6.74383178884582e+00 6.11617482764928e-02
1.66025000000000e-01 6.67949687210524e+00 6.08117247588606e-02
1.67297222222222e-01 6.61577569872343e+00 6.04619290685909e-02
1.68569444444444e-01 6.55266241369873e+00 6.01124071754764e-02
1.69841666666667e-01 6.49015121758975e+00 5.97632035882459e-02
1.71113888888889e-01 6.42823636687824e+00 5.94143614974354e-02
1.72386111111111e-01 6.36691217253639e+00 5.90659229199581e-02
1.73658333333333e-01 6.30617299980805e+00 5.87179285658090e-02
1.74930555555556e-01 6.24601326769238e+00 5.83704179758250e-02
1.76202777777778e-01 6.18642744815885e+00 5.80234294033713e-02
1.77475000000000e-01 6.12741006646151e+00 5.76769999451644e-02
1.78747222222222e-01 6.06895569980550e+00 5.73311656738939e-02
1.80019444444444e-01 6.01105897712844e+00 5.69859615584808e-02
1.81291666666667e-01 5.95371457835311e+00 5.66414214020209e-02
1.82563888888889e-01 5.89691723466809e+00 5.62975779643927e-02
1.83836111111111e-01 5.84066172726642e+00 5.59544630866438e-02
1.85108333333333e-01 5.78494288712709e+00 5.56121075688290e-02
1.86380555555556e-01 5.72975559454124e+00 5.52705412886661e-02
1.87652777777778e-01 5.67509477840730e+00 5.49297930927999e-02
1.88925000000000e-01 5.62095541647311e+00 5.45898909095802e-02
1.90197222222222e-01 5.56733253415944e+00 5.42508618636765e-02
1.91469444444444e-01 5.51422120434367e+00 5.39127322020627e-02
1.92741666666667e-01 5.46161654668802e+00 5.35755272357003e-02
1.94013888888889e-01 5.40951372785492e+00 5.32392714455667e-02
1.95286111111111e-01 5.35790796039260e+00 5.29039885904842e-02
1.96558333333333e-01 5.30679450252029e+00 5.25697015957205e-02
1.97830555555556e-01 5.25616865769343e+00 5.22364326559100e-02
1.99102777777778e-01 5.20602577396957e+00 5.19042031356529e-02
2.00375000000000e-01 5.15636124419284e+00 5.15730336674209e-02
2.01647222222222e-01 5.10717050495282e+00 5.12429442512539e-02
2.02919444444444e-01 5.05844903637322e+00 5.09139541865730e-02
2.04191666666667e-01 5.01019236150690e+00 5.05860820179428e-02
2.05463888888889e-01 4.96239604649916e+00 5.02593456273521e-02
2.06736111111111e-01 4.91505569960015e+00 4.99337623282388e-02
2.08008333333333e-01 4.86816697095620e+00 4.96093487642084e-02
2.09280555555556e-01 4.82172555221086e+00 4.92861209988360e-02
2.10552777777778e-01 4.77572717593328e+00 4.89640944251061e-02
2.11825000000000e-01 4.73016761575691e+00 4.86432838508737e-02
2.13097222222222e-01 4.68504268545536e+00 4.83237035860523e-02
2.14369444444444e-01 4.64034823873812e+00 4.80053673801084e-02
2.15641666666667e-01 4.59608016870478e+00 4.76882883719583e-02
2.16913888888889e-01 4.55223440796676e+00 4.73724791706924e-02
2.18186111111111e-01 4.50880692776982e+00 4.70579519379580e-02
2.19458333333333e-01 4.46579373779300e+00 4.67447182960691e-02
2.20730555555556e-01 4.42319088578262e+00 4.64327894067171e-02
2.22002777777778e-01 4.38099445703628e+00 4.61221758886485e-02
2.23275000000000e-01 4.33920057450481e+00 4.58128878926150e-02
2.24547222222222e-01 4.29780539797008e+00 4.55049351779367e-02
2.25819444444444e-01 4.25680512384897e+00 4.51983270553959e-02
2.27091666666667e-01 4.21619598470037e+00 4.48930723411847e-02
2.28363888888889e-01 4.17597424931360e+00 4.45891794278053e-02
2.29636111111111e-01 4.13613622192695e+00 4.42866563565415e-02
2.30908333333333e-01 4.09667824203539e+00 4.39855107341855e-02
2.32180555555556e-01 4.05759668405469e+00 4.36857498022989e-02
2.33452777777778e-01 4.01888795685501e+00 4.33873803624897e-02
2.34725000000000e-01 3.98054850383360e+00 4.30904088423807e-02
2.35997222222222e-01 3.94257480218160e+00 4.27948413630931e-02
2.37269444444444e-01 3.90496336269717e+00 4.25006836871918e-02
2.38541666666667e-01 3.86771072933949e+00 4.22079411764877e-02
2.39813888888889e-01 3.83081347929070e+00 4.19166188545260e-02
2.41086111111111e-01 3.79426822225847e+00 4.16267214705501e-02
2.42358333333333e-01 3.75807160029307e+00 4.13382534240968e-02
2.43630555555556e-01 3.72222028747918e+00 4.10512188261374e-02
2.44902777777778e-01 3.68671098951383e+00 4.07656214313158e-02
2.46175000000000e-01 3.65154044375568e+00 4.04814646961888e-02
2.47447222222222e-01 3.61670541857002e+00 4.01987518388909e-02
2.48719444444444e-01 3.58220271315138e+00 3.99174857917519e-02
2.49991666666667e-01 3.54802915711972e+00 3.96376691627203e-02
2.51263888888889e-01 3.51418161056122e+00 3.93593042906090e-02
2.52536111111111e-01 3.48065696340464e+00 3.90823933017016e-02
2.53808333333333e-01 3.44745213524813e+00 3.88069380414947e-02
2.55080555555556e-01 3.41456407507649e+00 3.85329401288183e-02
2.56352777777778e-01 3.38198976087871e+00 3.82604008944236e-02
2.57625000000000e-01 3.34972619967877e+00 3.79893214325481e-02
2.58897222222222e-01 3.31777042694941e+00 3.77197026537889e-02
2.60169444444444e-01 3.28611950644442e+00 3.74515452420197e-02
2.61441666666667e-01 3.25477052983268e+00 3.71848496191893e-02
2.62713888888889e-01 3.22372061672212e+00 3.69196159942758e-02
2.63986111111111e-01 3.19296691410123e+00 3.66558444134994e-02
2.65258333333333e-01 3.16250659617560e+00 3.63935346985569e-02
2.66530555555556e-01 3.13233686410854e+00 3.61326864946389e-02
2.67802777777778e-01 3.10245494567423e+00 3.58732992147846e-02
2.69075000000000e-01 3.07285809527386e+00 3.56153720856334e-02
2.70347222222222e-01 3.04354359341010e+00 3.53589041943893e-02
2.71619444444444e-01 3.01450874652914e+00 3.51038944496787e-02
2.72891666666667e-01 2.98575088668867e+00 3.48503415494581e-02
2.74163888888889e-01 2.95726737156861e+00 3.45982440244881e-02
2.75436111111111e-01 2.92905558397017e+00 3.43476002829711e-02
2.76708333333333e-01 2.90111293166205e+00 3.40984085546574e-02
2.77980555555556e-01 2.87343684714252e+00 3.38506669335276e-02
2.79252777777778e-01 2.84602478732457e+00 3.36043733273883e-02
2.80525000000000e-01 2.81887423354054e+00 3.33595254985445e-02
2.81797222222222e-01 2.79198269107034e+00 3.31161211055892e-02
2.83069444444444e-01 2.76534768899308e+00 3.28741576678627e-02
2.84341666666667e-01 2.73896677988556e+00 3.26336325362186e-02
2.85613888888889e-01 2.71283753982271e+00 3.23945429316957e-02
2.86886111111111e-01 2.68695756792759e+00 3.21568859852757e-02
2.88158333333333e-01 2.66132448622710e+00 3.19206586872970e-02
2.89430555555556e-01 2.63593593943369e+00 3.16858579254654e-02
2.90702777777778e-01 2.61078959465944e+00 3.14524804391908e-02
2.91975000000000e-01 2.58588314141160e+00 3.12205228558119e-02
2.93247222222222e-01 2.56121429116859e+00 3.09899817278444e-02
2.94519444444444e-01 2.53678077724091e+00 3.07608535007080e-02
2.95791666666667e-01 2.51258035449726e+00 3.05331344861149e-02
2.97063888888889e-01 2.48861079935682e+00 3.03068208965365e-02
2.98336111111111e-01 2.46486990938467e+00 3.00819088806608e-02
2.99608333333333e-01 2.44135550315660e+00 2.98583944776043e-02
3.00880555555556e-01 2.41806542005892e+00 2.96362736508139e-02
3.02152777777778e-01 2.39499752002853e+00 2.94155422466954e-02
3.03425000000000e-01 2.37214968354159e+00 2.91961960269229e-02
3.04697222222222e-01 2.34951981123188e+00 2.89782307016920e-02
3.05969444444444e-01 2.32710582376080e+00 2.87616419004216e-02
3.07241666666667e-01 2.30490566156825e+00 2.85464251475309e-02
3.08513888888889e-01 2.28291728485890e+00 2.83325758932050e-02
3.09786111111111e-01 2.26113867323776e+00 2.81200895450602e-02
3.11058333333333e-01 2.23956782558400e+00 2.79089614266883e-02
3.12330555555556e-01 2.21820275986720e+00 2.76991868079379e-02
3.13602777777778e-01 2.19704151291102e+00 2.74907608674285e-02
3.14875000000000e-01 2.17608214037652e+00 2.72836787214063e-02
3.16147222222222e-01 2.15532271641844e+00 2.70779354534630e-02
3.17419444444444e-01 2.13476133356372e+00 2.68735260879408e-02
3.18691666666667e-01 2.11439610248501e+00 2.66704455678948e-02
3.19963888888889e-01 2.09422515198215e+00 2.64686887825821e-02
3.21236111111111e-01 2.07424662865380e+00 2.62682505957799e-02
3.22508333333333e-01 2.05445869677970e+00 2.60691258082463e-02
3.23780555555556e-01 2.03485953815209e+00 2.58713091847935e-02
3.25052777777778e-01 2.01544735186067e+00 2.56747954203216e-02
3.26325000000000e-01 1.99622035427202e+00 2.54795791656177e-02
3.27597222222222e-01 1.97717677871962e+00 2.52856550539449e-02
3.28869444444444e-01 1.95831487539061e+00 2.50930176769038e-02
3.30141666666667e-01 1.93963291111966e+00 2.49016615643857e-02
3.31413888888889e-01 1.92112916936702e+00 2.47115812091637e-02
3.32686111111111e-01 1.90280194992233e+00 2.45227710922413e-02
3.33958333333333e-01 1.88464956879487e+00 2.43352256488504e-02
3.35230555555556e-01 1.86667035805895e+00 2.41489392926871e-02
3.36502777777778e-01 1.84886266565813e+00 2.39639063851212e-02
3.37775000000000e-01 1.83122485538181e+00 2.37801212582912e-02
3.39047222222222e-01 1.81375530658546e+00 2.35975782389245e-02
3.40319444444444e-01 1.79645241408519e+00 2.34162716264165e-02
3.41591666666667e-01 1.77931458797003e+00 2.32361956745988e-02
3.42863888888889e-01 1.76234025357760e+00 2.30573446137596e-02
3.44136111111111e-01 1.74552785122665e+00 2.28797126733565e-02
3.45408333333333e-01 1.72887583611498e+00 2.27032940512128e-02
3.46680555555556e-01 1.71238267817754e+00 2.25280829352329e-02
3.47952777777778e-01 1.69604686190820e+00 2.23540734754865e-02
3.49225000000000e-01 1.67986688633432e+00 2.21812598049002e-02
3.50497222222222e-01 1.66384126476404e+00 2.20096360606142e-02
3.51769444444444e-01 1.64796852468827e+00 2.18391963640777e-02
3.53041666666667e-01 1.63224720760970e+00 2.16699348044646e-02
3.54313888888889e-01 1.61667586901678e+00 2.15018454584137e-02
3.55586111111111e-01 1.60125307814210e+00 2.13349224103996e-02
3.56858333333333e-01 1.58597741786745e+00 2.11691597248105e-02
3.58130555555556e-01 1.57084748459374e+00 2.10045514654284e-02
3.59402777777778e-01 1.55586188807851e+00 2.08410916701102e-02
3.60675000000000e-01 1.54101925140931e+00 2.06787743693461e-02
3.61947222222222e-01 1.52631821077525e+00 2.05175936054219e-02
3.63219444444444e-01 1.51175741537597e+00 2.03575434143410e-02
3.64491666666667e-01 1.49733552726573e+00 2.01986178107440e-02
3.65763888888889e-01 1.48305122132654e+00 2.00408108056128e-02
3.67036111111111e-01 1.46890318504956e+00 1.98841164245549e-02
3.68308333333333e-01 1.45489011844703e+00 1.97285286824945e-02
3.69580555555556e-01 1.44101073393287e+00 1.95740416011544e-02
3.70852777777778e-01 1.42726375617460e+00 1.94206491860915e-02
3.72125000000000e-01 1.41364792206607e+00 1.92683454433512e-02
3.73397222222222e-01 1.40016198052077e+00 1.91171243966749e-02
3.74669444444444e-01 1.38680469238731e+00 1.89669800710835e-02
3.75941666666667e-01 1.37357483030736e+00 1.88179064791532e-02
3.77213888888889e-01 1.36047117868826e+00 1.86698976369119e-02
3.78486111111111e-01 1.34749253350522e+00 1.85229475802657e-02
3.79758333333333e-01 1.33463770221962e+00 1.83770503420481e-02
3.81030555555556e-01 1.32190550366945e+00 1.82321999677212e-02
3.82302777777778e-01 1.30929476793435e+00 1.80883904945377e-02
3.83575000000000e-01 1.29680433630802e+00 1.79456159665033e-02
3.84847222222222e-01 1.28443306111122e+00 1.78038704498401e-02
3.86119444444444e-01 1.27217980561332e+00 1.76631480180667e-02
3.87391666666667e-01 1.26004344390278e+00 1.75234427395183e-02
3.88663888888889e-01 1.24802286085969e+00 1.73847486916271e-02
3.89936111111111e-01 1.23611695197669e+00 1.72470599756854e-02
3.91208333333333e-01 1.22432462328317e+00 1.71103706960294e-02
3.92480555555556e-01 1.21264479124486e+00 1.69746749741503e-02
3.93752777777778e-01 1.20107638264063e+00 1.68399669297868e-02
3.95025000000000e-01 1.18961833453514e+00 1.67062406943698e-02
3.96297222222222e-01 1.17826959410935e+00 1.65734904249264e-02
3.97569444444444e-01 1.16702911858793e+00 1.64417102905266e-02
3.98841666666667e-01 1.15589587512106e+00 1.63108944609231e-02
4.00113888888889e-01 1.14486884075720e+00 1.61810371193936e-02
4.01386111111111e-01 1.13394700228089e+00 1.60521324760176e-02
