Energy (eV)          EEDF (eV^-(3/2))     First Anisotropy
3.40909090909091e-02 4.39310900839133e-02 2.48363219354448e-05
1.02272727272727e-01 4.35874543210620e-02 4.09892240276746e-05
1.70454545454545e-01 4.32465065310922e-02 5.40505755761532e-05
2.38636363636364e-01 4.29082256856855e-02 6.39370377474745e-05
3.06818181818182e-01 4.25725909258352e-02 7.21524425989929e-05
3.75000000000000e-01 4.22395815531597e-02 7.92661603278272e-05
4.43181818181818e-01 4.19091770313334e-02 8.55732293617089e-05
5.11363636363636e-01 4.15813569847441e-02 9.12520439619145e-05
5.79545454545454e-01 4.12561011972018e-02 9.64210685811844e-05
6.47727272727273e-01 4.09333896101443e-02 1.01164136782844e-04
7.15909090909091e-01 4.06132023230120e-02 1.05543384129541e-04
7.84090909090909e-01 4.02955195903175e-02 1.09606518521120e-04
8.52272727272727e-01 3.99803218210231e-02 1.13391205551764e-04
9.20454545454545e-01 3.96675895773514e-02 1.16927862348439e-04
9.88636363636364e-01 3.93573035732499e-02 1.20241516532166e-04
1.05681818181818e+00 3.90494446750626e-02 1.23353088803643e-04
1.12500000000000e+00 3.87439938961258e-02 1.26280303846362e-04
1.19318181818182e+00 3.84409323998059e-02 1.29038354122903e-04
1.26136363636364e+00 3.81402414968085e-02 1.31640394954041e-04
1.32954545454545e+00 3.78419026440427e-02 1.34097919672249e-04
1.39772727272727e+00 3.75458974456371e-02 1.36421050269080e-04
1.46590909090909e+00 3.72522076451508e-02 1.38618764003183e-04
1.53409090909091e+00 3.69608151312247e-02 1.40699073183519e-04
1.60227272727273e+00 3.66717019341424e-02 1.42669170744583e-04
1.67045454545455e+00 3.63848502247708e-02 1.44535547352095e-04
1.73863636363636e+00 3.61002423150990e-02 1.46304088431108e-04
1.80681818181818e+00 3.58178606520817e-02 1.47980153453615e-04
1.87500000000000e+00 3.55376878217011e-02 1.49568641978942e-04
1.94318181818182e+00 3.52597065461445e-02 1.51074050142155e-04
2.01136363636364e+00 3.49838996827479e-02 1.52500517662694e-04
2.07954545454545e+00 3.47102502229454e-02 1.53851867868997e-04
2.14772727272727e+00 3.44387412924972e-02 1.55131642671323e-04
2.21590909090909e+00 3.41693561465449e-02 1.56343131833350e-04
2.28409090909091e+00 3.39020781725361e-02 1.57489398254583e-04
2.35227272727273e+00 3.36368908878534e-02 1.58573300833593e-04
2.42045454545455e+00 3.33737779388178e-02 1.59597513604522e-04
2.48863636363636e+00 3.31127231007291e-02 1.60564543317961e-04
2.55681818181818e+00 3.28537102736509e-02 1.61476744167565e-04
2.62500000000000e+00 3.25967234846711e-02 1.62336330770050e-04
2.69318181818182e+00 3.23417468858159e-02 1.63145390468100e-04
2.76136363636364e+00 3.20887647530764e-02 1.63905893672719e-04
2.82954545454545e+00 3.18377614854419e-02 1.64619703107708e-04
2.89772727272727e+00 3.15887216048027e-02 1.65288582646610e-04
2.96590909090909e+00 3.13416297523625e-02 1.65914204575480e-04
3.03409090909091e+00 3.10964706903536e-02 1.66498156104513e-04
3.10227272727273e+00 3.08532293001951e-02 1.67041945948872e-04
3.17045454545455e+00 3.06118905815707e-02 1.67547009613725e-04
3.23863636363636e+00 3.03724396522416e-02 1.68014714831943e-04
3.30681818181818e+00 3.01348617448759e-02 1.68446365892593e-04
3.37500000000000e+00 2.98991422084145e-02 1.68843207561732e-04
3.44318181818182e+00 2.96652665063987e-02 1.69206429301974e-04
3.51136363636364e+00 2.94332202160761e-02 1.69537168636228e-04
3.57954545454545e+00 2.92029890275129e-02 1.69836514240123e-04
3.64772727272727e+00 2.89745587433397e-02 1.70105509239409e-04
3.71590909090909e+00 2.87479152759666e-02 1.70345153686702e-04
3.78409090909091e+00 2.85230446486429e-02 1.70556406824551e-04
3.85227272727273e+00 2.82999329939428e-02 1.70740189751055e-04
3.92045454545454e+00 2.80785665529167e-02 1.70897387328342e-04
3.98863636363636e+00 2.78589316747915e-02 1.71028850482228e-04
4.05681818181818e+00 2.76410148144565e-02 1.71135397820744e-04
4.12500000000000e+00 2.74248025333165e-02 1.71217817120537e-04
4.19318181818182e+00 2.72102814978935e-02 1.71276867239827e-04
4.26136363636364e+00 2.69974384790062e-02 1.71313279484000e-04
4.32954545454545e+00 2.67862603509546e-02 1.71327758886036e-04
4.39772727272727e+00 2.65767340911884e-02 1.71320985784298e-04
4.46590909090909e+00 2.63688467780555e-02 1.71293616828301e-04
4.53409090909091e+00 2.61625855914664e-02 1.71246285905708e-04
4.60227272727273e+00 2.59579378116104e-02 1.71179605494093e-04
4.67045454545454e+00 2.57548908181749e-02 1.71094167459918e-04
4.73863636363636e+00 2.55534320899909e-02 1.70990544257446e-04
4.80681818181818e+00 2.53535492029724e-02 1.70869289620010e-04
4.87500000000000e+00 2.51552298306501e-02 1.70730939198058e-04
4.94318181818182e+00 2.49584617429735e-02 1.70576011608023e-04
5.01136363636364e+00 2.47632328055572e-02 1.70405009068281e-04
5.07954545454545e+00 2.45695309789334e-02 1.70218418005198e-04
5.14772727272727e+00 2.43773443181832e-02 1.70016709950059e-04
5.21590909090909e+00 2.41866609710674e-02 1.69800341987017e-04
5.28409090909091e+00 2.39974691784376e-02 1.69569757166204e-04
5.35227272727273e+00 2.38097572731261e-02 1.69325385305742e-04
5.42045454545454e+00 2.36235136792286e-02 1.69067643351634e-04
5.48863636363636e+00 2.34387269117262e-02 1.68796936102020e-04
5.55681818181818e+00 2.32553855747579e-02 1.68513656521604e-04
5.62500000000000e+00 2.30734783619457e-02 1.68218186030895e-04
5.69318181818182e+00 2.28929940553510e-02 1.67910895163913e-04
5.76136363636364e+00 2.27139215247838e-02 1.67592143891301e-04
5.82954545454545e+00 2.25362497271164e-02 1.67262281933115e-04
5.89772727272727e+00 2.23599677059014e-02 1.66921649335120e-04
5.96590909090909e+00 2.21850645897909e-02 1.66570576674076e-04
6.03409090909091e+00 2.20115295927788e-02 1.66209385245339e-04
6.10227272727273e+00 2.18393520132273e-02 1.65838387594699e-04
6.17045454545454e+00 2.16685212332098e-02 1.65457887681808e-04
6.23863636363636e+00 2.14990267181259e-02 1.65068181366183e-04
6.30681818181818e+00 2.13308580152314e-02 1.64669556549869e-04
6.37500000000000e+00 2.11640047538205e-02 1.64262293306613e-04
6.44318181818182e+00 2.09984566443085e-02 1.63846664335495e-04
6.51136363636364e+00 2.08342034775972e-02 1.63422935133997e-04
6.57954545454545e+00 2.06712351244461e-02 1.62991364168461e-04
6.64772727272727e+00 2.05095415350902e-02 1.62552203278140e-04
6.71590909090909e+00 2.03491127378851e-02 1.62105697764753e-04
6.78409090909091e+00 2.01899388394330e-02 1.61652086472002e-04
6.85227272727273e+00 2.00320100237232e-02 1.61191602167207e-04
6.92045454545454e+00 1.98753165515279e-02 1.60724471609341e-04
6.98863636363636e+00 1.97198487600232e-02 1.60250915900478e-04
7.05681818181818e+00 1.95655970615217e-02 1.59771150543975e-04
7.12500000000000e+00 1.94125519435578e-02 1.59285385494659e-04
7.19318181818182e+00 1.92607039680733e-02 1.58793825493565e-04
7.26136363636364e+00 1.91100437708363e-02 1.58296670162957e-04
7.32954545454545e+00 1.89605620608635e-02 1.57794114101902e-04
7.39772727272727e+00 1.88122496200472e-02 1.57286347187795e-04
7.46590909090909e+00 1.86650973019818e-02 1.56773554607301e-04
7.53409090909091e+00 1.85190960320094e-02 1.56255916881026e-04
7.60227272727273e+00 1.83742368064549e-02 1.55733610153185e-04
7.67045454545454e+00 1.82305106920719e-02 1.55206806210805e-04
7.73863636363636e+00 1.80879088256751e-02 1.54675672751827e-04
7.80681818181818e+00 1.79464224130380e-02 1.54140373399716e-04
7.87500000000000e+00 1.78060427289103e-02 1.53601067712892e-04
7.94318181818182e+00 1.76667611162917e-02 1.53057911443866e-04
8.01136363636363e+00 1.75285689858983e-02 1.52511056591211e-04
8.07954545454545e+00 1.73914578156333e-02 1.51960651453381e-04
8.14772727272727e+00 1.72554191502274e-02 1.51406840863907e-04
8.21590909090909e+00 1.71204446002143e-02 1.50849766191649e-04
8.28409090909091e+00 1.69865258419199e-02 1.50289565336847e-04
8.35227272727273e+00 1.68536546167794e-02 1.49726372959939e-04
8.42045454545454e+00 1.67218227308277e-02 1.49160320475155e-04
8.48863636363636e+00 1.65910220543479e-02 1.48591536262970e-04
8.55681818181818e+00 1.64612445209057e-02 1.48020145661759e-04
8.62500000000000e+00 1.63324821273192e-02 1.47446270955868e-04
8.69318181818182e+00 1.62047269330086e-02 1.46870031583224e-04
8.76136363636363e+00 1.60779710595065e-02 1.46291544162492e-04
8.82954545454545e+00 1.59522066899722e-02 1.45710922522565e-04
8.89772727272727e+00 1.58274260688496e-02 1.45128277892020e-04
8.96590909090909e+00 1.57036215009658e-02 1.44543718883184e-04
9.03409090909091e+00 1.55807853514824e-02 1.43957351473220e-04
9.10227272727273e+00 1.54589100452820e-02 1.43369279190149e-04
9.17045454545454e+00 1.53379880665009e-02 1.42779603093041e-04
9.23863636363636e+00 1.52180119581953e-02 1.42188421945146e-04
9.30681818181818e+00 1.50989743214898e-02 1.41595832193506e-04
9.37500000000000e+00 1.49808678155155e-02 1.41001927945985e-04
9.44318181818182e+00 1.48636851568249e-02 1.40406801141821e-04
9.51136363636363e+00 1.47474191189426e-02 1.39810541564040e-04
9.57954545454545e+00 1.46320625319198e-02 1.39213236854320e-04
9.64772727272727e+00 1.45176082820108e-02 1.38614972669223e-04
9.71590909090909e+00 1.44040493108761e-02 1.38015832655995e-04
9.78409090909091e+00 1.42913786155077e-02 1.37415898426106e-04
9.85227272727273e+00 1.41795892476760e-02 1.36815249709702e-04
9.92045454545454e+00 1.40686743135016e-02 1.36213964329113e-04
9.98863636363636e+00 1.39586269731400e-02 1.35612118442695e-04
1.00568181818182e+01 1.38494404397021e-02 1.35009786151112e-04
1.01250000000000e+01 1.37411079803687e-02 1.34407039804966e-04
1.01931818181818e+01 1.36336229144336e-02 1.33803950350767e-04
1.02613636363636e+01 1.35269786134486e-02 1.33200586889815e-04
1.03295454545455e+01 1.34211685008152e-02 1.32597017201534e-04
1.03977272727273e+01 1.33161860503735e-02 1.31993306834352e-04
1.04659090909091e+01 1.32120247890380e-02 1.31389519775013e-04
1.05340909090909e+01 1.31086782933355e-02 1.30785719124643e-04
1.06022727272727e+01 1.30061401900367e-02 1.30181966163786e-04
1.06704545454545e+01 1.29044041557667e-02 1.29578321006360e-04
1.07386363636364e+01 1.28034639156769e-02 1.28974841737178e-04
1.08068181818182e+01 1.27033132458886e-02 1.28371585043008e-04
1.08750000000000e+01 1.26039459702563e-02 1.27768606850184e-04
1.09431818181818e+01 1.25053559609447e-02 1.27165961437939e-04
1.10113636363636e+01 1.24075371380513e-02 1.26563701774244e-04
1.10795454545455e+01 1.23104834692326e-02 1.25961879821809e-04
1.11477272727273e+01 1.22141889684716e-02 1.25360545728110e-04
1.12159090909091e+01 1.21186476983073e-02 1.24759748413604e-04
1.12840909090909e+01 1.20238537668493e-02 1.24159536166222e-04
1.13522727272727e+01 1.19298013282934e-02 1.23559955809207e-04
1.14204545454545e+01 1.18364845825637e-02 1.22961053276490e-04
1.14886363636364e+01 1.17438977741510e-02 1.22362872843972e-04
1.15568181818182e+01 1.16520351941837e-02 1.21765457685144e-04
1.16250000000000e+01 1.15608911776313e-02 1.21168850432779e-04
1.16931818181818e+01 1.14704601037752e-02 1.20573092389320e-04
1.17613636363636e+01 1.13807363958635e-02 1.19978223821160e-04
1.18295454545455e+01 1.12917145207668e-02 1.19384284226922e-04
1.18977272727273e+01 1.12033889878984e-02 1.18791311615159e-04
1.19659090909091e+01 1.11157543511082e-02 1.18199343023289e-04
1.20340909090909e+01 1.10288052060967e-02 1.17608415042363e-04
1.21022727272727e+01 1.09425361908370e-02 1.17018563075479e-04
1.21704545454545e+01 1.08569419852457e-02 1.16429821845902e-04
1.22386363636364e+01 1.07720173101635e-02 1.15842224711199e-04
1.23068181818182e+01 1.06877569291171e-02 1.15255804154169e-04
1.23750000000000e+01 1.06041556458927e-02 1.14670592279379e-04
1.24431818181818e+01 1.05212083049218e-02 1.14086620109103e-04
1.25113636363636e+01 1.04389097909634e-02 1.13503917842324e-04
1.25795454545455e+01 1.03572550287895e-02 1.12922515091007e-04
1.26477272727273e+01 1.02762389822341e-02 1.12342440235244e-04
1.27159090909091e+01 1.01958566558087e-02 1.11763720882562e-04
1.27840909090909e+01 1.01161030924535e-02 1.11186384332553e-04
1.28522727272727e+01 1.00369733738830e-02 1.10610456915201e-04
1.29204545454545e+01 9.95846262028413e-03 1.10035964440970e-04
1.29886363636364e+01 9.88056598941761e-03 1.09462931588172e-04
1.30568181818182e+01 9.80327867812352e-03 1.08891382338021e-04
1.31250000000000e+01 9.72659592020734e-03 1.08321340414826e-04
1.31931818181818e+01 9.65051298675611e-03 1.07752828657424e-04
1.32613636363636e+01 9.57502518584723e-03 1.07185869247972e-04
1.33295454545455e+01 9.50012786225952e-03 1.06620483920746e-04
1.33977272727273e+01 9.42581639663406e-03 1.06056693385800e-04
1.34659090909091e+01 9.35208620685649e-03 1.05494517736580e-04
1.35340909090909e+01 9.27893274609489e-03 1.04933976862378e-04
1.36022727272727e+01 9.20635150308268e-03 1.04375089857229e-04
1.36704545454545e+01 9.13433800184190e-03 1.03817875419628e-04
1.37386363636364e+01 9.06288780088885e-03 1.03262351304698e-04
1.38068181818182e+01 8.99199649452431e-03 1.02708534710661e-04
1.38750000000000e+01 8.92165971098622e-03 1.02156442670014e-04
1.39431818181818e+01 8.85187311270878e-03 1.01606091487728e-04
1.40113636363636e+01 8.78263239605540e-03 1.01057496943928e-04
1.40795454545455e+01 8.71393329105358e-03 1.00510674478949e-04
1.41477272727273e+01 8.64577156065209e-03 9.99656386776813e-05
1.42159090909091e+01 8.57814300190758e-03 9.94224036321114e-05
1.42840909090909e+01 8.51104344426692e-03 9.88809833082883e-05
1.43522727272727e+01 8.44446874979912e-03 9.83413910176417e-05
1.44204545454545e+01 8.37841481294139e-03 9.78036397726838e-05
1.44886363636364e+01 8.31287755979519e-03 9.72677417966339e-05
1.45568181818182e+01 8.24785294923517e-03 9.67337088674809e-05
1.46250000000000e+01 8.18333697128989e-03 9.62015526662982e-05
1.46931818181818e+01 8.11932564735429e-03 9.56712842745083e-05
1.47613636363636e+01 8.05581502994463e-03 9.51429143539032e-05
1.48295454545455e+01 7.99280120245533e-03 9.46164533110744e-05
1.48977272727273e+01 7.93028027849979e-03 9.40919108355645e-05
1.49659090909091e+01 7.86824840293171e-03 9.35692962229378e-05
1.50340909090909e+01 7.80670175033731e-03 9.30486187018804e-05
1.51022727272727e+01 7.74563652522528e-03 9.25298869608416e-05
1.51704545454545e+01 7.68504896179382e-03 9.20131094651653e-05
1.52386363636364e+01 7.62493532330532e-03 9.14982940177010e-05
1.53068181818182e+01 7.56529190304185e-03 9.09854480656395e-05
1.53750000000000e+01 7.50611502288218e-03 9.04745790112140e-05
1.54431818181818e+01 7.44740103347571e-03 8.99656937613797e-05
1.55113636363636e+01 7.38914631401765e-03 8.94587988880117e-05
1.55795454545455e+01 7.33134727202599e-03 8.89539007743134e-05
1.56477272727273e+01 7.27400034275526e-03 8.84510052007712e-05
1.57159090909091e+01 7.21710199007774e-03 8.79501176335239e-05
1.57840909090909e+01 7.16064870515651e-03 8.74512435164028e-05
1.58522727272727e+01 7.10463700660094e-03 8.69543878466836e-05
1.59204545454545e+01 7.04906344025282e-03 8.64595554582930e-05
1.59886363636364e+01 6.99392457862981e-03 8.59667506276937e-05
1.60568181818182e+01 6.93921702175070e-03 8.54759773479774e-05
1.61250000000000e+01 6.88493739588172e-03 8.49872396064599e-05
1.61931818181818e+01 6.83108235367885e-03 8.45005409808690e-05
1.62613636363636e+01 6.77764857398152e-03 8.40158847821945e-05
1.63295454545455e+01 6.72463276160802e-03 8.35332741852813e-05
1.63977272727273e+01 6.67203164683314e-03 8.30527118572742e-05
1.64659090909091e+01 6.61984198615006e-03 8.25742002154088e-05
1.65340909090909e+01 6.56806056110002e-03 8.20977416881438e-05
1.66022727272727e+01 6.51668417839924e-03 8.16233383345341e-05
1.66704545454545e+01 6.46570966974266e-03 8.11509920974968e-05
1.67386363636364e+01 6.41513389130760e-03 8.06807044500198e-05
1.68068181818182e+01 6.36495372446801e-03 8.02124766403338e-05
1.68750000000000e+01 6.31516607468766e-03 7.97463099402524e-05
1.69431818181818e+01 6.26576787163613e-03 7.92822052827476e-05
1.70113636363636e+01 6.21675606899963e-03 7.88201633895388e-05
1.70795454545455e+01 6.16812764429331e-03 7.83601848877379e-05
1.71477272727273e+01 6.11987959839489e-03 7.79022699761465e-05
1.72159090909091e+01 6.07200895620486e-03 7.74464186560222e-05
1.72840909090909e+01 6.02451276561198e-03 7.69926309648474e-05
1.73522727272727e+01 5.97738809759666e-03 7.65409066345552e-05
1.74204545454545e+01 5.93063204605083e-03 7.60912453183144e-05
1.74886363636364e+01 5.88424172733462e-03 7.56436462726485e-05
1.75568181818182e+01 5.83821428089555e-03 7.51981085770077e-05
1.76250000000000e+01 5.79254686828958e-03 7.47546313562277e-05
1.76931818181818e+01 5.74723667327529e-03 7.43132134549714e-05
1.77613636363636e+01 5.70228090164037e-03 7.38738535518079e-05
1.78295454545455e+01 5.65767678102942e-03 7.34365502635787e-05
1.78977272727273e+01 5.61342156052701e-03 7.30013018454478e-05
1.79659090909091e+01 5.56951251123061e-03 7.25681063976974e-05
1.80340909090909e+01 5.52594692533462e-03 7.21369620752679e-05
1.81022727272727e+01 5.48272211621407e-03 7.17078667805939e-05
1.81704545454545e+01 5.43983541825948e-03 7.12808183669029e-05
1.82386363636364e+01 5.39728418648009e-03 7.08558143523878e-05
1.83068181818182e+01 5.35506579704178e-03 7.04328521170711e-05
1.83750000000000e+01 5.31317764639943e-03 7.00119291022917e-05
1.84431818181818e+01 5.27161715137317e-03 6.95930425180184e-05
1.85113636363636e+01 5.23038174898919e-03 6.91761894450045e-05
1.85795454545455e+01 5.18946889632178e-03 6.87613669282643e-05
1.86477272727273e+01 5.14887607011999e-03 6.83485717072472e-05
1.87159090909091e+01 5.10860076730566e-03 6.79378004013661e-05
1.87840909090909e+01 5.06864050416098e-03 6.75290496979990e-05
1.88522727272727e+01 5.02899281639598e-03 6.71223160762200e-05
1.89204545454545e+01 4.98965525899694e-03 6.67175959892331e-05
1.89886363636364e+01 4.95062540587102e-03 6.63148856071789e-05
1.90568181818182e+01 4.91190085031408e-03 6.59141809938182e-05
1.91250000000000e+01 4.87347920424059e-03 6.55154782855920e-05
1.91931818181818e+01 4.83535809824491e-03 6.51187734282873e-05
1.92613636363636e+01 4.79753518145530e-03 6.47240622686135e-05
1.93295454545455e+01 4.76000812138899e-03 6.43313406380199e-05
1.93977272727273e+01 4.72277460361745e-03 6.39406041098057e-05
1.94659090909091e+01 4.68583233219996e-03 6.35518481657109e-05
1.95340909090909e+01 4.64917902896184e-03 6.31650683647556e-05
1.96022727272727e+01 4.61281243354847e-03 6.27802600945901e-05
1.96704545454545e+01 4.57673030328627e-03 6.23974187353538e-05
1.97386363636364e+01 4.54093041286382e-03 6.20165394280770e-05
1.98068181818182e+01 4.50541055473941e-03 6.16376172333953e-05
1.98750000000000e+01 4.47016853845649e-03 6.12606472924302e-05
1.99431818181818e+01 4.43520219069251e-03 6.08856245896983e-05
2.00113636363636e+01 4.40050935512499e-03 6.05125440352822e-05
2.00795454545455e+01 4.36608789229866e-03 6.01414005400609e-05
2.01477272727273e+01 4.33193567932487e-03 5.97721887969141e-05
2.02159090909091e+01 4.29805061025963e-03 5.94049034304512e-05
2.02840909090909e+01 4.26443059546140e-03 5.90395391487690e-05
2.03522727272727e+01 4.23107356163399e-03 5.86760905195060e-05
2.04204545454545e+01 4.19797745169903e-03 5.83145521171347e-05
2.04886363636364e+01 4.16514022450954e-03 5.79549183142756e-05
2.05568181818182e+01 4.13255985520544e-03 5.75971834244140e-05
2.06250000000000e+01 4.10023433460407e-03 5.72413418465357e-05
2.06931818181818e+01 4.06816166923888e-03 5.68873878515365e-05
2.07613636363636e+01 4.03633988123652e-03 5.65353156560214e-05
2.08295454545455e+01 4.00476700819494e-03 5.61851194898842e-05
2.08977272727273e+01 3.97344110291332e-03 5.58367933991003e-05
2.09659090909091e+01 3.94236023372195e-03 5.54903313803927e-05
2.10340909090909e+01 3.91152248391014e-03 5.51457275177641e-05
2.11022727272727e+01 3.88092595175988e-03 5.48029757806523e-05
2.11704545454545e+01 3.85056875042885e-03 5.44620701564443e-05
2.12386363636364e+01 3.82044900769285e-03 5.41230044623280e-05
2.13068181818182e+01 3.79056486625630e-03 5.37857724736965e-05
2.13750000000000e+01 3.76091448320891e-03 5.34503680543153e-05
2.14431818181818e+01 3.73149603005591e-03 5.31167849637539e-05
2.15113636363636e+01 3.70230769260526e-03 5.27850169237263e-05
