Energy (eV)          EEDF (eV^-(3/2))     First Anisotropy
2.64285714285714e-04 1.25975156947273e+02 5.62129506222253e-02
7.92857142857143e-04 1.24434352483791e+02 9.25670879306963e-02
1.32142857142857e-03 1.22912393626249e+02 1.21521490046477e-01
1.85000000000000e-03 1.21409049876044e+02 1.43110379259434e-01
2.37857142857143e-03 1.19924093554091e+02 1.60781293582696e-01
2.90714285714286e-03 1.18457299759780e+02 1.75848294525654e-01
3.43571428571429e-03 1.17008446347041e+02 1.88996655819957e-01
3.96428571428571e-03 1.15577313886824e+02 2.00643297955938e-01
4.49285714285714e-03 1.14163685633853e+02 2.11066765742641e-01
5.02142857142857e-03 1.12767347493902e+02 2.20465355871133e-01
5.55000000000000e-03 1.11388087991317e+02 2.28986905195414e-01
6.07857142857143e-03 1.10025698237938e+02 2.36745577158073e-01
6.60714285714286e-03 1.08679971898554e+02 2.43832012031788e-01
7.13571428571429e-03 1.07350705162667e+02 2.50319808738317e-01
7.66428571428571e-03 1.06037696712581e+02 2.56269848521610e-01
8.19285714285714e-03 1.04740747692910e+02 2.61733284197863e-01
8.72142857142857e-03 1.03459661680480e+02 2.66753669451112e-01
9.25000000000000e-03 1.02194244654570e+02 2.71368514576809e-01
9.77857142857143e-03 1.00944304968052e+02 2.75610448253269e-01
1.03071428571429e-02 9.97096533186301e+01 2.79508101520236e-01
1.08357142857143e-02 9.84901027128887e+01 2.83086792493476e-01
1.13642857142857e-02 9.72854684544011e+01 2.86369063692155e-01
1.18928571428571e-02 9.60955681008130e+01 2.89375109270245e-01
1.24214285714286e-02 9.49202214375300e+01 2.92123120332605e-01
1.29500000000000e-02 9.37592504620728e+01 2.94629565022937e-01
1.34785714285714e-02 9.26124793449885e+01 2.96909418765715e-01
1.40071428571429e-02 9.14797344074202e+01 2.98976355749099e-01
1.45357142857143e-02 9.03608440917552e+01 3.00842908963398e-01
1.50642857142857e-02 8.92556389450404e+01 3.02520604675971e-01
1.55928571428571e-02 8.81639515835956e+01 3.04020076323062e-01
1.61214285714286e-02 8.70856166683878e+01 3.05351162655269e-01
1.66500000000000e-02 8.60204708881755e+01 3.06522991188654e-01
1.71785714285714e-02 8.49683529263196e+01 3.07544050305070e-01
1.77071428571429e-02 8.39291034392584e+01 3.08422252247174e-01
1.82357142857143e-02 8.29025650301473e+01 3.09164988026553e-01
1.87642857142857e-02 8.18885822318666e+01 3.09779175230356e-01
1.92928571428571e-02 8.08870014764317e+01 3.10271299963982e-01
1.98214285714286e-02 7.98976710721870e+01 3.10647454657225e-01
2.03500000000000e-02 7.89204411869151e+01 3.10913370888243e-01
2.08785714285714e-02 7.79551638188912e+01 3.11074448643936e-01
2.14071428571429e-02 7.70016927766076e+01 3.11135782780264e-01
2.19357142857143e-02 7.60598836549348e+01 3.11102186704318e-01
2.24642857142857e-02 7.51295938184587e+01 3.10978213389148e-01
2.29928571428571e-02 7.42106823745391e+01 3.10768174220477e-01
2.35214285714286e-02 7.33030101522754e+01 3.10476156656812e-01
2.40500000000000e-02 7.24064396861199e+01 3.10106039630785e-01
2.45785714285714e-02 7.15208351902520e+01 3.09661507588382e-01
2.51071428571429e-02 7.06460625396532e+01 3.09146063544495e-01
2.56357142857143e-02 6.97819892484607e+01 3.08563040982388e-01
2.61642857142857e-02 6.89284844539828e+01 3.07915614503171e-01
2.66928571428571e-02 6.80854188927059e+01 3.07206809514562e-01
2.72214285714286e-02 6.72526648809343e+01 3.06439511661667e-01
2.77500000000000e-02 6.64300962991632e+01 3.05616474987584e-01
2.82785714285714e-02 6.56175885691843e+01 3.04740329504101e-01
2.88071428571429e-02 6.48150186365094e+01 3.03813588411578e-01
2.93357142857143e-02 6.40222649506654e+01 3.02838654767557e-01
2.98642857142857e-02 6.32392074500521e+01 3.01817827459952e-01
3.03928571428571e-02 6.24657275404234e+01 3.00753306692972e-01
3.09214285714286e-02 6.17017080770867e+01 2.99647199543067e-01
3.14500000000000e-02 6.09470333501536e+01 2.98501524681931e-01
3.19785714285714e-02 6.02015890639612e+01 2.97318216824066e-01
3.25071428571429e-02 5.94652623208007e+01 2.96099131072466e-01
3.30357142857143e-02 5.87379416029476e+01 2.94846046973197e-01
3.35642857142857e-02 5.80195167584311e+01 2.93560672128488e-01
3.40928571428571e-02 5.73098789816412e+01 2.92244645535312e-01
3.46214285714286e-02 5.66089207969721e+01 2.90899541112268e-01
3.51500000000000e-02 5.59165360449938e+01 2.89526870620704e-01
3.56785714285714e-02 5.52326198638781e+01 2.88128086452927e-01
3.62071428571429e-02 5.45570686743649e+01 2.86704584423265e-01
3.67357142857143e-02 5.38897801633563e+01 2.85257706392987e-01
3.72642857142857e-02 5.32306532706131e+01 2.83788742585931e-01
3.77928571428571e-02 5.25795881712169e+01 2.82298933735862e-01
3.83214285714286e-02 5.19364862605473e+01 2.80789473459283e-01
3.88500000000000e-02 5.13012501413757e+01 2.79261510156960e-01
3.93785714285714e-02 5.06737836070497e+01 2.77716148852332e-01
3.99071428571429e-02 5.00539916276231e+01 2.76154453077608e-01
4.04357142857143e-02 4.94417803348645e+01 2.74577446659056e-01
4.09642857142857e-02 4.88370570098662e+01 2.72986115269670e-01
4.14928571428571e-02 4.82397300671451e+01 2.71381407871420e-01
4.20214285714286e-02 4.76497090408469e+01 2.69764238386709e-01
4.25500000000000e-02 4.70669045727411e+01 2.68135486986885e-01
4.30785714285714e-02 4.64912283969621e+01 2.66496001353642e-01
4.36071428571429e-02 4.59225933272266e+01 2.64846598006179e-01
4.41357142857143e-02 4.53609132431253e+01 2.63188063564165e-01
4.46642857142857e-02 4.48061030786136e+01 2.61521155826818e-01
4.51928571428571e-02 4.42580788075692e+01 2.59846604775404e-01
4.57214285714286e-02 4.37167574311271e+01 2.58165113794688e-01
4.62500000000000e-02 4.31820569665380e+01 2.56477360574233e-01
4.67785714285714e-02 4.26538964332996e+01 2.54783998001978e-01
4.73071428571429e-02 4.21321958413842e+01 2.53085655129001e-01
4.78357142857143e-02 4.16168761786977e+01 2.51382938091756e-01
4.83642857142857e-02 4.11078594004109e+01 2.49676430883846e-01
4.88928571428571e-02 4.06050684158211e+01 2.47966696072277e-01
4.94214285714286e-02 4.01084270767264e+01 2.46254275716843e-01
4.99500000000000e-02 3.96178601671048e+01 2.44539692016844e-01
5.04785714285714e-02 3.91332933904915e+01 2.42823447960569e-01
5.10071428571429e-02 3.86546533591435e+01 2.41106028045401e-01
5.15357142857143e-02 3.81818675825621e+01 2.39387898968830e-01
5.20642857142857e-02 3.77148644576183e+01 2.37669510193395e-01
5.25928571428571e-02 3.72535732565875e+01 2.35951294469831e-01
5.31214285714286e-02 3.67979241164779e+01 2.34233668545919e-01
5.36500000000000e-02 3.63478480294842e+01 2.32517033640107e-01
5.41785714285714e-02 3.59032768314861e+01 2.30801775923494e-01
5.47071428571429e-02 3.54641431920804e+01 2.29088267069049e-01
5.52357142857143e-02 3.50303806040725e+01 2.27376864780467e-01
5.57642857142857e-02 3.46019233743496e+01 2.25667913213520e-01
5.62928571428571e-02 3.41787066129718e+01 2.23961743364980e-01
5.68214285714286e-02 3.37606662233786e+01 2.22258673630013e-01
5.73500000000000e-02 3.33477388935674e+01 2.20559010154710e-01
5.78785714285714e-02 3.29398620856058e+01 2.18863047199889e-01
5.84071428571429e-02 3.25369740264643e+01 2.17171067567501e-01
5.89357142857143e-02 3.21390136983933e+01 2.15483343012480e-01
5.94642857142857e-02 3.17459208304946e+01 2.13800134561769e-01
5.99928571428571e-02 3.13576358887690e+01 2.12121692807611e-01
6.05214285714286e-02 3.09741000671283e+01 2.10448258353007e-01
6.10500000000000e-02 3.05952552792524e+01 2.08780062077511e-01
6.15785714285714e-02 3.02210441490174e+01 2.07117325415607e-01
6.21071428571429e-02 2.98514100020682e+01 2.05460260692681e-01
6.26357142857143e-02 2.94862968570042e+01 2.03809071450395e-01
6.31642857142857e-02 2.91256494176021e+01 2.02163952691195e-01
6.36928571428571e-02 2.87694130637303e+01 2.00525091102017e-01
6.42214285714286e-02 2.84175338431005e+01 1.98892665415030e-01
6.47500000000000e-02 2.80699584637559e+01 1.97266846610067e-01
6.52785714285714e-02 2.77266342853318e+01 1.95647798130040e-01
6.58071428571429e-02 2.73875093113086e+01 1.94035676148874e-01
6.63357142857143e-02 2.70525321809377e+01 1.92430629831653e-01
6.68642857142857e-02 2.67216521620695e+01 1.90832801523836e-01
6.73928571428571e-02 2.63948191428550e+01 1.89242326923378e-01
6.79214285714286e-02 2.60719836241761e+01 1.87659335376167e-01
6.84500000000000e-02 2.57530967127211e+01 1.86083950031341e-01
6.89785714285714e-02 2.54381101129999e+01 1.84516288009433e-01
6.95071428571429e-02 2.51269761202256e+01 1.82956460618264e-01
7.00357142857143e-02 2.48196476129160e+01 1.81404573562984e-01
7.05642857142857e-02 2.45160780462841e+01 1.79860727093625e-01
7.10928571428572e-02 2.42162214446549e+01 1.78325016138395e-01
7.16214285714286e-02 2.39200323945192e+01 1.76797530547857e-01
7.21500000000000e-02 2.36274660381532e+01 1.75278355214758e-01
7.26785714285714e-02 2.33384780663207e+01 1.73767570206182e-01
7.32071428571429e-02 2.30530247117325e+01 1.72265250938950e-01
7.37357142857143e-02 2.27710627422670e+01 1.70771468350652e-01
7.42642857142857e-02 2.24925494548817e+01 1.69286289015345e-01
7.47928571428571e-02 2.22174426686806e+01 1.67809775247226e-01
7.53214285714286e-02 2.19457007185402e+01 1.66341985304050e-01
7.58500000000000e-02 2.16772824492335e+01 1.64882973479869e-01
7.63785714285714e-02 2.14121472087573e+01 1.63432790209420e-01
7.69071428571429e-02 2.11502548423239e+01 1.61991482211627e-01
7.74357142857143e-02 2.08915656861474e+01 1.60559092629844e-01
7.79642857142857e-02 2.06360405618381e+01 1.59135661122912e-01
7.84928571428571e-02 2.03836407700620e+01 1.57721223946021e-01
7.90214285714286e-02 2.01343280846931e+01 1.56315814121271e-01
7.95500000000000e-02 1.98880647474026e+01 1.54919461509504e-01
8.00785714285714e-02 1.96448134615564e+01 1.53532192893088e-01
8.06071428571429e-02 1.94045373866966e+01 1.52154032094006e-01
8.11357142857143e-02 1.91672001328456e+01 1.50785000089474e-01
8.16642857142857e-02 1.89327657553467e+01 1.49425115083797e-01
8.21928571428572e-02 1.87011987490645e+01 1.48074392571472e-01
8.27214285714286e-02 1.84724640430178e+01 1.46732845480981e-01
8.32500000000000e-02 1.82465269954012e+01 1.45400484230399e-01
8.37785714285714e-02 1.80233533880018e+01 1.44077316793149e-01
8.43071428571429e-02 1.78029094211301e+01 1.42763348795653e-01
8.48357142857143e-02 1.75851617083998e+01 1.41458583613113e-01
8.53642857142857e-02 1.73700772719797e+01 1.40163022426234e-01
8.58928571428571e-02 1.71576235372869e+01 1.38876664270405e-01
8.64214285714286e-02 1.69477683280628e+01 1.37599506157508e-01
8.69500000000000e-02 1.67404798617920e+01 1.36331543118802e-01
8.74785714285714e-02 1.65357267445930e+01 1.35072768257194e-01
8.80071428571429e-02 1.63334779665636e+01 1.33823172828306e-01
8.85357142857143e-02 1.61337028969950e+01 1.32582746320120e-01
8.90642857142857e-02 1.59363712800039e+01 1.31351476497710e-01
8.95928571428571e-02 1.57414532296756e+01 1.30129349441444e-01
9.01214285714286e-02 1.55489192255462e+01 1.28916349650571e-01
9.06500000000000e-02 1.53587401083886e+01 1.27712460076088e-01
9.11785714285714e-02 1.51708870755357e+01 1.26517662162264e-01
9.17071428571429e-02 1.49853316766067e+01 1.25331935914130e-01
9.22357142857143e-02 1.48020458091194e+01 1.24155259963936e-01
9.27642857142857e-02 1.46210017144724e+01 1.22987611606299e-01
9.32928571428571e-02 1.44421719734998e+01 1.21828966827713e-01
9.38214285714286e-02 1.42655295023257e+01 1.20679300394940e-01
9.43500000000000e-02 1.40910475484884e+01 1.19538585879948e-01
9.48785714285714e-02 1.39186996866596e+01 1.18406795692812e-01
9.54071428571429e-02 1.37484598147201e+01 1.17283901138047e-01
9.59357142857143e-02 1.35803021497364e+01 1.16169872470179e-01
9.64642857142857e-02 1.34142012242672e+01 1.15064678921246e-01
9.69928571428571e-02 1.32501318822927e+01 1.13968288723365e-01
9.75214285714286e-02 1.30880692754114e+01 1.12880669184375e-01
9.80500000000000e-02 1.29279888592758e+01 1.11801786706497e-01
9.85785714285714e-02 1.27698663896737e+01 1.10731606812281e-01
9.91071428571429e-02 1.26136779189244e+01 1.09670094191704e-01
9.96357142857143e-02 1.24593997921904e+01 1.08617212748727e-01
1.00164285714286e-01 1.23070086440808e+01 1.07572925645299e-01
1.00692857142857e-01 1.21564813951609e+01 1.06537195222258e-01
1.01221428571429e-01 1.20077952474554e+01 1.05509983218123e-01
1.01750000000000e-01 1.18609276830049e+01 1.04491250664323e-01
1.02278571428571e-01 1.17158564581132e+01 1.03480957960454e-01
1.02807142857143e-01 1.15725596022825e+01 1.02479064890325e-01
1.03335714285714e-01 1.14310154126196e+01 1.01485530663343e-01
1.03864285714286e-01 1.12912024527787e+01 1.00500313980445e-01
1.04392857142857e-01 1.11530995480462e+01 9.95233728686810e-02
1.04921428571429e-01 1.10166857821845e+01 9.85546650049632e-02
1.05450000000000e-01 1.08819404958213e+01 9.75941475367598e-02
1.05978571428571e-01 1.07488432812478e+01 9.66417771668760e-02
1.06507142857143e-01 1.06173739813672e+01 9.56975101651932e-02
1.07035714285714e-01 1.04875126846358e+01 9.47613024037672e-02
1.07564285714286e-01 1.03592397240212e+01 9.38331094136926e-02
1.08092857142857e-01 1.02325356725466e+01 9.29128862337917e-02
1.08621428571429e-01 1.01073813403928e+01 9.20005877002253e-02
1.09150000000000e-01 9.98375777337189e+00 9.10961682825194e-02
1.09678571428571e-01 9.86164624821932e+00 9.01995821580333e-02
1.10207142857143e-01 9.74102827156614e+00 8.93107832202652e-02
1.10735714285714e-01 9.62188557535943e+00 8.84297251086316e-02
1.11264285714286e-01 9.50420011584579e+00 8.75563612575922e-02
1.11792857142857e-01 9.38795406952897e+00 8.66906447583142e-02
1.12321428571429e-01 9.27312983050931e+00 8.58325286179959e-02
1.12850000000000e-01 9.15971000904147e+00 8.49819656099978e-02
1.13378571428571e-01 9.04767742727107e+00 8.41389083393486e-02
1.13907142857143e-01 8.93701511823689e+00 8.33033092482964e-02
1.14435714285714e-01 8.82770632172291e+00 8.24751206415852e-02
1.14964285714286e-01 8.71973448327328e+00 8.16542947289582e-02
1.15492857142857e-01 8.61308325052281e+00 8.08407834987332e-02
1.16021428571429e-01 8.50773647075445e+00 8.00345389502163e-02
1.16550000000000e-01 8.40367818954024e+00 7.92355129567682e-02
1.17078571428571e-01 8.30089264687759e+00 7.84436573234998e-02
1.17607142857143e-01 8.19936427622704e+00 7.76589237906287e-02
1.18135714285714e-01 8.09907770075252e+00 7.68812640549474e-02
1.18664285714286e-01 8.00001773237265e+00 7.61106298066242e-02
1.19192857142857e-01 7.90216936842778e+00 7.53469726136897e-02
1.19721428571429e-01 7.80551778943778e+00 7.45902441305189e-02
1.20250000000000e-01 7.71004835782432e+00 7.38403959727445e-02
1.20778571428571e-01 7.61574661440715e+00 7.30973797681360e-02
1.21307142857143e-01 7.52259827748096e+00 7.23611471582043e-02
1.21835714285714e-01 7.43058923940552e+00 7.16316498164318e-02
1.22364285714286e-01 7.33970556569649e+00 7.09088394801689e-02
1.22892857142857e-01 7.24993349199659e+00 7.01926678451087e-02
1.23421428571429e-01 7.16125942201733e+00 6.94830867524450e-02
1.23950000000000e-01 7.07366992634021e+00 6.87800480746220e-02
1.24478571428571e-01 6.98715173923756e+00 6.80835037602504e-02
1.25007142857143e-01 6.90169175779088e+00 6.73934058343352e-02
1.25535714285714e-01 6.81727703879650e+00 6.67097064137383e-02
1.26064285714286e-01 6.73389479789798e+00 6.60323577348456e-02
1.26592857142857e-01 6.65153240683233e+00 6.53613120571814e-02
1.27121428571429e-01 6.57017739154069e+00 6.46965218315357e-02
1.27650000000000e-01 6.48981743104546e+00 6.40379395956339e-02
1.28178571428571e-01 6.41044035456419e+00 6.33855180138130e-02
1.28707142857143e-01 6.33203414067066e+00 6.27392098761754e-02
1.29235714285714e-01 6.25458691448539e+00 6.20989681116940e-02
1.29764285714286e-01 6.17808694685075e+00 6.14647458122152e-02
1.30292857142857e-01 6.10252265182608e+00 6.08364961444326e-02
1.30821428571429e-01 6.02788258495358e+00 6.02141725010187e-02
1.31350000000000e-01 5.95415544220816e+00 5.95977284053559e-02
1.31878571428571e-01 5.88133005737610e+00 5.89871175466155e-02
1.32407142857143e-01 5.80939540125932e+00 5.83822937780764e-02
1.32935714285714e-01 5.73834057912332e+00 5.77832111282134e-02
1.33464285714286e-01 5.66815482991536e+00 5.71898238215325e-02
1.33992857142857e-01 5.59882752398502e+00 5.66020861981862e-02
1.34521428571429e-01 5.53034816149255e+00 5.60199528499002e-02
1.35050000000000e-01 5.46270637142823e+00 5.54433785329818e-02
1.35578571428571e-01 5.39589190923023e+00 5.48723181993639e-02
1.36107142857143e-01 5.32989465603212e+00 5.43067269942783e-02
1.36635714285714e-01 5.26470461634354e+00 5.37465602656254e-02
1.37164285714286e-01 5.20031191731117e+00 5.31917735820628e-02
1.37692857142857e-01 5.13670680664375e+00 5.26423226595883e-02
1.38221428571429e-01 5.07387965115115e+00 5.20981634838709e-02
1.38750000000000e-01 5.01182093582972e+00 5.15592522308210e-02
1.39278571428571e-01 4.95052126169675e+00 5.10255452940694e-02
1.39807142857143e-01 4.88997134508047e+00 5.04969992821647e-02
1.40335714285714e-01 4.83016201551136e+00 4.99735710264671e-02
1.40864285714286e-01 4.77108421502530e+00 4.94552175968518e-02
1.41392857142857e-01 4.71272899627393e+00 4.89418962346672e-02
1.41921428571429e-01 4.65508752118385e+00 4.84335644628760e-02
1.42450000000000e-01 4.59815106010440e+00 4.79301800135261e-02
1.42978571428571e-01 4.54191098983822e+00 4.74317008520969e-02
1.43507142857143e-01 4.48635879297281e+00 4.69380851743425e-02
1.44035714285714e-01 4.43148605596265e+00 4.64492914129242e-02
1.44564285714286e-01 4.37728446847341e+00 4.59652782510508e-02
1.45092857142857e-01 4.32374582166057e+00 4.54860045612422e-02
1.45621428571429e-01 4.27086200693886e+00 4.50114295045482e-02
1.46150000000000e-01 4.21862501518906e+00 4.45415124643273e-02
1.46678571428571e-01 4.16702693496619e+00 4.40762130678119e-02
1.47207142857143e-01 4.11605995187143e+00 4.36154911827153e-02
1.47735714285714e-01 4.06571634680708e+00 4.31593069227841e-02
1.48264285714286e-01 4.01598849536064e+00 4.27076206596360e-02
1.48792857142857e-01 3.96686886623615e+00 4.22603929668340e-02
1.49321428571429e-01 3.91835002012490e+00 4.18175847093013e-02
1.49850000000000e-01 3.87042460896775e+00 4.13791569828498e-02
1.50378571428571e-01 3.82308537432442e+00 4.09450711333010e-02
1.50907142857143e-01 3.77632514678429e+00 4.05152887529349e-02
1.51435714285714e-01 3.73013684437813e+00 4.00897716851197e-02
1.51964285714286e-01 3.68451347200052e+00 3.96684820345796e-02
1.52492857142857e-01 3.63944811997998e+00 3.92513821163171e-02
1.53021428571429e-01 3.59493396304263e+00 3.88384345362275e-02
1.53550000000000e-01 3.55096425962669e+00 3.84296021358747e-02
1.54078571428571e-01 3.50753235039791e+00 3.80248480094487e-02
1.54607142857143e-01 3.46463165769773e+00 3.76241355001255e-02
1.55135714285714e-01 3.42225568409715e+00 3.72274282039089e-02
1.55664285714286e-01 3.38039801185591e+00 3.68346899785343e-02
1.56192857142857e-01 3.33905230161887e+00 3.64458848968100e-02
1.56721428571429e-01 3.29821229146485e+00 3.60609773193267e-02
1.57250000000000e-01 3.25787179627025e+00 3.56799318440242e-02
1.57778571428571e-01 3.21802470635699e+00 3.53027133212367e-02
1.58307142857143e-01 3.17866498697635e+00 3.49292868500181e-02
1.58835714285714e-01 3.13978667699195e+00 3.45596177813059e-02
1.59364285714286e-01 3.10138388837400e+00 3.41936717256388e-02
1.59892857142857e-01 3.06345080501044e+00 3.38314145105344e-02
1.60421428571429e-01 3.02598168183401e+00 3.34728122460927e-02
1.60950000000000e-01 2.98897084423181e+00 3.31178312789344e-02
1.61478571428571e-01 2.95241268681364e+00 3.27664382055480e-02
1.62007142857143e-01 2.91630167292981e+00 3.24185998686281e-02
1.62535714285714e-01 2.88063233347128e+00 3.20742833596625e-02
1.63064285714286e-01 2.84539926639733e+00 3.17334560256155e-02
1.63592857142857e-01 2.81059713565110e+00 3.13960854299883e-02
1.64121428571429e-01 2.77622067035845e+00 3.10621394120331e-02
1.64650000000000e-01 2.74226466428050e+00 3.07315860446782e-02
1.65178571428571e-01 2.70872397469133e+00 3.04043936463720e-02
1.65707142857143e-01 2.67559352192801e+00 3.00805307774705e-02
1.66235714285714e-01 2.64286828829722e+00 2.97599662423313e-02
1.66764285714286e-01 2.61054331763463e+00 2.94426690950950e-02
