Energy (eV)          EEDF (eV^-(3/2))     First Anisotropy
5.15000000000000e-03 6.76692993056354e+00 7.56471385772946e-03
1.54500000000000e-02 6.53810126403565e+00 1.23217114143617e-02
2.57500000000000e-02 6.31701060560941e+00 1.58223904290151e-02
3.60500000000000e-02 6.10339628890221e+00 1.82261408655230e-02
4.63500000000000e-02 5.89700549597093e+00 2.00292038817444e-02
5.66500000000000e-02 5.69759395809545e+00 2.14274706381928e-02
6.69500000000000e-02 5.50492566668040e+00 2.25263821187589e-02
7.72500000000000e-02 5.31877259393307e+00 2.33919573806563e-02
8.75500000000000e-02 5.13891442298668e+00 2.40694596602028e-02
9.78500000000000e-02 4.96513828714988e+00 2.45918623005983e-02
1.08150000000000e-01 4.79723851797357e+00 2.49842485271932e-02
1.18450000000000e-01 4.63501640183714e+00 2.52663261079961e-02
1.28750000000000e-01 4.47827994476585e+00 2.54539697920697e-02
1.39050000000000e-01 4.32684364520114e+00 2.55602207030338e-02
1.49350000000000e-01 4.18052827445479e+00 2.55959629291074e-02
1.59650000000000e-01 4.03916066458729e+00 2.55703983723163e-02
1.69950000000000e-01 3.90257350345919e+00 2.54913902033709e-02
1.80250000000000e-01 3.77060513671295e+00 2.53657177199353e-02
1.90550000000000e-01 3.64309937645094e+00 2.51992696726374e-02
2.00850000000000e-01 3.51990531638306e+00 2.49971937492237e-02
2.11150000000000e-01 3.40087715322541e+00 2.47640141159614e-02
2.21450000000000e-01 3.28587401413836e+00 2.45037252230895e-02
2.31750000000000e-01 3.17475979000001e+00 2.42198676612288e-02
2.42050000000000e-01 3.06740297431761e+00 2.39155902305095e-02
2.52350000000000e-01 2.96367650758625e+00 2.35937012687773e-02
2.62650000000000e-01 2.86345762691081e+00 2.32567115046040e-02
2.72950000000000e-01 2.76662772071288e+00 2.29068701447713e-02
2.83250000000000e-01 2.67307218835105e+00 2.25461955034362e-02
2.93550000000000e-01 2.58268030448806e+00 2.21765011845899e-02
3.03850000000000e-01 2.49534508804464e+00 2.17994186094186e-02
3.14150000000000e-01 2.41096317558467e+00 2.14164165143797e-02
3.24450000000000e-01 2.32943469898194e+00 2.10288179194559e-02
3.34750000000000e-01 2.25066316722368e+00 2.06378149687315e-02
3.45050000000000e-01 2.17455535221107e+00 2.02444819697381e-02
3.55350000000000e-01 2.10102117842133e+00 1.98497868986114e-02
3.65650000000000e-01 2.02997361630117e+00 1.94546015910665e-02
3.75950000000000e-01 1.96132857926503e+00 1.90597108016707e-02
3.86250000000000e-01 1.89500482417653e+00 1.86658202837231e-02
3.96550000000000e-01 1.83092385519512e+00 1.82735640176218e-02
4.06850000000000e-01 1.76900983087434e+00 1.78835106956925e-02
4.17150000000000e-01 1.70918947440147e+00 1.74961695551193e-02
4.27450000000000e-01 1.65139198687261e+00 1.71119956371499e-02
4.37750000000000e-01 1.59554896350041e+00 1.67313945395712e-02
4.48050000000000e-01 1.54159431265523e+00 1.63547267201240e-02
4.58350000000000e-01 1.48946417764405e+00 1.59823114007117e-02
4.68650000000000e-01 1.43909686113445e+00 1.56144301156738e-02
4.78950000000000e-01 1.39043275213427e+00 1.52513299418230e-02
4.89250000000000e-01 1.34341425544049e+00 1.48932264432046e-02
4.99550000000000e-01 1.29798572347384e+00 1.45403063595006e-02
5.09850000000000e-01 1.25409339041850e+00 1.41927300635314e-02
5.20150000000000e-01 1.21168530858889e+00 1.38506338103298e-02
5.30450000000000e-01 1.17071128694826e+00 1.35141317976904e-02
5.40750000000000e-01 1.13112283170636e+00 1.31833180558671e-02
5.51050000000000e-01 1.09287308892577e+00 1.28582681821535e-02
5.61350000000000e-01 1.05591678906912e+00 1.25390409343925e-02
5.71650000000000e-01 1.02021019342144e+00 1.22256796959834e-02
5.81950000000000e-01 9.85711042324257e-01 1.19182138236578e-02
5.92250000000000e-01 9.52378505160265e-01 1.16166598881549e-02
6.02550000000000e-01 9.20173132029223e-01 1.13210228169205e-02
6.12850000000000e-01 8.89056807058015e-01 1.10312969470645e-02
6.23150000000000e-01 8.58992703289548e-01 1.07474669960211e-02
6.33450000000000e-01 8.29945239097120e-01 1.04695089566579e-02
6.43750000000000e-01 8.01880036072660e-01 1.01973909229503e-02
6.54050000000000e-01 7.74763878339022e-01 9.93107385178498e-03
6.64350000000000e-01 7.48564673238145e-01 9.67051226595243e-03
6.74650000000000e-01 7.23251413348588e-01 9.41565490294478e-03
6.84950000000000e-01 6.98794139787460e-01 9.16644531377072e-03
6.95250000000000e-01 6.75163906753324e-01 8.92282241563926e-03
7.05550000000000e-01 6.52332747268112e-01 8.68472100203594e-03
7.15850000000000e-01 6.30273640077500e-01 8.45207221342249e-03
7.26150000000000e-01 6.08960477670565e-01 8.22480397152317e-03
7.36450000000000e-01 5.88368035380893e-01 8.00284137991935e-03
7.46750000000000e-01 5.68471941532545e-01 7.78610709345583e-03
7.57050000000000e-01 5.49248648595562e-01 7.57452165876126e-03
7.67350000000000e-01 5.30675405316870e-01 7.36800382800549e-03
7.77650000000000e-01 5.12730229793595e-01 7.16647084785020e-03
7.87950000000000e-01 4.95391883456927e-01 6.96983872539813e-03
7.98250000000000e-01 4.78639845935738e-01 6.77802247280945e-03
8.08550000000000e-01 4.62454290770201e-01 6.59093633212623e-03
8.18850000000000e-01 4.46816061946674e-01 6.40849398173114e-03
8.29150000000000e-01 4.31706651226077e-01 6.23060872576035e-03
8.39450000000000e-01 4.17108176238921e-01 6.05719366769297e-03
8.49750000000000e-01 4.03003359321070e-01 5.88816186925040e-03
8.60050000000000e-01 3.89375507065193e-01 5.72342649565618e-03
8.70350000000000e-01 3.76208490563690e-01 5.56290094823140e-03
8.80650000000000e-01 3.63486726319725e-01 5.40649898523083e-03
8.90950000000000e-01 3.51195157803763e-01 5.25413483176003e-03
9.01250000000000e-01 3.39319237633787e-01 5.10572327955505e-03
9.11550000000000e-01 3.27844910358102e-01 4.96117977735087e-03
9.21850000000000e-01 3.16758595820357e-01 4.82042051251363e-03
9.32150000000000e-01 3.06047173087079e-01 4.68336248456490e-03
9.42450000000000e-01 2.95697964918725e-01 4.54992357118279e-03
9.52750000000000e-01 2.85698722765844e-01 4.42002258722428e-03
9.63050000000000e-01 2.76037612272609e-01 4.29357933727534e-03
9.73350000000000e-01 2.66703199270560e-01 4.17051466220092e-03
9.83650000000000e-01 2.57684436245973e-01 4.05075048013481e-03
9.93950000000000e-01 2.48970649264855e-01 3.93420982231910e-03
1.00425000000000e+00 2.40551525340063e-01 3.82081686417520e-03
1.01455000000000e+00 2.32417100225635e-01 3.71049695196212e-03
1.02485000000000e+00 2.24557746623843e-01 3.60317662535456e-03
1.03515000000000e+00 2.16964162791048e-01 3.49878363624998e-03
1.04545000000000e+00 2.09627361528852e-01 3.39724696409303e-03
1.05575000000000e+00 2.02538659547515e-01 3.29849682798666e-03
1.06605000000000e+00 1.95689667189072e-01 3.20246469584113e-03
1.07635000000000e+00 1.89072278497952e-01 3.10908329079459e-03
1.08665000000000e+00 1.82678661627381e-01 3.01828659512330e-03
1.09695000000000e+00 1.76501249570188e-01 2.93000985184582e-03
1.10725000000000e+00 1.70532731203064e-01 2.84418956421020e-03
1.11755000000000e+00 1.64766042633665e-01 2.76076349324135e-03
1.12785000000000e+00 1.59194358840309e-01 2.67967065351372e-03
1.13815000000000e+00 1.53811085594399e-01 2.60085130730295e-03
1.14845000000000e+00 1.48609851655983e-01 2.52424695725985e-03
1.15875000000000e+00 1.43584501233228e-01 2.44980033774018e-03
1.16905000000000e+00 1.38729086696891e-01 2.37745540491468e-03
1.17935000000000e+00 1.34037861541143e-01 2.30715732577545e-03
1.18965000000000e+00 1.29505273582437e-01 2.23885246614623e-03
1.19995000000000e+00 1.25125958388362e-01 2.17248837779717e-03
1.21025000000000e+00 1.20894732928692e-01 2.10801378475756e-03
1.22055000000000e+00 1.16806589441150e-01 2.04537856891341e-03
1.23085000000000e+00 1.12856689504587e-01 1.98453375497074e-03
1.24115000000000e+00 1.09040358312592e-01 1.92543149485943e-03
1.25145000000000e+00 1.05353079140738e-01 1.86802505164771e-03
1.26175000000000e+00 1.01790488000926e-01 1.81226878303182e-03
1.27205000000000e+00 9.83483684764949e-02 1.75811812446086e-03
1.28235000000000e+00 9.50226467319859e-02 1.70552957195259e-03
1.29265000000000e+00 9.18093866916539e-02 1.65446066465176e-03
1.30295000000000e+00 8.87047853810237e-02 1.60486996717863e-03
1.31325000000000e+00 8.57051684259729e-02 1.55671705181193e-03
1.32355000000000e+00 8.28069857040177e-02 1.50996248054691e-03
1.33385000000000e+00 8.00068071426528e-02 1.46456778706622e-03
1.34415000000000e+00 7.73013186597742e-02 1.42049545865843e-03
1.35445000000000e+00 7.46873182413791e-02 1.37770891811593e-03
1.36475000000000e+00 7.21617121519015e-02 1.33617250564178e-03
1.37505000000000e+00 6.97215112726979e-02 1.29585146079254e-03
1.38535000000000e+00 6.73638275643499e-02 1.25671190448162e-03
1.39565000000000e+00 6.50858706485963e-02 1.21872082106605e-03
1.40595000000000e+00 6.28849445058503e-02 1.18184604053718e-03
1.41625000000000e+00 6.07584442843918e-02 1.14605622083437e-03
1.42655000000000e+00 5.87038532174598e-02 1.11132083029858e-03
1.43685000000000e+00 5.67187396445953e-02 1.07761013028165e-03
1.44715000000000e+00 5.48007541337095e-02 1.04489515792525e-03
1.45745000000000e+00 5.29476267004717e-02 1.01314770912214e-03
1.46775000000000e+00 5.11571641217255e-02 9.82340321671131e-04
1.47805000000000e+00 4.94272473397536e-02 9.52446258636082e-04
1.48835000000000e+00 4.77558289543196e-02 9.23439491917783e-04
1.49865000000000e+00 4.61409307995181e-02 8.95294686046840e-04
1.50895000000000e+00 4.45806416025649e-02 8.67987182204573e-04
1.51925000000000e+00 4.30731147217580e-02 8.41492982478068e-04
1.52955000000000e+00 4.16165659609301e-02 8.15788734354634e-04
1.53985000000000e+00 4.02092714578074e-02 7.90851715460200e-04
1.55015000000000e+00 3.88495656437749e-02 7.66659818545421e-04
1.56045000000000e+00 3.75358392726342e-02 7.43191536722539e-04
1.57075000000000e+00 3.62665375160195e-02 7.20425948955579e-04
1.58105000000000e+00 3.50401581232195e-02 6.98342705805706e-04
1.59135000000000e+00 3.38552496432249e-02 6.76922015433051e-04
1.60165000000000e+00 3.27104097069003e-02 6.56144629856026e-04
1.61195000000000e+00 3.16042833672444e-02 6.35991831468455e-04
1.62225000000000e+00 3.05355614957759e-02 6.16445419814458e-04
1.63255000000000e+00 2.95029792331472e-02 5.97487698620794e-04
1.64285000000000e+00 2.85053144921513e-02 5.79101463085887e-04
1.65315000000000e+00 2.75413865113503e-02 5.61269987424446e-04
1.66345000000000e+00 2.66100544576150e-02 5.43977012666290e-04
1.67375000000000e+00 2.57102160759197e-02 5.27206734707777e-04
1.68405000000000e+00 2.48408063847956e-02 5.10943792613943e-04
1.69435000000000e+00 2.40007964158981e-02 4.95173257169181e-04
1.70465000000000e+00 2.31891919961973e-02 4.79880619674181e-04
1.71495000000000e+00 2.24050325713485e-02 4.65051780986616e-04
1.72525000000000e+00 2.16473900688521e-02 4.50673040802912e-04
1.73555000000000e+00 2.09153677996564e-02 4.36731087178245e-04
1.74585000000000e+00 2.02080993969036e-02 4.23212986281813e-04
1.75615000000000e+00 1.95247477905620e-02 4.10106172384340e-04
1.76645000000000e+00 1.88645042167335e-02 3.97398438074583e-04
1.77675000000000e+00 1.82265872604601e-02 3.85077924701619e-04
1.78705000000000e+00 1.76102419309004e-02 3.73133113039520e-04
1.79735000000000e+00 1.70147387677782e-02 3.61552814171005e-04
1.80765000000000e+00 1.64393729780482e-02 3.50326160586604e-04
1.81795000000000e+00 1.58834636017553e-02 3.39442597495780e-04
1.82825000000000e+00 1.53463527061018e-02 3.28891874346471e-04
1.83855000000000e+00 1.48274046067666e-02 3.18664036549445e-04
1.84885000000000e+00 1.43260051155576e-02 3.08749417403819e-04
1.85915000000000e+00 1.38415608135034e-02 2.99138630220150e-04
1.86945000000000e+00 1.33734983485281e-02 2.89822560637434e-04
1.87975000000000e+00 1.29212637568736e-02 2.80792359130345e-04
1.89005000000000e+00 1.24843218074701e-02 2.72039433703091e-04
1.90035000000000e+00 1.20621553684765e-02 2.63555442766238e-04
1.91065000000000e+00 1.16542647952416e-02 2.55332288192872e-04
1.92095000000000e+00 1.12601673389624e-02 2.47362108550499e-04
1.93125000000000e+00 1.08793965753381e-02 2.39637272505082e-04
1.94155000000000e+00 1.05115018525458e-02 2.32150372393661e-04
1.95185000000000e+00 1.01560477578821e-02 2.24894217961996e-04
1.96215000000000e+00 9.81261360244178e-03 2.17861830263755e-04
1.97245000000000e+00 9.48079292322121e-03 2.11046435717767e-04
1.98275000000000e+00 9.16019300205953e-03 2.04441460319881e-04
1.99305000000000e+00 8.85043440084665e-03 1.98040524006058e-04
2.00335000000000e+00 8.55115051244863e-03 1.91837435163326e-04
2.01365000000000e+00 8.26198712681893e-03 1.85826185285284e-04
2.02395000000000e+00 7.98260201178184e-03 1.80000943768885e-04
2.03425000000000e+00 7.71266450799205e-03 1.74356052849267e-04
2.04455000000000e+00 7.45185513759092e-03 1.68886022669446e-04
2.05485000000000e+00 7.19986522609645e-03 1.63585526481749e-04
2.06515000000000e+00 6.95639653707914e-03 1.58449395977898e-04
2.07545000000000e+00 6.72116091919168e-03 1.53472616744707e-04
2.08575000000000e+00 6.49387996513455e-03 1.48650323842402e-04
2.09605000000000e+00 6.27428468215391e-03 1.43977797502637e-04
2.10635000000000e+00 6.06211517368193e-03 1.39450458943312e-04
2.11665000000000e+00 5.85712033174257e-03 1.35063866297365e-04
2.12695000000000e+00 5.65905753975901e-03 1.30813710652758e-04
2.13725000000000e+00 5.46769238541074e-03 1.26695812200912e-04
2.14755000000000e+00 5.28279838320070e-03 1.22706116490924e-04
2.15785000000000e+00 5.10415670640393e-03 1.18840690786934e-04
2.16815000000000e+00 4.93155592808063e-03 1.15095720526059e-04
2.17845000000000e+00 4.76479177084705e-03 1.11467505874371e-04
2.18875000000000e+00 4.60366686510800e-03 1.07952458378443e-04
2.19905000000000e+00 4.44799051546500e-03 1.04547097710048e-04
2.20935000000000e+00 4.29757847502339e-03 1.01248048501607e-04
2.21965000000000e+00 4.15225272733155e-03 9.80520372700917e-05
2.22995000000000e+00 4.01184127569386e-03 9.49558894270949e-05
2.24025000000000e+00 3.87617793960829e-03 9.19565263728241e-05
2.25055000000000e+00 3.74510215808760e-03 8.90509626718704e-05
2.26085000000000e+00 3.61845879963131e-03 8.62363033085973e-05
2.27115000000000e+00 3.49609797862369e-03 8.35097410200716e-05
2.28145000000000e+00 3.37787487794031e-03 8.08685537045060e-05
2.29175000000000e+00 3.26364957755333e-03 7.83101019032130e-05
2.30205000000000e+00 3.15328688893262e-03 7.58318263541252e-05
2.31235000000000e+00 3.04665619504668e-03 7.34312456149861e-05
2.32265000000000e+00 2.94363129577414e-03 7.11059537543495e-05
2.33295000000000e+00 2.84409025854267e-03 6.88536181085729e-05
2.34325000000000e+00 2.74791527401872e-03 6.66719771030370e-05
2.35355000000000e+00 2.65499251667724e-03 6.45588381358605e-05
2.36385000000000e+00 2.56521201008619e-03 6.25120755224215e-05
2.37415000000000e+00 2.47846749674677e-03 6.05296284990356e-05
2.38445000000000e+00 2.39465631233491e-03 5.86094992841910e-05
2.39475000000000e+00 2.31367926419545e-03 5.67497511957634e-05
2.40505000000000e+00 2.23544051394517e-03 5.49485068226858e-05
2.41535000000000e+00 2.15984746404561e-03 5.32039462495788e-05
2.42565000000000e+00 2.08681064821154e-03 5.15143053328870e-05
2.43595000000000e+00 2.01624362552536e-03 4.98778740271041e-05
2.44625000000000e+00 1.94806287813207e-03 4.82929947596966e-05
2.45655000000000e+00 1.88218771239383e-03 4.67580608533862e-05
2.46685000000000e+00 1.81854016338693e-03 4.52715149944700e-05
2.47715000000000e+00 1.75704490262839e-03 4.38318477459016e-05
2.48745000000000e+00 1.69762914892276e-03 4.24375961038816e-05
2.49775000000000e+00 1.64022258222375e-03 4.10873420967406e-05
2.50805000000000e+00 1.58475726040868e-03 3.97797114249332e-05
2.51835000000000e+00 1.53116753886724e-03 3.85133721409880e-05
2.52865000000000e+00 1.47938999280948e-03 3.72870333682855e-05
2.53895000000000e+00 1.42936334220092e-03 3.60994440575726e-05
2.54925000000000e+00 1.38102837923611e-03 3.49493917801472e-05
2.55955000000000e+00 1.33432789826466e-03 3.38357015566729e-05
2.56985000000000e+00 1.28920662808696e-03 3.27572347206159e-05
2.58015000000000e+00 1.24561116653928e-03 3.17128878153162e-05
2.59045000000000e+00 1.20348991729097e-03 3.07015915237377e-05
2.60075000000000e+00 1.16279302877890e-03 2.97223096299655e-05
2.61105000000000e+00 1.12347233520687e-03 2.87740380115410e-05
2.62135000000000e+00 1.08548129954018e-03 2.78558036617546e-05
2.63165000000000e+00 1.04877495842785e-03 2.69666637410330e-05
2.64195000000000e+00 1.01330986898742e-03 2.61057046565893e-05
2.65225000000000e+00 9.79044057389103e-04 2.52720411695201e-05
2.66255000000000e+00 9.45936969178794e-04 2.44648155285582e-05
2.67285000000000e+00 9.13949421280787e-04 2.36831966297126e-05
2.68315000000000e+00 8.83043555623633e-04 2.29263792010478e-05
2.69345000000000e+00 8.53182794334157e-04 2.21935830118716e-05
2.70375000000000e+00 8.24331796446621e-04 2.14840521056258e-05
2.71405000000000e+00 7.96456416075793e-04 2.07970540557914e-05
2.72435000000000e+00 7.69523662004433e-04 2.01318792441364e-05
2.73465000000000e+00 7.43501658637351e-04 1.94878401606585e-05
2.74495000000000e+00 7.18359608275838e-04 1.88642707245869e-05
2.75525000000000e+00 6.94067754667805e-04 1.82605256258293e-05
2.76555000000000e+00 6.70597347790513e-04 1.76759796862664e-05
2.77585000000000e+00 6.47920609824189e-04 1.71100272403123e-05
2.78615000000000e+00 6.26010702276279e-04 1.65620815341744e-05
2.79645000000000e+00 6.04841694217411e-04 1.60315741432656e-05
2.80675000000000e+00 5.84388531591482e-04 1.55179544072323e-05
2.81705000000000e+00 5.64627007563558e-04 1.50206888820838e-05
2.82735000000000e+00 5.45533733870462e-04 1.45392608089152e-05
2.83765000000000e+00 5.27086113140182e-04 1.40731695987336e-05
2.84795000000000e+00 5.09262312147307e-04 1.36219303329167e-05
2.85825000000000e+00 4.92041235972850e-04 1.31850732788351e-05
2.86855000000000e+00 4.75402503037884e-04 1.27621434201933e-05
2.87885000000000e+00 4.59326420981424e-04 1.23527000016521e-05
2.88915000000000e+00 4.43793963354021e-04 1.19563160873077e-05
2.89945000000000e+00 4.28786747099477e-04 1.15725781326155e-05
2.90975000000000e+00 4.14287010798037e-04 1.12010855693606e-05
2.92005000000000e+00 4.00277593645296e-04 1.08414504032838e-05
2.93035000000000e+00 3.86741915141956e-04 1.04932968239885e-05
2.94065000000000e+00 3.73663955470382e-04 1.01562608267594e-05
2.95095000000000e+00 3.61028236534749e-04 9.82998984593897e-06
2.96125000000000e+00 3.48819803642318e-04 9.51414239951589e-06
2.97155000000000e+00 3.37024207804184e-04 9.20838774458903e-06
2.98185000000000e+00 3.25627488634529e-04 8.91240554338187e-06
2.99215000000000e+00 3.14616157828157e-04 8.62588553949070e-06
3.00245000000000e+00 3.03977183196737e-04 8.34852724405959e-06
3.01275000000000e+00 2.93697973244885e-04 8.08003963158342e-06
3.02305000000000e+00 2.83766362267808e-04 7.82014084505011e-06
3.03335000000000e+00 2.74170595952886e-04 7.56855791014078e-06
3.04365000000000e+00 2.64899317468145e-04 7.32502645821439e-06
3.05395000000000e+00 2.55941554021159e-04 7.08929045781271e-06
3.06425000000000e+00 2.47286703872475e-04 6.86110195442818e-06
3.07455000000000e+00 2.38924523788184e-04 6.64022081828510e-06
3.08485000000000e+00 2.30845116916796e-04 6.42641449989194e-06
3.09515000000000e+00 2.23038921076065e-04 6.21945779313001e-06
3.10545000000000e+00 2.15496697435905e-04 6.01913260564975e-06
3.11575000000000e+00 2.08209519584004e-04 5.82522773635343e-06
3.12605000000000e+00 2.01168762961185e-04 5.63753865974968e-06
3.13635000000000e+00 1.94366094654025e-04 5.45586731697098e-06
3.14665000000000e+00 1.87793463532638e-04 5.28002191325159e-06
3.15695000000000e+00 1.81443090721965e-04 5.10981672167000e-06
3.16725000000000e+00 1.75307460395274e-04 4.94507189296518e-06
3.17755000000000e+00 1.69379310878990e-04 4.78561327124161e-06
3.18785000000000e+00 1.63651626058322e-04 4.63127221538370e-06
3.19815000000000e+00 1.58117627073514e-04 4.48188542600575e-06
3.20845000000000e+00 1.52770764296891e-04 4.33729477776863e-06
3.21875000000000e+00 1.47604709581211e-04 4.19734715689918e-06
3.22905000000000e+00 1.42613348770141e-04 4.06189430375320e-06
3.23935000000000e+00 1.37790774462002e-04 3.93079266026851e-06
3.24965000000000e+00 1.33131279018206e-04 3.80390322215779e-06
