Energy (eV)          EEDF (eV^-(3/2))     First Anisotropy
2.86842105263158e-02 3.86075714295927e-02 1.91911324184038e-05
8.60526315789474e-02 3.83743714585850e-02 3.17008783856277e-05
1.43421052631579e-01 3.81425800777075e-02 4.18775424945342e-05
2.00789473684211e-01 3.79121887782549e-02 4.96263851671996e-05
2.58157894736842e-01 3.76831891033599e-02 5.61035619577412e-05
3.15526315789474e-01 3.74555726472390e-02 6.17456667476776e-05
3.72894736842105e-01 3.72293310548825e-02 6.67783756847970e-05
4.30263157894737e-01 3.70044560217477e-02 7.13378138955704e-05
4.87631578947368e-01 3.67809392934540e-02 7.55141610128234e-05
5.45000000000000e-01 3.65587726654795e-02 7.93710832606830e-05
6.02368421052632e-01 3.63379479824762e-02 8.29556573366781e-05
6.59736842105263e-01 3.61184571391639e-02 8.63039440282436e-05
7.17105263157895e-01 3.59002920787896e-02 8.94443471508089e-05
7.74473684210526e-01 3.56834447932674e-02 9.23997512119245e-05
8.31842105263158e-01 3.54679073228834e-02 9.51889427403544e-05
8.89210526315789e-01 3.52536717560034e-02 9.78275896193538e-05
9.46578947368421e-01 3.50407302287823e-02 1.00328936350311e-04
1.00394736842105e+00 3.48290749248752e-02 1.02704310345451e-04
1.06131578947368e+00 3.46186980749388e-02 1.04963498598221e-04
1.11868421052632e+00 3.44095919571936e-02 1.07115033563774e-04
1.17605263157895e+00 3.42017488960402e-02 1.09166413599221e-04
1.23342105263158e+00 3.39951612622629e-02 1.11124275328826e-04
1.29078947368421e+00 3.37898214727311e-02 1.12994530502917e-04
1.34815789473684e+00 3.35857219901202e-02 1.14782475982546e-04
1.40552631578947e+00 3.33828553211708e-02 1.16492882153029e-04
1.46289473684211e+00 3.31812140208904e-02 1.18130066276609e-04
1.52026315789474e+00 3.29807906877108e-02 1.19697953168382e-04
1.57763157894737e+00 3.27815779647730e-02 1.21200124742668e-04
1.63500000000000e+00 3.25835685396572e-02 1.22639862351637e-04
1.69236842105263e+00 3.23867551441107e-02 1.24020182375276e-04
1.74973684210526e+00 3.21911305537848e-02 1.25343866485205e-04
1.80710526315789e+00 3.19966875879721e-02 1.26613487533937e-04
1.86447368421053e+00 3.18034191093395e-02 1.27831431821626e-04
1.92184210526316e+00 3.16113180236658e-02 1.28999918508287e-04
1.97921052631579e+00 3.14203772786111e-02 1.30121015840606e-04
2.03657894736842e+00 3.12305898664126e-02 1.31196656077449e-04
2.09394736842105e+00 3.10419488206261e-02 1.32228648607434e-04
2.15131578947368e+00 3.08544472168873e-02 1.33218690691036e-04
2.20868421052632e+00 3.06680781726576e-02 1.34168377564402e-04
2.26605263157895e+00 3.04828348469677e-02 1.35079211240328e-04
2.32342105263158e+00 3.02987104401741e-02 1.35952608334896e-04
2.38078947368421e+00 3.01156981937050e-02 1.36789907050015e-04
2.43815789473684e+00 2.99337913898126e-02 1.37592373556419e-04
2.49552631578947e+00 2.97529833505981e-02 1.38361207180821e-04
2.55289473684211e+00 2.95732674399794e-02 1.39097545729285e-04
2.61026315789474e+00 2.93946370612052e-02 1.39802470315587e-04
2.66763157894737e+00 2.92170856573709e-02 1.40477009047822e-04
2.72500000000000e+00 2.90406067111775e-02 1.41122140899524e-04
2.78236842105263e+00 2.88651937446915e-02 1.41738799095748e-04
2.83973684210526e+00 2.86908403191081e-02 1.42327874195617e-04
2.89710526315789e+00 2.85175400345161e-02 1.42890216905337e-04
2.95447368421053e+00 2.83452865296616e-02 1.43426640649372e-04
3.01184210526316e+00 2.81740734817144e-02 1.43937924041505e-04
3.06921052631579e+00 2.80038946054808e-02 1.44424812692651e-04
3.12657894736842e+00 2.78347436548574e-02 1.44888021434173e-04
3.18394736842105e+00 2.76666144208977e-02 1.45328236383618e-04
3.24131578947368e+00 2.74995007321593e-02 1.45746116270903e-04
3.29868421052632e+00 2.73333964544770e-02 1.46142294116931e-04
3.35605263157895e+00 2.71682954907364e-02 1.46517378673578e-04
3.41342105263158e+00 2.70041917806528e-02 1.46871955758273e-04
3.47078947368421e+00 2.68410793005476e-02 1.47206589492709e-04
3.52815789473684e+00 2.66789520631265e-02 1.47521823554891e-04
3.58552631578947e+00 2.65178041168104e-02 1.47818181939944e-04
3.64289473684211e+00 2.63576295468804e-02 1.48096170164445e-04
3.70026315789474e+00 2.61984224738829e-02 1.48356276403772e-04
3.75763157894737e+00 2.60401770538777e-02 1.48598972044416e-04
3.81500000000000e+00 2.58828874782237e-02 1.48824712600828e-04
3.87236842105263e+00 2.57265479733651e-02 1.49033938474046e-04
3.92973684210526e+00 2.55711528006201e-02 1.49227075662237e-04
3.98710526315789e+00 2.54166962559707e-02 1.49404536427474e-04
4.04447368421053e+00 2.52631726698526e-02 1.49566719921519e-04
4.10184210526316e+00 2.51105764069473e-02 1.49714012862798e-04
4.15921052631579e+00 2.49589018656107e-02 1.49846789819833e-04
4.21657894736842e+00 2.48081434787712e-02 1.49965413912939e-04
4.27394736842105e+00 2.46582957126111e-02 1.50070237486409e-04
4.33131578947368e+00 2.45093530667383e-02 1.50161602296350e-04
4.38868421052632e+00 2.43613100739849e-02 1.50239840039737e-04
4.44605263157895e+00 2.42141613002055e-02 1.50305272766617e-04
4.50342105263158e+00 2.40679013440788e-02 1.50358213270095e-04
4.56078947368421e+00 2.39225248369093e-02 1.50398965455751e-04
4.61815789473684e+00 2.37780264424299e-02 1.50427824770707e-04
4.67552631578947e+00 2.36344008562987e-02 1.50445078293956e-04
4.73289473684210e+00 2.34916428068340e-02 1.50451005212203e-04
4.79026315789474e+00 2.33497470538831e-02 1.50445877280358e-04
4.84763157894737e+00 2.32087083889450e-02 1.50429958859209e-04
4.90500000000000e+00 2.30685216349799e-02 1.50403507266886e-04
4.96236842105263e+00 2.29291816462181e-02 1.50366773034659e-04
5.01973684210526e+00 2.27906833079719e-02 1.50320000150299e-04
5.07710526315789e+00 2.26530215364480e-02 1.50263426290051e-04
5.13447368421053e+00 2.25161912785605e-02 1.50197283039596e-04
5.19184210526316e+00 2.23801875117458e-02 1.50121796175336e-04
5.24921052631579e+00 2.22450052435204e-02 1.50037185651699e-04
5.30657894736842e+00 2.21106395120761e-02 1.49943665936267e-04
5.36394736842105e+00 2.19770853853132e-02 1.49841446336986e-04
5.42131578947368e+00 2.18443379609232e-02 1.49730730959572e-04
5.47868421052632e+00 2.17123923662090e-02 1.49611718947938e-04
5.53605263157895e+00 2.15812437579055e-02 1.49484604644016e-04
5.59342105263158e+00 2.14508873220026e-02 1.49349577740932e-04
5.65078947368421e+00 2.13213182735680e-02 1.49206823429924e-04
5.70815789473684e+00 2.11925318565720e-02 1.49056522604706e-04
5.76552631578947e+00 2.10645233434905e-02 1.48898851803088e-04
5.82289473684211e+00 2.09372880358025e-02 1.48733983465680e-04
5.88026315789474e+00 2.08108212631417e-02 1.48562086190063e-04
5.93763157894737e+00 2.06851183833518e-02 1.48383324653094e-04
5.99500000000000e+00 2.05601747823167e-02 1.48197859791125e-04
6.05236842105263e+00 2.04359858737905e-02 1.48005848909669e-04
6.10973684210526e+00 2.03125470992293e-02 1.47807445788790e-04
6.16710526315789e+00 2.01898539276245e-02 1.47602800784598e-04
6.22447368421053e+00 2.00679018553359e-02 1.47392060926818e-04
6.28184210526316e+00 1.99466864059263e-02 1.47175370069962e-04
6.33921052631579e+00 1.98262031298082e-02 1.46952868810570e-04
6.39657894736842e+00 1.97064476046526e-02 1.46724694690333e-04
6.45394736842105e+00 1.95874154346504e-02 1.46490982396740e-04
6.51131578947368e+00 1.94691022505437e-02 1.46251863667598e-04
6.56868421052632e+00 1.93515037094667e-02 1.46007467428101e-04
6.62605263157895e+00 1.92346154947849e-02 1.45757919865819e-04
6.68342105263158e+00 1.91184333159382e-02 1.45503344503204e-04
6.74078947368421e+00 1.90029529082822e-02 1.45243862267662e-04
6.79815789473684e+00 1.88881700329324e-02 1.44979591611310e-04
6.85552631578947e+00 1.87740804764420e-02 1.44710648418526e-04
6.91289473684211e+00 1.86606800511495e-02 1.44437146174671e-04
6.97026315789474e+00 1.85479645945191e-02 1.44159196133435e-04
7.02763157894737e+00 1.84359299691580e-02 1.43876907215186e-04
7.08500000000000e+00 1.83245720626642e-02 1.43590386117756e-04
7.14236842105263e+00 1.82138867874758e-02 1.43299737371500e-04
7.19973684210526e+00 1.81038700807206e-02 1.43005063392527e-04
7.25710526315789e+00 1.79945179040677e-02 1.42706464534355e-04
7.31447368421053e+00 1.78858262435785e-02 1.42404039137893e-04
7.37184210526316e+00 1.77777911095598e-02 1.42097883627009e-04
7.42921052631579e+00 1.76704085362730e-02 1.41788092412909e-04
7.48657894736842e+00 1.75636745822241e-02 1.41474758035046e-04
7.54394736842105e+00 1.74575853295806e-02 1.41157971301301e-04
7.60131578947368e+00 1.73521368841745e-02 1.40837821185583e-04
7.65868421052632e+00 1.72473253753597e-02 1.40514394917942e-04
7.71605263157895e+00 1.71431469558697e-02 1.40187778024589e-04
7.77342105263158e+00 1.70395978016769e-02 1.39858054366818e-04
7.83078947368421e+00 1.69366741118514e-02 1.39525306178948e-04
7.88815789473684e+00 1.68343721084223e-02 1.39189614148190e-04
7.94552631578947e+00 1.67326880361108e-02 1.38851057319795e-04
8.00289473684211e+00 1.66316181625783e-02 1.38509713219106e-04
8.06026315789474e+00 1.65311587779009e-02 1.38165657973286e-04
8.11763157894737e+00 1.64313061945636e-02 1.37818966211116e-04
8.17500000000000e+00 1.63320567473251e-02 1.37469711139300e-04
8.23236842105263e+00 1.62334067930830e-02 1.37117964573327e-04
8.28973684210526e+00 1.61353527107401e-02 1.36763796967396e-04
8.34710526315789e+00 1.60378909010719e-02 1.36407277443677e-04
8.40447368421053e+00 1.59410177865940e-02 1.36048473820678e-04
8.46184210526316e+00 1.58447298114310e-02 1.35687452680161e-04
8.51921052631579e+00 1.57490234410741e-02 1.35324279275501e-04
8.57657894736842e+00 1.56538951625891e-02 1.34959017637212e-04
8.63394736842105e+00 1.55593414841475e-02 1.34591730678457e-04
8.69131578947368e+00 1.54653589350124e-02 1.34222480099214e-04
8.74868421052632e+00 1.53719440654110e-02 1.33851326450902e-04
8.80605263157895e+00 1.52790934464080e-02 1.33478329159799e-04
8.86342105263158e+00 1.51868036697798e-02 1.33103546549971e-04
8.92078947368421e+00 1.50950713478895e-02 1.32727035865687e-04
8.97815789473684e+00 1.50038931135623e-02 1.32348853329281e-04
9.03552631578947e+00 1.49132656198622e-02 1.31969054053376e-04
9.09289473684210e+00 1.48231855402707e-02 1.31587692134561e-04
9.15026315789474e+00 1.47336495682613e-02 1.31204820747158e-04
9.20763157894737e+00 1.46446544172796e-02 1.30820492051973e-04
9.26500000000000e+00 1.45561968206228e-02 1.30434757252702e-04
9.32236842105263e+00 1.44682735313201e-02 1.30047666614603e-04
9.37973684210526e+00 1.43808813220129e-02 1.29659269482732e-04
9.43710526315789e+00 1.42940169848370e-02 1.29269614299819e-04
9.49447368421053e+00 1.42076773313046e-02 1.28878748623681e-04
9.55184210526316e+00 1.41218591921870e-02 1.28486719177138e-04
9.60921052631579e+00 1.40365594173101e-02 1.28093571765204e-04
9.66657894736842e+00 1.39517748757060e-02 1.27699351357872e-04
9.72394736842105e+00 1.38675024552286e-02 1.27304102173046e-04
9.78131578947368e+00 1.37837390625305e-02 1.26907867590851e-04
9.83868421052632e+00 1.37004816229485e-02 1.26510690202639e-04
9.89605263157895e+00 1.36177270803914e-02 1.26112611825683e-04
9.95342105263158e+00 1.35354723972276e-02 1.25713673517614e-04
1.00107894736842e+01 1.34537145541735e-02 1.25313915652114e-04
1.00681578947368e+01 1.33724505500216e-02 1.24913377686041e-04
1.01255263157895e+01 1.32916774021764e-02 1.24512098421005e-04
1.01828947368421e+01 1.32113921457307e-02 1.24110116140364e-04
1.02402631578947e+01 1.31315918336873e-02 1.23707468604148e-04
1.02976315789474e+01 1.30522735360828e-02 1.23304192296505e-04
1.03550000000000e+01 1.29734343421954e-02 1.22900323035849e-04
1.04123684210526e+01 1.28950713581073e-02 1.22495896589214e-04
1.04697368421053e+01 1.28171817073806e-02 1.22090948061068e-04
1.05271052631579e+01 1.27397625302198e-02 1.21685511347202e-04
1.05844736842105e+01 1.26628109855790e-02 1.21279619724272e-04
1.06418421052632e+01 1.25863242488301e-02 1.20873306443401e-04
1.06992105263158e+01 1.25102995124057e-02 1.20466603862289e-04
1.07565789473684e+01 1.24347339856979e-02 1.20059544023529e-04
1.08139473684211e+01 1.23596248942626e-02 1.19652157840356e-04
1.08713157894737e+01 1.22849694818077e-02 1.19244475659594e-04
1.09286842105263e+01 1.22107650079884e-02 1.18836527829209e-04
1.09860526315789e+01 1.21370087490114e-02 1.18428343867079e-04
1.10434210526316e+01 1.20636979975370e-02 1.18019953014006e-04
1.11007894736842e+01 1.19908300619250e-02 1.17611383454002e-04
1.11581578947368e+01 1.19184022681092e-02 1.17202662852280e-04
1.12155263157895e+01 1.18464119575130e-02 1.16793818897707e-04
1.12728947368421e+01 1.17748564876180e-02 1.16384878506960e-04
1.13302631578947e+01 1.17037332318681e-02 1.15975868353614e-04
1.13876315789474e+01 1.16330395789544e-02 1.15566814120756e-04
1.14450000000000e+01 1.15627729345848e-02 1.15157741015742e-04
1.15023684210526e+01 1.14929307195110e-02 1.14748674288836e-04
1.15597368421053e+01 1.14235103700643e-02 1.14339638713627e-04
1.16171052631579e+01 1.13545093374696e-02 1.13930658121469e-04
1.16744736842105e+01 1.12859250895388e-02 1.13521755899442e-04
1.17318421052632e+01 1.12177551087790e-02 1.13112955492051e-04
1.17892105263158e+01 1.11499968929033e-02 1.12704279663401e-04
1.18465789473684e+01 1.10826479547399e-02 1.12295750986231e-04
1.19039473684211e+01 1.10157058215800e-02 1.11887391148561e-04
1.19613157894737e+01 1.09491680367782e-02 1.11479221430035e-04
1.20186842105263e+01 1.08830321579604e-02 1.11071263182343e-04
1.20760526315789e+01 1.08172957575047e-02 1.10663537121819e-04
1.21334210526316e+01 1.07519564224534e-02 1.10256063797820e-04
1.21907894736842e+01 1.06870117538932e-02 1.09848862928108e-04
1.22481578947368e+01 1.06224593684684e-02 1.09441953854760e-04
1.23055263157895e+01 1.05582968966823e-02 1.09035356004082e-04
1.23628947368421e+01 1.04945219833501e-02 1.08629088208604e-04
1.24202631578947e+01 1.04311322875138e-02 1.08223169155812e-04
1.24776315789474e+01 1.03681254818526e-02 1.07817616750517e-04
1.25350000000000e+01 1.03054992541148e-02 1.07412448551713e-04
1.25923684210526e+01 1.02432513055062e-02 1.07007682212916e-04
1.26497368421053e+01 1.01813793511179e-02 1.06603335038890e-04
1.27071052631579e+01 1.01198811193608e-02 1.06199423587536e-04
1.27644736842105e+01 1.00587543533370e-02 1.05795964092892e-04
1.28218421052632e+01 9.99799680929269e-03 1.05392972891482e-04
1.28792105263158e+01 9.93760625702666e-03 1.04990465792681e-04
1.29365789473684e+01 9.87758047980901e-03 1.04588458494520e-04
1.29939473684211e+01 9.81791727384237e-03 1.04186965991202e-04
1.30513157894737e+01 9.75861444956097e-03 1.03786002978264e-04
1.31086842105263e+01 9.69966983016181e-03 1.03385584261381e-04
1.31660526315789e+01 9.64108125198982e-03 1.02985724152145e-04
1.32234210526316e+01 9.58284656445963e-03 1.02586436866761e-04
1.32807894736842e+01 9.52496362954212e-03 1.02187735957615e-04
1.33381578947368e+01 9.46743032299533e-03 1.01789634701580e-04
1.33955263157895e+01 9.41024453296913e-03 1.01392146491823e-04
1.34528947368421e+01 9.35340416036930e-03 1.00995284258149e-04
1.35102631578947e+01 9.29690711878115e-03 1.00599060849435e-04
1.35676315789474e+01 9.24075133398063e-03 1.00203488487820e-04
1.36250000000000e+01 9.18493474510117e-03 9.98085791411963e-05
1.36823684210526e+01 9.12945530330739e-03 9.94143448987946e-05
1.37397368421053e+01 9.07431097213947e-03 9.90207975917830e-05
1.37971052631579e+01 9.01949972704291e-03 9.86279484518759e-05
1.38544736842105e+01 8.96501955648812e-03 9.82358084722517e-05
1.39118421052632e+01 8.91086846069534e-03 9.78443887714882e-05
1.39692105263158e+01 8.85704445196370e-03 9.74537000544728e-05
1.40265789473684e+01 8.80354555459883e-03 9.70637529674505e-05
1.40839473684211e+01 8.75036980446428e-03 9.66745575901871e-05
1.41413157894737e+01 8.69751525004374e-03 9.62861237820512e-05
1.41986842105263e+01 8.64497995122832e-03 9.58984615312960e-05
1.42560526315789e+01 8.59276197962744e-03 9.55115804373513e-05
1.43134210526316e+01 8.54085941849905e-03 9.51254900515997e-05
1.43707894736842e+01 8.48927036232136e-03 9.47401993897496e-05
1.44281578947368e+01 8.43799291780123e-03 9.43557172638693e-05
1.44855263157895e+01 8.38702520271998e-03 9.39720526174883e-05
1.45428947368421e+01 8.33636534622783e-03 9.35892140285249e-05
1.46002631578947e+01 8.28601148877583e-03 9.32072100364821e-05
1.46576315789474e+01 8.23596178170740e-03 9.28260486738912e-05
1.47150000000000e+01 8.18621438821574e-03 9.24457377851061e-05
1.47723684210526e+01 8.13676748224504e-03 9.20662853478661e-05
1.48297368421053e+01 8.08761924876938e-03 9.16876991476366e-05
1.48871052631579e+01 8.03876788339948e-03 9.13099864841077e-05
1.49444736842105e+01 7.99021159330237e-03 9.09331544802731e-05
1.50018421052632e+01 7.94194859614377e-03 9.05572103941868e-05
1.50592105263158e+01 7.89397712035492e-03 9.01821611561050e-05
1.51165789473684e+01 7.84629540506803e-03 8.98080136727097e-05
1.51739473684211e+01 7.79890169974054e-03 8.94347743906317e-05
1.52313157894737e+01 7.75179426502904e-03 8.90624495931089e-05
1.52886842105263e+01 7.70497137178182e-03 8.86910456994511e-05
1.53460526315789e+01 7.65843130129133e-03 8.83205688201962e-05
1.54034210526316e+01 7.61217234523187e-03 8.79510250493729e-05
1.54607894736842e+01 7.56619280530050e-03 8.75824200451005e-05
1.55181578947368e+01 7.52049099404774e-03 8.72147593144288e-05
1.55755263157895e+01 7.47506523391742e-03 8.68480485009259e-05
1.56328947368421e+01 7.42991385748610e-03 8.64822929572481e-05
1.56902631578947e+01 7.38503520740230e-03 8.61174980259597e-05
1.57476315789474e+01 7.34042763604353e-03 8.57536686362959e-05
1.58050000000000e+01 7.29608950630618e-03 8.53908095778701e-05
1.58623684210526e+01 7.25201919069010e-03 8.50289257768340e-05
1.59197368421053e+01 7.20821507152568e-03 8.46680220156429e-05
1.59771052631579e+01 7.16467554064325e-03 8.43081026801429e-05
1.60344736842105e+01 7.12139900013264e-03 8.39491720250726e-05
1.60918421052632e+01 7.07838386146116e-03 8.35912344419382e-05
1.61492105263158e+01 7.03562854569106e-03 8.32342940605765e-05
1.62065789473684e+01 6.99313148342197e-03 8.28783550106218e-05
1.62639473684211e+01 6.95089111447464e-03 8.25234210454643e-05
1.63213157894737e+01 6.90890588861363e-03 8.21694957972840e-05
1.63786842105263e+01 6.86717426470598e-03 8.18165830345500e-05
1.64360526315789e+01 6.82569471092733e-03 8.14646862788372e-05
1.64934210526316e+01 6.78446570470624e-03 8.11138090562043e-05
1.65507894736842e+01 6.74348573242161e-03 8.07639545356555e-05
1.66081578947368e+01 6.70275329009047e-03 8.04151257741806e-05
1.66655263157895e+01 6.66226688256521e-03 8.00673259642048e-05
1.67228947368421e+01 6.62202502372918e-03 7.97205580651971e-05
1.67802631578947e+01 6.58202623644249e-03 7.93748250453686e-05
1.68376315789474e+01 6.54226905225265e-03 7.90301295338577e-05
1.68950000000000e+01 6.50275201204935e-03 7.86864740563596e-05
1.69523684210526e+01 6.46347366529818e-03 7.83438612729152e-05
1.70097368421053e+01 6.42443257022634e-03 7.80022937362161e-05
1.70671052631579e+01 6.38562729354344e-03 7.76617736732365e-05
1.71244736842105e+01 6.34705641107178e-03 7.73223032138956e-05
1.71818421052632e+01 6.30871850700724e-03 7.69838846218066e-05
1.72392105263158e+01 6.27061217409742e-03 7.66465199505453e-05
1.72965789473684e+01 6.23273601359019e-03 7.63102112689357e-05
1.73539473684210e+01 6.19508863496637e-03 7.59749603363857e-05
1.74113157894737e+01 6.15766865654009e-03 7.56407688226856e-05
1.74686842105263e+01 6.12047470475299e-03 7.53076385299567e-05
1.75260526315789e+01 6.08350541434316e-03 7.49755710619068e-05
1.75834210526316e+01 6.04675942829548e-03 7.46445680405504e-05
1.76407894736842e+01 6.01023539758553e-03 7.43146307938924e-05
1.76981578947368e+01 5.97393198175158e-03 7.39857605672483e-05
1.77555263157895e+01 5.93784784822041e-03 7.36579587366717e-05
1.78128947368421e+01 5.90198167246781e-03 7.33312264907985e-05
1.78702631578947e+01 5.86633213797021e-03 7.30055650393250e-05
1.79276315789474e+01 5.83089793595956e-03 7.26809753124163e-05
1.79850000000000e+01 5.79567776596843e-03 7.23574581640287e-05
1.80423684210526e+01 5.76067033518581e-03 7.20350145771251e-05
1.80997368421053e+01 5.72587435860961e-03 7.17136454548145e-05
