Energy (eV)          EEDF (eV^-(3/2))     First Anisotropy
4.22972972972973e-02 4.11050308050707e-02 2.53069149218067e-05
1.26891891891892e-01 4.07234891322516e-02 4.17352705554438e-05
2.11486486486486e-01 4.03454889739435e-02 5.49533707651397e-05
2.96081081081081e-01 3.99709974563015e-02 6.49093113637162e-05
3.80675675675676e-01 3.95999820132226e-02 7.31418609307600e-05
4.65270270270270e-01 3.92324103782276e-02 8.02348909558172e-05
5.49864864864865e-01 3.88682505855396e-02 8.64915826955404e-05
6.34459459459459e-01 3.85074709668081e-02 9.20956252620957e-05
7.19054054054054e-01 3.81500401461947e-02 9.71692424677851e-05
8.03648648648649e-01 3.77959270402861e-02 1.01799098936627e-04
8.88243243243243e-01 3.74451008532043e-02 1.06049553992900e-04
9.72837837837838e-01 3.70975310754019e-02 1.09970118287630e-04
1.05743243243243e+00 3.67531874791032e-02 1.13599954837852e-04
1.14202702702703e+00 3.64120401217412e-02 1.16970749395769e-04
1.22662162162162e+00 3.60740593350463e-02 1.20108622129629e-04
1.31121621621622e+00 3.57392157238294e-02 1.23035445456200e-04
1.39581081081081e+00 3.54074801710387e-02 1.25769783171735e-04
1.48040540540541e+00 3.50788238249345e-02 1.28327574536905e-04
1.56500000000000e+00 3.47532181062278e-02 1.30722644338551e-04
1.64959459459459e+00 3.44306346965295e-02 1.32967090555648e-04
1.73418918918919e+00 3.41110455444300e-02 1.35071583734808e-04
1.81878378378378e+00 3.37944228549933e-02 1.37045601835479e-04
1.90337837837838e+00 3.34807390949743e-02 1.38897616694305e-04
1.98797297297297e+00 3.31699669831853e-02 1.40635244035525e-04
2.07256756756757e+00 3.28620794950011e-02 1.42265365095296e-04
2.15716216216216e+00 3.25570498548985e-02 1.43794227315402e-04
2.24175675675676e+00 3.22548515346109e-02 1.45227526057815e-04
2.32635135135135e+00 3.19554582548398e-02 1.46570474343673e-04
2.41094594594595e+00 3.16588439775982e-02 1.47827860782851e-04
2.49554054054054e+00 3.13649829090961e-02 1.49004098693151e-04
2.58013513513513e+00 3.10738494925531e-02 1.50103268022996e-04
2.66472972972973e+00 3.07854184107268e-02 1.51129151210850e-04
2.74932432432432e+00 3.04996645791424e-02 1.52085264157432e-04
2.83391891891892e+00 3.02165631483089e-02 1.52974882988075e-04
2.91851351351351e+00 2.99360894973215e-02 1.53801067412207e-04
3.00310810810811e+00 2.96582192358049e-02 1.54566681084433e-04
3.08770270270270e+00 2.93829281978521e-02 1.55274409544635e-04
3.17229729729730e+00 2.91101924437262e-02 1.55926775854188e-04
3.25689189189189e+00 2.88399882549406e-02 1.56526155075762e-04
3.34148648648649e+00 2.85722921323933e-02 1.57074785935847e-04
3.42608108108108e+00 2.83070807967200e-02 1.57574782363542e-04
3.51067567567568e+00 2.80443311830715e-02 1.58028143270574e-04
3.59527027027027e+00 2.77840204422077e-02 1.58436761386166e-04
3.67986486486486e+00 2.75261259355047e-02 1.58802431249302e-04
3.76445945945946e+00 2.72706252359019e-02 1.59126856368283e-04
3.84905405405405e+00 2.70174961231221e-02 1.59411655739014e-04
3.93364864864865e+00 2.67667165844860e-02 1.59658369707625e-04
4.01824324324324e+00 2.65182648103300e-02 1.59868465340208e-04
4.10283783783784e+00 2.62721191947020e-02 1.60043341269047e-04
4.18743243243243e+00 2.60282583309623e-02 1.60184332156960e-04
4.27202702702703e+00 2.57866610123718e-02 1.60292712646593e-04
4.35662162162162e+00 2.55473062284188e-02 1.60369701469879e-04
4.44121621621622e+00 2.53101731630926e-02 1.60416464297735e-04
4.52581081081081e+00 2.50752411946748e-02 1.60434117251757e-04
4.61040540540541e+00 2.48424898918122e-02 1.60423729720336e-04
4.69500000000000e+00 2.46118990138189e-02 1.60386327012149e-04
4.77959459459459e+00 2.43834485068899e-02 1.60322892843642e-04
4.86418918918919e+00 2.41571185043326e-02 1.60234371608071e-04
4.94878378378378e+00 2.39328893229124e-02 1.60121670512803e-04
5.03337837837838e+00 2.37107414630205e-02 1.59985661531329e-04
5.11797297297297e+00 2.34906556051443e-02 1.59827183250626e-04
5.20256756756757e+00 2.32726126099767e-02 1.59647042485230e-04
5.28716216216216e+00 2.30565935154144e-02 1.59446016182020e-04
5.37175675675676e+00 2.28425795349732e-02 1.59224852442431e-04
5.45635135135135e+00 2.26305520573465e-02 1.58984272211061e-04
5.54094594594595e+00 2.24204926431993e-02 1.58724970509375e-04
5.62554054054054e+00 2.22123830251157e-02 1.58447617637941e-04
5.71013513513514e+00 2.20062051044941e-02 1.58152860331466e-04
5.79472972972973e+00 2.18019409514553e-02 1.57841322816574e-04
5.87932432432432e+00 2.15995728018344e-02 1.57513607832467e-04
5.96391891891892e+00 2.13990830570528e-02 1.57170297565419e-04
6.04851351351351e+00 2.12004542812018e-02 1.56811954554464e-04
6.13310810810811e+00 2.10036692008822e-02 1.56439122520136e-04
6.21770270270270e+00 2.08087107023753e-02 1.56052327171251e-04
6.30229729729730e+00 2.06155618314532e-02 1.55652076882502e-04
6.38689189189189e+00 2.04242057909330e-02 1.55238863656816e-04
6.47148648648649e+00 2.02346259392583e-02 1.54813163424464e-04
6.55608108108108e+00 2.00468057899292e-02 1.54375436921189e-04
6.64067567567568e+00 1.98607290088996e-02 1.53926130237730e-04
6.72527027027027e+00 1.96763794143020e-02 1.53465675379769e-04
6.80986486486486e+00 1.94937409739184e-02 1.52994490820753e-04
6.89445945945946e+00 1.93127978048847e-02 1.52512982005963e-04
6.97905405405405e+00 1.91335341712333e-02 1.52021541852333e-04
7.06364864864865e+00 1.89559344835794e-02 1.51520551203477e-04
7.14824324324324e+00 1.87799832967309e-02 1.51010379282916e-04
7.23283783783784e+00 1.86056653093595e-02 1.50491384105921e-04
7.31743243243243e+00 1.84329653616759e-02 1.49963912891598e-04
7.40202702702703e+00 1.82618684350856e-02 1.49428302387371e-04
7.48662162162162e+00 1.80923596501542e-02 1.48884879441885e-04
7.57121621621622e+00 1.79244242653421e-02 1.48333961050541e-04
7.65581081081081e+00 1.77580476763874e-02 1.47775854887917e-04
7.74040540540541e+00 1.75932154141499e-02 1.47210859583776e-04
7.82500000000000e+00 1.74299131442220e-02 1.46639265019486e-04
7.90959459459459e+00 1.72681266648295e-02 1.46061352628825e-04
7.99418918918919e+00 1.71078419064332e-02 1.45477395669080e-04
8.07878378378378e+00 1.69490449296839e-02 1.44887659497378e-04
8.16337837837838e+00 1.67917219250168e-02 1.44292401819195e-04
8.24797297297297e+00 1.66358592106587e-02 1.43691872942762e-04
8.33256756756757e+00 1.64814432322152e-02 1.43086315965415e-04
8.41716216216216e+00 1.63284605609109e-02 1.42475967175913e-04
8.50175675675676e+00 1.61768978924426e-02 1.41861056014145e-04
8.58635135135135e+00 1.60267420463560e-02 1.41241805448929e-04
8.67094594594595e+00 1.58779799641889e-02 1.40618432142335e-04
8.75554054054054e+00 1.57305987090335e-02 1.39991146635638e-04
8.84013513513514e+00 1.55845854637258e-02 1.39360153542463e-04
8.92472972972973e+00 1.54399275304041e-02 1.38725651720541e-04
9.00932432432432e+00 1.52966123287436e-02 1.38087834450982e-04
9.09391891891892e+00 1.51546273955123e-02 1.37446889597194e-04
9.17851351351351e+00 1.50139603828479e-02 1.36802999771500e-04
9.26310810810811e+00 1.48745990578124e-02 1.36156342482393e-04
9.34770270270270e+00 1.47365313007108e-02 1.35507090289658e-04
9.43229729729730e+00 1.45997451046436e-02 1.34855410906153e-04
9.51689189189189e+00 1.44642285740091e-02 1.34201467482089e-04
9.60148648648649e+00 1.43299699234841e-02 1.33545418523460e-04
9.68608108108108e+00 1.41969574774184e-02 1.32887418161287e-04
9.77067567567568e+00 1.40651796682610e-02 1.32227616245230e-04
9.85527027027027e+00 1.39346250361031e-02 1.31566158457643e-04
9.93986486486486e+00 1.38052822271419e-02 1.30903186435525e-04
1.00244594594595e+01 1.36771399932235e-02 1.30238838004127e-04
1.01090540540541e+01 1.35501871898397e-02 1.29573246937658e-04
1.01936486486486e+01 1.34244127770728e-02 1.28906542913792e-04
1.02782432432432e+01 1.32998058181752e-02 1.28238852907466e-04
1.03628378378378e+01 1.31763554754773e-02 1.27570300236679e-04
1.04474324324324e+01 1.30540510131356e-02 1.26901004156626e-04
1.05320270270270e+01 1.29328817949578e-02 1.26231080907220e-04
1.06166216216216e+01 1.28128372834777e-02 1.25560643481314e-04
1.07012162162162e+01 1.26939070390395e-02 1.24889801711032e-04
1.07858108108108e+01 1.25760807188890e-02 1.24218662351417e-04
1.08704054054054e+01 1.24593480762748e-02 1.23547329161499e-04
1.09550000000000e+01 1.23436989595568e-02 1.22875902982959e-04
1.10395945945946e+01 1.22291233113234e-02 1.22204481816229e-04
1.11241891891892e+01 1.21156111675170e-02 1.21533160894233e-04
1.12087837837838e+01 1.20031526565677e-02 1.20862032754261e-04
1.12933783783784e+01 1.18917379985347e-02 1.20191187307607e-04
1.13779729729730e+01 1.17813575042557e-02 1.19520711906980e-04
1.14625675675676e+01 1.16720015745042e-02 1.18850691412039e-04
1.15471621621622e+01 1.15636606991548e-02 1.18181208253003e-04
1.16317567567568e+01 1.14563254563562e-02 1.17512342492430e-04
1.17163513513514e+01 1.13499865117118e-02 1.16844171642328e-04
1.18009459459459e+01 1.12446346183572e-02 1.16176771456386e-04
1.18855405405405e+01 1.11402606134655e-02 1.15510215494818e-04
1.19701351351351e+01 1.10368554201643e-02 1.14844574679815e-04
1.20547297297297e+01 1.09344100458332e-02 1.14179918102304e-04
1.21393243243243e+01 1.08329155813226e-02 1.13516312821004e-04
1.22239189189189e+01 1.07323632001786e-02 1.12853823913008e-04
1.23085135135135e+01 1.06327441578755e-02 1.12192514522977e-04
1.23931081081081e+01 1.05340497910550e-02 1.11532445910945e-04
1.24777027027027e+01 1.04362715167733e-02 1.10873677498853e-04
1.25622972972973e+01 1.03394008317543e-02 1.10216266915942e-04
1.26468918918919e+01 1.02434293116500e-02 1.09560270042555e-04
1.27314864864865e+01 1.01483486103084e-02 1.08905741053026e-04
1.28160810810811e+01 1.00541504590475e-02 1.08252732457661e-04
1.29006756756757e+01 9.96082666593611e-03 1.07601295143229e-04
1.29852702702703e+01 9.86836911508154e-03 1.06951478412522e-04
1.30698648648649e+01 9.77676976592363e-03 1.06303330022882e-04
1.31544594594595e+01 9.68602065253564e-03 1.05656896223715e-04
1.32390540540541e+01 9.59611388293145e-03 1.05012221793044e-04
1.33236486486486e+01 9.50704163837924e-03 1.04369349882229e-04
1.34082432432432e+01 9.41879617337709e-03 1.03728322627341e-04
1.34928378378378e+01 9.33136981299676e-03 1.03089180796650e-04
1.35774324324324e+01 9.24475495421511e-03 1.02451963430969e-04
1.36620270270270e+01 9.15894406458112e-03 1.01816708467546e-04
1.37466216216216e+01 9.07392968156084e-03 1.01183452572674e-04
1.38312162162162e+01 8.98970441188838e-03 1.00552231172214e-04
1.39158108108108e+01 8.90626093092298e-03 9.99230784813419e-05
1.40004054054054e+01 8.82359198201202e-03 9.92960275335558e-05
1.40850000000000e+01 8.74169037585995e-03 9.86711102090112e-05
1.41695945945946e+01 8.66054898990292e-03 9.80483572620683e-05
1.42541891891892e+01 8.58016076768955e-03 9.74277983481257e-05
1.43387837837838e+01 8.50051871826737e-03 9.68094620499695e-05
1.44233783783784e+01 8.42161591557470e-03 9.61933759034213e-05
1.45079729729730e+01 8.34344549783837e-03 9.55795664222909e-05
1.45925675675676e+01 8.26600066697696e-03 9.49680591227705e-05
1.46771621621622e+01 8.18927468800960e-03 9.43588785472353e-05
1.47617567567568e+01 8.11326088847028e-03 9.37520482874712e-05
1.48463513513514e+01 8.03795265782757e-03 9.31475908544820e-05
1.49309459459459e+01 7.96334344740718e-03 9.25455281624321e-05
1.50155405405405e+01 7.88942676831830e-03 9.19458812409526e-05
1.51001351351351e+01 7.81619619240548e-03 9.13486699418164e-05
1.51847297297297e+01 7.74364535118013e-03 9.07539134333865e-05
1.52693243243243e+01 7.67176793526669e-03 9.01616300616649e-05
1.53539189189189e+01 7.60055769385394e-03 8.95718373699309e-05
1.54385135135135e+01 7.53000843415138e-03 8.89845521179217e-05
1.55231081081081e+01 7.46011402085072e-03 8.83997903005669e-05
1.56077027027027e+01 7.39086837559228e-03 8.78175671662925e-05
1.56922972972973e+01 7.32226547643641e-03 8.72378972349617e-05
1.57768918918919e+01 7.25429935733958e-03 8.66607943152057e-05
1.58614864864865e+01 7.18696410763597e-03 8.60862715214894e-05
1.59460810810811e+01 7.12025387152321e-03 8.55143412909090e-05
1.60306756756757e+01 7.05416284755318e-03 8.49450153994181e-05
1.61152702702703e+01 6.98868528812743e-03 8.43783049777287e-05
1.61998648648649e+01 6.92381549899739e-03 8.38142205268774e-05
1.62844594594595e+01 6.85954783876915e-03 8.32527719334246e-05
1.63690540540541e+01 6.79587671841284e-03 8.26939684842953e-05
1.64536486486486e+01 6.73279660077663e-03 8.21378187596433e-05
1.65382432432432e+01 6.67030200048128e-03 8.15843310145645e-05
1.66228378378378e+01 6.60838748230596e-03 8.10335129468469e-05
1.67074324324324e+01 6.54704766186163e-03 8.04853714602827e-05
1.67920270270270e+01 6.48627720473776e-03 7.99399130550079e-05
1.68766216216216e+01 6.42607082603842e-03 7.93971437138800e-05
1.69612162162162e+01 6.36642328992269e-03 7.88570689151568e-05
1.70458108108108e+01 6.30732940914932e-03 7.83196936448749e-05
1.71304054054054e+01 6.24878404462562e-03 7.77850224089586e-05
1.72150000000000e+01 6.19078210496056e-03 7.72530592450964e-05
1.72995945945946e+01 6.13331854602189e-03 7.67238077342914e-05
1.73841891891892e+01 6.07638837049758e-03 7.61972710121386e-05
1.74687837837838e+01 6.01998662746129e-03 7.56734517799482e-05
1.75533783783784e+01 5.96410841194176e-03 7.51523523155995e-05
1.76379729729730e+01 5.90874886449620e-03 7.46339744841117e-05
1.77225675675676e+01 5.85390317078773e-03 7.41183197479895e-05
1.78071621621622e+01 5.79956656116670e-03 7.36053891773638e-05
1.78917567567568e+01 5.74573431025590e-03 7.30951834599067e-05
1.79763513513514e+01 5.69240173653961e-03 7.25877028121156e-05
1.80609459459459e+01 5.63956420224752e-03 7.20829472860262e-05
1.81455405405405e+01 5.58721711207156e-03 7.15809165794668e-05
1.82301351351351e+01 5.53535591365292e-03 7.10816098427316e-05
1.83147297297297e+01 5.48397609688828e-03 7.05850259923986e-05
1.83993243243243e+01 5.43307319353763e-03 7.00911636176594e-05
1.84839189189189e+01 5.38264277683567e-03 6.96000209888067e-05
1.85685135135135e+01 5.33268046110684e-03 6.91115960655504e-05
1.86531081081081e+01 5.28318190138391e-03 6.86258865051445e-05
1.87377027027027e+01 5.23414279303014e-03 6.81428896703362e-05
1.88222972972973e+01 5.18555887136493e-03 6.76626026371787e-05
1.89068918918919e+01 5.13742591129282e-03 6.71850222025816e-05
1.89914864864865e+01 5.08973972693628e-03 6.67101448917594e-05
1.90760810810811e+01 5.04249617127156e-03 6.62379669655803e-05
1.91606756756757e+01 4.99569113576808e-03 6.57684844276670e-05
1.92452702702703e+01 4.94932055003107e-03 6.53016930313715e-05
1.93298648648649e+01 4.90338038144767e-03 6.48375882865983e-05
1.94144594594595e+01 4.85786663483617e-03 6.43761654664906e-05
1.94990540540541e+01 4.81277535209861e-03 6.39174196139614e-05
1.95836486486486e+01 4.76810261187654e-03 6.34613454690912e-05
1.96682432432432e+01 4.72384452943387e-03 6.30079377139742e-05
1.97528378378378e+01 4.67999725564239e-03 6.25571908191121e-05
1.98374324324324e+01 4.63655697732880e-03 6.21090988869280e-05
1.99220270270270e+01 4.59351991671410e-03 6.16636559023898e-05
2.00066216216216e+01 4.55088233108510e-03 6.12208556565972e-05
2.00912162162162e+01 4.50864051246886e-03 6.07806917523930e-05
2.01758108108108e+01 4.46679078731030e-03 6.03431576098614e-05
2.02604054054054e+01 4.42532951615268e-03 5.99082464716942e-05
2.03450000000000e+01 4.38425309332113e-03 5.94759514084646e-05
2.04295945945946e+01 4.34355794660901e-03 5.90462653237632e-05
2.05141891891892e+01 4.30324053696733e-03 5.86191809592023e-05
2.05987837837838e+01 4.26329735819700e-03 5.81946908993756e-05
2.06833783783784e+01 4.22372493664385e-03 5.77727875766884e-05
2.07679729729730e+01 4.18451983089657e-03 5.73534632760610e-05
2.08525675675676e+01 4.14567863148743e-03 5.69367101395413e-05
2.09371621621622e+01 4.10719796059577e-03 5.65225201708268e-05
2.10217567567568e+01 4.06907447175425e-03 5.61108852396825e-05
2.11063513513513e+01 4.03130484955782e-03 5.57017970219407e-05
2.11909459459459e+01 3.99388580955102e-03 5.52952471980050e-05
2.12755405405405e+01 3.95681409741156e-03 5.48912273269278e-05
2.13601351351351e+01 3.92008648920209e-03 5.44897287181694e-05
2.14447297297297e+01 3.88369979091020e-03 5.40907426348510e-05
2.15293243243243e+01 3.84765083817066e-03 5.36942602307398e-05
2.16139189189189e+01 3.81193649599025e-03 5.33002725540425e-05
2.16985135135135e+01 3.77655365847512e-03 5.29087705511208e-05
2.17831081081081e+01 3.74149924856069e-03 5.25197450701209e-05
2.18677027027027e+01 3.70677021774402e-03 5.21331868645209e-05
2.19522972972973e+01 3.67236354581874e-03 5.17490865966251e-05
2.20368918918919e+01 3.63827624061233e-03 5.13674348409256e-05
2.21214864864865e+01 3.60450533772602e-03 5.09882220874286e-05
2.22060810810811e+01 3.57104790027692e-03 5.06114387449424e-05
2.22906756756757e+01 3.53790101864261e-03 5.02370751442406e-05
2.23752702702703e+01 3.50506181020814e-03 4.98651215411711e-05
2.24598648648649e+01 3.47252741911531e-03 4.94955681197015e-05
2.25444594594595e+01 3.44029501601434e-03 4.91284049948946e-05
2.26290540540541e+01 3.40836179781777e-03 4.87636222158224e-05
2.27136486486486e+01 3.37672498745676e-03 4.84012097164632e-05
2.27982432432432e+01 3.34538183377623e-03 4.80411574753733e-05
2.28828378378378e+01 3.31432961088247e-03 4.76834554133952e-05
2.29674324324324e+01 3.28356561832231e-03 4.73280932894664e-05
2.30520270270270e+01 3.25308718070849e-03 4.69750608641621e-05
2.31366216216216e+01 3.22289164748701e-03 4.66243478482369e-05
2.32212162162162e+01 3.19297639270660e-03 4.62759439051045e-05
2.33058108108108e+01 3.16333881479039e-03 4.59298386532726e-05
2.33904054054054e+01 3.13397633630964e-03 4.55860216687291e-05
2.34750000000000e+01 3.10488640375959e-03 4.52444824872699e-05
2.35595945945946e+01 3.07606648733740e-03 4.49052106067637e-05
2.36441891891892e+01 3.04751408072214e-03 4.45681954893653e-05
2.37287837837838e+01 3.01922670085686e-03 4.42334265637013e-05
2.38133783783784e+01 2.99120188773264e-03 4.39008932269997e-05
2.38979729729730e+01 2.96343720417463e-03 4.35705848471568e-05
2.39825675675676e+01 2.93593023563011e-03 4.32424907647660e-05
2.40671621621622e+01 2.90867858995855e-03 4.29166002951030e-05
2.41517567567568e+01 2.88167989722351e-03 4.25929027300567e-05
2.42363513513513e+01 2.85493180948659e-03 4.22713872975095e-05
2.43209459459459e+01 2.82843200071155e-03 4.19520432915854e-05
2.44055405405405e+01 2.80217816623468e-03 4.16348599885106e-05
2.44901351351351e+01 2.77616802289410e-03 4.13198265609312e-05
2.45747297297297e+01 2.75039930872053e-03 4.10069322113437e-05
2.46593243243243e+01 2.72486978274052e-03 4.06961661295803e-05
2.47439189189189e+01 2.69957722478162e-03 4.03875174944483e-05
2.48285135135135e+01 2.67451943527925e-03 4.00809754753380e-05
2.49131081081081e+01 2.64969423508547e-03 3.97765292337911e-05
2.49977027027027e+01 2.62509946527942e-03 3.94741679250295e-05
2.50822972972973e+01 2.60073298697959e-03 3.91738806994618e-05
2.51668918918919e+01 2.57659268115781e-03 3.88756567041200e-05
2.52514864864865e+01 2.55267644845497e-03 3.85794850840822e-05
2.53360810810811e+01 2.52898220899848e-03 3.82853549838832e-05
2.54206756756757e+01 2.50550790222134e-03 3.79932555488625e-05
2.55052702702703e+01 2.48225148668301e-03 3.77031759264877e-05
2.55898648648649e+01 2.45921093989179e-03 3.74151052676448e-05
2.56744594594595e+01 2.43638425812900e-03 3.71290327278948e-05
2.57590540540541e+01 2.41376945627472e-03 3.68449474687066e-05
2.58436486486486e+01 2.39136456763513e-03 3.65628386241615e-05
2.59282432432432e+01 2.36916764385660e-03 3.62826954062857e-05
2.60128378378378e+01 2.34717675449907e-03 3.60045070364748e-05
2.60974324324324e+01 2.32538998712722e-03 3.57282626756610e-05
2.61820270270270e+01 2.30380544705718e-03 3.54539515322385e-05
2.62666216216216e+01 2.28242125719175e-03 3.51815628272609e-05
2.63512162162162e+01 2.26123555785715e-03 3.49110857954784e-05
2.64358108108108e+01 2.24024650664132e-03 3.46425096863371e-05
2.65204054054054e+01 2.21945227823368e-03 3.43758237649536e-05
2.66050000000000e+01 2.19885106426639e-03 3.41110173130749e-05
2.66895945945946e+01 2.17844107315709e-03 3.38480796299973e-05
