Energy (eV)          EEDF (eV^-(3/2))     First Anisotropy
2.62068965517241e-02 1.21387258807211e-01 8.41980409976344e-05
7.86206896551724e-02 1.19950896158672e-01 1.38678514601527e-04
1.31034482758621e-01 1.18531529840029e-01 1.82129658987938e-04
1.83448275862069e-01 1.17128958733704e-01 2.14572336145193e-04
2.35862068965517e-01 1.15742984103639e-01 2.41164358610953e-04
2.88275862068966e-01 1.14373409560171e-01 2.63870460788128e-04
3.40689655172414e-01 1.13020041049122e-01 2.83714637729580e-04
3.93103448275862e-01 1.11682686805857e-01 3.01319535686675e-04
4.45517241379310e-01 1.10361157335020e-01 3.17100915428283e-04
4.97931034482759e-01 1.09055265383610e-01 3.31354599044991e-04
5.50344827586207e-01 1.07764825914406e-01 3.44301016715505e-04
6.02758620689655e-01 1.06489656079732e-01 3.56110304334912e-04
6.55172413793103e-01 1.05229575195575e-01 3.66917475817314e-04
7.07586206896552e-01 1.03984404715944e-01 3.76832109688837e-04
7.60000000000000e-01 1.02753968207570e-01 3.85944809332690e-04
8.12413793103448e-01 1.01538091323380e-01 3.94331667818948e-04
8.64827586206897e-01 1.00336601782510e-01 4.02057448093807e-04
9.17241379310345e-01 9.91493293410127e-02 4.09177906048486e-04
9.69655172413793e-01 9.79761057694243e-02 4.15741524318508e-04
1.02206896551724e+00 9.68167648289270e-02 4.21790831779986e-04
1.07448275862069e+00 9.56711422498690e-02 4.27363425759887e-04
1.12689655172414e+00 9.45390756948854e-02 4.32492771008003e-04
1.17931034482759e+00 9.34204047675923e-02 4.37208839204472e-04
1.23172413793103e+00 9.23149709584826e-02 4.41538624546734e-04
1.28413793103448e+00 9.12226176337288e-02 4.45506559604572e-04
1.33655172413793e+00 9.01431900050605e-02 4.49134857403416e-04
1.38896551724138e+00 8.90765351323784e-02 4.52443797975261e-04
1.44137931034483e+00 8.80225018766598e-02 4.55451968844753e-04
1.49379310344828e+00 8.69809408804891e-02 4.58176460643190e-04
1.54620689655172e+00 8.59517045681227e-02 4.60633039628939e-04
1.59862068965517e+00 8.49346471025740e-02 4.62836295003887e-04
1.65103448275862e+00 8.39296243665841e-02 4.64799759006595e-04
1.70344827586207e+00 8.29364939607404e-02 4.66536016749543e-04
1.75586206896552e+00 8.19551151641266e-02 4.68056801588269e-04
1.80827586206897e+00 8.09853489156628e-02 4.69373072360016e-04
1.86068965517241e+00 8.00270578108162e-02 4.70495086761084e-04
1.91310344827586e+00 7.90801060652488e-02 4.71432465362359e-04
1.96551724137931e+00 7.81443595013697e-02 4.72194245525246e-04
2.01793103448276e+00 7.72196855248009e-02 4.72788929464484e-04
2.07034482758621e+00 7.63059531194243e-02 4.73224529114644e-04
2.12275862068966e+00 7.54030328146442e-02 4.73508606824479e-04
2.17517241379310e+00 7.45107966678506e-02 4.73648306864952e-04
2.22758620689655e+00 7.36291182586964e-02 4.73650388525499e-04
2.28000000000000e+00 7.27578726584576e-02 4.73521255959168e-04
2.33241379310345e+00 7.18969364130554e-02 4.73266980527713e-04
2.38482758620690e+00 7.10461875367382e-02 4.72893325539416e-04
2.43724137931035e+00 7.02055054833315e-02 4.72405768726940e-04
2.48965517241379e+00 6.93747711297831e-02 4.71809518379759e-04
2.54206896551724e+00 6.85538667694075e-02 4.71109532284022e-04
2.59448275862069e+00 6.77426760848433e-02 4.70310535052820e-04
2.64689655172414e+00 6.69410841320951e-02 4.69417029937529e-04
2.69931034482759e+00 6.61489773334670e-02 4.68433313637800e-04
2.75172413793103e+00 6.53662434520585e-02 4.67363489532700e-04
2.80413793103448e+00 6.45927715790594e-02 4.66211478059330e-04
2.85655172413793e+00 6.38284521153997e-02 4.64981026465528e-04
2.90896551724138e+00 6.30731767642828e-02 4.63675719327612e-04
2.96137931034483e+00 6.23268385076123e-02 4.62298988718891e-04
3.01379310344828e+00 6.15893315912188e-02 4.60854120155863e-04
3.06620689655172e+00 6.08605515172580e-02 4.59344261535890e-04
3.11862068965517e+00 6.01403950218605e-02 4.57772431453015e-04
3.17103448275862e+00 5.94287600608599e-02 4.56141523659121e-04
3.22344827586207e+00 5.87255458021087e-02 4.54454314450294e-04
3.27586206896552e+00 5.80306526042725e-02 4.52713469565033e-04
3.32827586206897e+00 5.73439820030220e-02 4.50921547532385e-04
3.38068965517241e+00 5.66654367033274e-02 4.49081005852337e-04
3.43310344827586e+00 5.59949205593083e-02 4.47194206478947e-04
3.48551724137931e+00 5.53323385627728e-02 4.45263419580512e-04
3.53793103448276e+00 5.46775968279282e-02 4.43290827201065e-04
3.59034482758621e+00 5.40306025836420e-02 4.41278527866919e-04
3.64275862068966e+00 5.33912641546368e-02 4.39228541250450e-04
3.69517241379310e+00 5.27594909487354e-02 4.37142809865793e-04
3.74758620689655e+00 5.21351934491704e-02 4.35023203319690e-04
3.80000000000000e+00 5.15182831966599e-02 4.32871522322840e-04
3.85241379310345e+00 5.09086727770927e-02 4.30689499925236e-04
3.90482758620690e+00 5.03062758139095e-02 4.28478805198961e-04
3.95724137931035e+00 4.97110069510078e-02 4.26241046719529e-04
4.00965517241379e+00 4.91227818408468e-02 4.23977773442597e-04
4.06206896551724e+00 4.85415171369220e-02 4.21690477919173e-04
4.11448275862069e+00 4.79671304774516e-02 4.19380599342522e-04
4.16689655172414e+00 4.73995404738820e-02 4.17049524143756e-04
4.21931034482759e+00 4.68386667034746e-02 4.14698588818603e-04
4.27172413793103e+00 4.62844296937261e-02 4.12329082381610e-04
4.32413793103448e+00 4.57367509125233e-02 4.09942247672657e-04
4.37655172413793e+00 4.51955527557965e-02 4.07539282694148e-04
4.42896551724138e+00 4.46607585402393e-02 4.05121342757831e-04
4.48137931034483e+00 4.41322924886675e-02 4.02689542770456e-04
4.53379310344828e+00 4.36100797194253e-02 4.00244957395607e-04
4.58620689655172e+00 4.30940462392390e-02 3.97788623197577e-04
4.63862068965517e+00 4.25841189292100e-02 3.95321540682980e-04
4.69103448275862e+00 4.20802255345890e-02 3.92844674334406e-04
4.74344827586207e+00 4.15822946577709e-02 3.90358954534067e-04
4.79586206896552e+00 4.10902557448914e-02 3.87865279397902e-04
4.84827586206897e+00 4.06040390759507e-02 3.85364514708054e-04
4.90068965517241e+00 4.01235757579588e-02 3.82857495645982e-04
4.95310344827586e+00 3.96487977121033e-02 3.80345028263948e-04
5.00551724137931e+00 3.91796376651426e-02 3.77827890078887e-04
5.05793103448276e+00 3.87160291389685e-02 3.75306830714525e-04
5.11034482758621e+00 3.82579064439373e-02 3.72782573214202e-04
5.16275862068966e+00 3.78052046667720e-02 3.70255815490990e-04
5.21517241379310e+00 3.73578596614615e-02 3.67727230107690e-04
5.26758620689655e+00 3.69158080427487e-02 3.65197465655840e-04
5.32000000000000e+00 3.64789871745325e-02 3.62667148075813e-04
5.37241379310345e+00 3.60473351610865e-02 3.60136880391276e-04
5.42482758620690e+00 3.56207908407029e-02 3.57607243969013e-04
5.47724137931035e+00 3.51992937745740e-02 3.55078799725128e-04
5.52965517241379e+00 3.47827842383144e-02 3.52552087824542e-04
5.58206896551724e+00 3.43712032157648e-02 3.50027628834914e-04
5.63448275862069e+00 3.39644923883297e-02 3.47505924832885e-04
5.68689655172414e+00 3.35625941267915e-02 3.44987459076972e-04
5.73931034482759e+00 3.31654514852748e-02 3.42472697067147e-04
5.79172413793103e+00 3.27730081910184e-02 3.39962087421250e-04
5.84413793103448e+00 3.23852086371309e-02 3.37456062095316e-04
5.89655172413793e+00 3.20019978740704e-02 3.34955036650579e-04
5.94896551724138e+00 3.16233216038084e-02 3.32459411047172e-04
6.00137931034483e+00 3.12491261701591e-02 3.29969570554597e-04
6.05379310344828e+00 3.08793585512423e-02 3.27485885392459e-04
6.10620689655172e+00 3.05139663538046e-02 3.25008711606685e-04
6.15862068965517e+00 3.01528978039344e-02 3.22538391910816e-04
6.21103448275862e+00 2.97961017397891e-02 3.20075255318301e-04
6.26344827586207e+00 2.94435276060709e-02 3.17619617954135e-04
6.31586206896552e+00 2.90951254451130e-02 3.15171783834442e-04
6.36827586206897e+00 2.87508458898578e-02 3.12732044493816e-04
6.42068965517241e+00 2.84106401584884e-02 3.10300679738074e-04
6.47310344827586e+00 2.80744600458682e-02 3.07877958253979e-04
6.52551724137931e+00 2.77422579172673e-02 3.05464137693868e-04
6.57793103448276e+00 2.74139867011202e-02 3.03059464801085e-04
6.63034482758621e+00 2.70895998838523e-02 3.00664175966357e-04
6.68275862068966e+00 2.67690515017737e-02 2.98278497883717e-04
6.73517241379310e+00 2.64522961346140e-02 2.95902647180256e-04
6.78758620689655e+00 2.61392889004974e-02 2.93536831050880e-04
6.84000000000000e+00 2.58299854481535e-02 2.91181247869277e-04
6.89241379310345e+00 2.55243419506782e-02 2.88836086820137e-04
6.94482758620690e+00 2.52223151006548e-02 2.86501528491657e-04
6.99724137931034e+00 2.49238621026685e-02 2.84177745445687e-04
7.04965517241379e+00 2.46289406672848e-02 2.81864901853902e-04
7.10206896551724e+00 2.43375090063143e-02 2.79563154051274e-04
7.15448275862069e+00 2.40495258256182e-02 2.77272651069224e-04
7.20689655172414e+00 2.37649503192958e-02 2.74993534276855e-04
7.25931034482759e+00 2.34837421650910e-02 2.72725937898474e-04
7.31172413793103e+00 2.32058615174756e-02 2.70469989423741e-04
7.36413793103448e+00 2.29312690024094e-02 2.68225809612413e-04
7.41655172413793e+00 2.26599257114002e-02 2.65993512532224e-04
7.46896551724138e+00 2.23917931970874e-02 2.63773205935292e-04
7.52137931034483e+00 2.21268334666834e-02 2.61564991714414e-04
7.57379310344828e+00 2.18650089766242e-02 2.59368965562005e-04
7.62620689655172e+00 2.16062826282867e-02 2.57185217414207e-04
7.67862068965517e+00 2.13506177616813e-02 2.55013831878788e-04
7.73103448275862e+00 2.10979781502896e-02 2.52854887901401e-04
7.78344827586207e+00 2.08483279969123e-02 2.50708459182656e-04
7.83586206896552e+00 2.06016319276031e-02 2.48574614580039e-04
7.88827586206897e+00 2.03578549866863e-02 2.46453417781935e-04
7.94068965517241e+00 2.01169626327325e-02 2.44344927699366e-04
7.99310344827586e+00 1.98789207327239e-02 2.42249198771116e-04
8.04551724137931e+00 1.96436955575355e-02 2.40166280938565e-04
8.09793103448276e+00 1.94112537768721e-02 2.38096219648171e-04
8.15034482758621e+00 1.91815624554058e-02 2.36039056132277e-04
8.20275862068966e+00 1.89545890472389e-02 2.33994827756755e-04
8.25517241379310e+00 1.87303013913178e-02 2.31963567716010e-04
8.30758620689655e+00 1.85086677076903e-02 2.29945305372116e-04
8.36000000000000e+00 1.82896565921781e-02 2.27940066582086e-04
8.41241379310345e+00 1.80732370119515e-02 2.25947873401115e-04
8.46482758620690e+00 1.78593783019035e-02 2.23968744402321e-04
8.51724137931035e+00 1.76480501595235e-02 2.22002694985117e-04
8.56965517241379e+00 1.74392226406266e-02 2.20049737086789e-04
8.62206896551724e+00 1.72328661558424e-02 2.18109879483969e-04
8.67448275862069e+00 1.70289514656812e-02 2.16183128083590e-04
8.72689655172414e+00 1.68274496764129e-02 2.14269485642788e-04
8.77931034482759e+00 1.66283322366662e-02 2.12368952053206e-04
8.83172413793103e+00 1.64315709326818e-02 2.10481524558362e-04
8.88413793103448e+00 1.62371378845505e-02 2.08607197712206e-04
8.93655172413793e+00 1.60450055420510e-02 2.06745963359629e-04
8.98896551724138e+00 1.58551466813904e-02 2.04897810836945e-04
9.04137931034483e+00 1.56675344006949e-02 2.03062727225674e-04
9.09379310344828e+00 1.54821421162163e-02 2.01240697093061e-04
9.14620689655172e+00 1.52989435591770e-02 1.99431702740455e-04
9.19862068965517e+00 1.51179127714283e-02 1.97635724442988e-04
9.25103448275862e+00 1.49390241017912e-02 1.95852740198154e-04
9.30344827586207e+00 1.47622522030008e-02 1.94082725960640e-04
9.35586206896552e+00 1.45875720275282e-02 1.92325655868982e-04
9.40827586206897e+00 1.44149588240478e-02 1.90581502002038e-04
9.46068965517241e+00 1.42443881344813e-02 1.88850234600998e-04
9.51310344827586e+00 1.40758357899743e-02 1.87131822236540e-04
9.56551724137931e+00 1.39092779076602e-02 1.85426231763155e-04
9.61793103448276e+00 1.37446908871071e-02 1.83733428291654e-04
9.67034482758621e+00 1.35820514074858e-02 1.82053375343471e-04
9.72275862068966e+00 1.34213364237476e-02 1.80386035049534e-04
9.77517241379310e+00 1.32625231633729e-02 1.78731367925666e-04
9.82758620689655e+00 1.31055891236316e-02 1.77089333067376e-04
9.88000000000000e+00 1.29505120679019e-02 1.75459888338080e-04
9.93241379310345e+00 1.27972700225330e-02 1.73842990151815e-04
9.98482758620690e+00 1.26458412741949e-02 1.72238593741190e-04
1.00372413793103e+01 1.24962043660365e-02 1.70646653083518e-04
1.00896551724138e+01 1.23483380955560e-02 1.69067120900030e-04
1.01420689655172e+01 1.22022215109875e-02 1.67499948920979e-04
1.01944827586207e+01 1.20578339084852e-02 1.65945087755782e-04
1.02468965517241e+01 1.19151548291896e-02 1.64402486594231e-04
1.02993103448276e+01 1.17741640576849e-02 1.62872094418730e-04
1.03517241379310e+01 1.16348416150274e-02 1.61353859262036e-04
1.04041379310345e+01 1.14971677600607e-02 1.59847727446284e-04
1.04565517241379e+01 1.13611229852235e-02 1.58353644830604e-04
1.05089655172414e+01 1.12266880137854e-02 1.56871556442984e-04
1.05613793103448e+01 1.10938437971152e-02 1.55401406517391e-04
1.06137931034483e+01 1.09625715119823e-02 1.53943138529862e-04
1.06662068965517e+01 1.08328525578892e-02 1.52496695233755e-04
1.07186206896552e+01 1.07046685544356e-02 1.51062018693530e-04
1.07710344827586e+01 1.05780013387148e-02 1.49639050317944e-04
1.08234482758621e+01 1.04528329627401e-02 1.48227730892645e-04
1.08758620689655e+01 1.03291456909012e-02 1.46828000611352e-04
1.09282758620690e+01 1.02069219974514e-02 1.45439799106350e-04
1.09806896551724e+01 1.00861445640242e-02 1.44063065478118e-04
1.10331034482759e+01 9.96679627717949e-03 1.42697738012433e-04
1.10855172413793e+01 9.84886022703280e-03 1.41343755151448e-04
1.11379310344828e+01 9.73231970166717e-03 1.40001054888986e-04
1.11903448275862e+01 9.61715818798731e-03 1.38669574150791e-04
1.12427586206897e+01 9.50335936829561e-03 1.37349249794548e-04
1.12951724137931e+01 9.39090711797998e-03 1.36040018307264e-04
1.13475862068966e+01 9.27978550322913e-03 1.34741815829539e-04
1.14000000000000e+01 9.16997877877477e-03 1.33454578179199e-04
1.14524137931034e+01 9.06147138566048e-03 1.32178240874108e-04
1.15048275862069e+01 8.95424794903726e-03 1.30912739154300e-04
1.15572413793103e+01 8.84829327598525e-03 1.29658008003721e-04
1.16096551724138e+01 8.74359235336079e-03 1.28413982171275e-04
1.16620689655172e+01 8.64013034566907e-03 1.27180596191136e-04
1.17144827586207e+01 8.53789259296210e-03 1.25957784402531e-04
1.17668965517241e+01 8.43686460876147e-03 1.24745480713506e-04
1.18193103448276e+01 8.33703207884234e-03 1.23543619392416e-04
1.18717241379310e+01 8.23838085667203e-03 1.22352134568231e-04
1.19241379310345e+01 8.14089696396228e-03 1.21170959718515e-04
1.19765517241379e+01 8.04456658782845e-03 1.20000028484908e-04
1.20289655172414e+01 7.94937607883222e-03 1.18839274421236e-04
1.20813793103448e+01 7.85531194904760e-03 1.17688631009552e-04
1.21337931034483e+01 7.76236087014977e-03 1.16548031675700e-04
1.21862068965517e+01 7.67050967152652e-03 1.15417409804531e-04
1.22386206896552e+01 7.57974533841174e-03 1.14296698754339e-04
1.22910344827586e+01 7.49005501004197e-03 1.13185831871051e-04
1.23434482758621e+01 7.40142597783377e-03 1.12084742502210e-04
1.23958620689655e+01 7.31384568358300e-03 1.10993364010210e-04
1.24482758620690e+01 7.22730171768537e-03 1.09911629785230e-04
1.25006896551724e+01 7.14178181737809e-03 1.08839473257752e-04
1.25531034482759e+01 7.05727386500233e-03 1.07776827703770e-04
1.26055172413793e+01 6.97376588694246e-03 1.06723626882600e-04
1.26579310344828e+01 6.89124604994263e-03 1.05679804628833e-04
1.27103448275862e+01 6.80970266143524e-03 1.04645294434351e-04
1.27627586206897e+01 6.72912416720957e-03 1.03620030105744e-04
1.28151724137931e+01 6.64949914977464e-03 1.02603945557196e-04
1.28675862068966e+01 6.57081632674137e-03 1.01596974820472e-04
1.29200000000000e+01 6.49306454922401e-03 1.00599052054619e-04
1.29724137931034e+01 6.41623280026020e-03 9.96101115552635e-05
1.30248275862069e+01 6.34031019325014e-03 9.86300877635530e-05
1.30772413793103e+01 6.26528597041410e-03 9.76589152749811e-05
1.31296551724138e+01 6.19114950126799e-03 9.66965288478527e-05
1.31820689655172e+01 6.11789028111711e-03 9.57428634113871e-05
1.32344827586207e+01 6.04549792956764e-03 9.47978540735786e-05
1.32868965517241e+01 5.97396218905587e-03 9.38614359585562e-05
1.33393103448276e+01 5.90327292391951e-03 9.29335447289181e-05
1.33917241379310e+01 5.83342011737283e-03 9.20141162477778e-05
1.34441379310345e+01 5.76439387169063e-03 9.11030862326555e-05
1.34965517241379e+01 5.69618440626640e-03 9.02003907940739e-05
1.35489655172414e+01 5.62878205622650e-03 8.93059662630122e-05
1.36013793103448e+01 5.56217727106070e-03 8.84197491969997e-05
1.36537931034483e+01 5.49636061326889e-03 8.75416763859813e-05
1.37062068965517e+01 5.43132275702392e-03 8.66716848580154e-05
1.37586206896552e+01 5.36705448684994e-03 8.58097118845771e-05
1.38110344827586e+01 5.30354669631703e-03 8.49556949857770e-05
1.38634482758621e+01 5.24079038675066e-03 8.41095719354921e-05
1.39158620689655e+01 5.17877666595665e-03 8.32712807661106e-05
1.39682758620690e+01 5.11749674696120e-03 8.24407597731422e-05
1.40206896551724e+01 5.05694194676582e-03 8.16179475196512e-05
1.40731034482759e+01 4.99710368511699e-03 8.08027827020926e-05
1.41255172413793e+01 4.93797348370500e-03 7.99952045730393e-05
1.41779310344828e+01 4.87954296370763e-03 7.91951526646216e-05
1.42303448275862e+01 4.82180384586931e-03 7.84025665053142e-05
1.42827586206897e+01 4.76474794890200e-03 7.76173860559762e-05
1.43351724137931e+01 4.70836718832597e-03 7.68395515678334e-05
1.43875862068966e+01 4.65265357532426e-03 7.60690035857124e-05
1.44400000000000e+01 4.59759921561072e-03 7.53056829511365e-05
1.44924137931034e+01 4.54319630831136e-03 7.45495308052189e-05
1.45448275862069e+01 4.48943714485910e-03 7.38004885913979e-05
1.45972413793103e+01 4.43631410790158e-03 7.30584980581202e-05
1.46496551724138e+01 4.38381967022174e-03 7.23235012613563e-05
1.47020689655172e+01 4.33194639367127e-03 7.15954405669481e-05
1.47544827586207e+01 4.28068692811668e-03 7.08742586528372e-05
1.48068965517241e+01 4.23003401039779e-03 7.01598983969794e-05
1.48593103448276e+01 4.17998046363215e-03 6.94523032247731e-05
1.49117241379310e+01 4.13051919518856e-03 6.87514168795255e-05
1.49641379310345e+01 4.08164319670076e-03 6.80571831874570e-05
1.50165517241379e+01 4.03334554273171e-03 6.73695464161712e-05
1.50689655172414e+01 3.98561938979233e-03 6.66884511562142e-05
1.51213793103448e+01 3.93845797537180e-03 6.60138423224871e-05
1.51737931034483e+01 3.89185461697938e-03 6.53456651555502e-05
1.52262068965517e+01 3.84580271119751e-03 6.46838652228652e-05
1.52786206896552e+01 3.80029573274605e-03 6.40283884198290e-05
1.53310344827586e+01 3.75532723355792e-03 6.33791809707743e-05
1.53834482758621e+01 3.71089084186532e-03 6.27361894299714e-05
1.54358620689655e+01 3.66698026129689e-03 6.20993606824089e-05
1.54882758620690e+01 3.62358926998554e-03 6.14686419445257e-05
1.55406896551724e+01 3.58071171968690e-03 6.08439807648640e-05
1.55931034482759e+01 3.53834153490808e-03 6.02253249315353e-05
1.56455172413793e+01 3.49647271231183e-03 5.96126227543386e-05
1.56979310344828e+01 3.45509931906389e-03 5.90058228765235e-05
1.57503448275862e+01 3.41421549280152e-03 5.84048740821059e-05
1.58027586206897e+01 3.37381544053071e-03 5.78097255870397e-05
1.58551724137931e+01 3.33389343780530e-03 5.72203269416026e-05
1.59075862068966e+01 3.29444382791592e-03 5.66366280305088e-05
1.59600000000000e+01 3.25546102108840e-03 5.60585790729685e-05
1.60124137931034e+01 3.21693949369174e-03 5.54861306226472e-05
1.60648275862069e+01 3.17887378745548e-03 5.49192335675510e-05
1.61172413793103e+01 3.14125850869633e-03 5.43578391299123e-05
1.61696551724138e+01 3.10408832755386e-03 5.38018988659923e-05
1.62220689655172e+01 3.06735797723532e-03 5.32513646657976e-05
1.62744827586207e+01 3.03106225326934e-03 5.27061887527561e-05
1.63268965517241e+01 2.99519601276851e-03 5.21663236063310e-05
1.63793103448276e+01 2.95975417391486e-03 5.16317221945376e-05
1.64317241379310e+01 2.92473171459147e-03 5.11023378174343e-05
1.64841379310345e+01 2.89012367232499e-03 5.05781239469348e-05
1.65365517241379e+01 2.85592514336248e-03 5.00590344668520e-05
