Energy (eV)          EEDF (eV^-(3/2))     First Anisotropy
1.51388888888889e-02 2.01597946552969e-01 1.25805484678659e-04
4.54166666666667e-02 1.99664700602594e-01 2.07441916029379e-04
7.56944444444445e-02 1.97749993729737e-01 2.73056678199633e-04
1.05972222222222e-01 1.95853648154475e-01 3.22426442846002e-04
1.36250000000000e-01 1.93975487797096e-01 3.63207527583819e-04
1.66527777777778e-01 1.92115338264503e-01 3.98306401462229e-04
1.96805555555556e-01 1.90273026840678e-01 4.29232945003930e-04
2.27083333333333e-01 1.88448382474556e-01 4.56902346875932e-04
2.57361111111111e-01 1.86641235736763e-01 4.81923816733804e-04
2.87638888888889e-01 1.84851418832266e-01 5.04729502995648e-04
3.17916666666667e-01 1.83078765574805e-01 5.25640461960985e-04
3.48194444444444e-01 1.81323111371973e-01 5.44903776568115e-04
3.78472222222222e-01 1.79584293214502e-01 5.62714969789983e-04
4.08750000000000e-01 1.77862149646266e-01 5.79232294981508e-04
4.39027777777778e-01 1.76156520764543e-01 5.94586254251826e-04
4.69305555555556e-01 1.74467248200009e-01 6.08886170716073e-04
4.99583333333333e-01 1.72794175105496e-01 6.22224863043030e-04
5.29861111111111e-01 1.71137146130876e-01 6.34682054668433e-04
5.60138888888889e-01 1.69496007419370e-01 6.46326915634700e-04
5.90416666666667e-01 1.67870606589563e-01 6.57219995627943e-04
6.20694444444444e-01 1.66260792721365e-01 6.67414716308431e-04
6.50972222222222e-01 1.64666416344448e-01 6.76958542850948e-04
6.81250000000000e-01 1.63087329416716e-01 6.85893913689720e-04
7.11527777777778e-01 1.61523385318335e-01 6.94258987990318e-04
7.41805555555556e-01 1.59974438835494e-01 7.02088254145889e-04
7.72083333333333e-01 1.58440346148945e-01 7.09413029080200e-04
8.02361111111111e-01 1.56920964814516e-01 7.16261870836345e-04
8.32638888888889e-01 1.55416153756100e-01 7.22660922878820e-04
8.62916666666667e-01 1.53925773250428e-01 7.28634204725617e-04
8.93194444444445e-01 1.52449684914143e-01 7.34203857012721e-04
9.23472222222222e-01 1.50987751692531e-01 7.39390351307583e-04
9.53750000000000e-01 1.49539837841919e-01 7.44212669042849e-04
9.84027777777778e-01 1.48105808922009e-01 7.48688455691089e-04
1.01430555555556e+00 1.46685531781730e-01 7.52834154439980e-04
1.04458333333333e+00 1.45278874553518e-01 7.56665125577923e-04
1.07486111111111e+00 1.43885706618324e-01 7.60195745982755e-04
1.10513888888889e+00 1.42505898619291e-01 7.63439496908868e-04
1.13541666666667e+00 1.41139322439915e-01 7.66409046365694e-04
1.16569444444444e+00 1.39785851192386e-01 7.69116316136849e-04
1.19597222222222e+00 1.38445359216964e-01 7.71572548711627e-04
1.22625000000000e+00 1.37117722036063e-01 7.73788359377742e-04
1.25652777777778e+00 1.35802816377318e-01 7.75773782411395e-04
1.28680555555556e+00 1.34500520150499e-01 7.77538318929513e-04
1.31708333333333e+00 1.33210712446003e-01 7.79090979538228e-04
1.34736111111111e+00 1.31933273493849e-01 7.80440317384030e-04
1.37763888888889e+00 1.30668084682647e-01 7.81594457711516e-04
1.40791666666667e+00 1.29415028538367e-01 7.82561131854243e-04
1.43819444444444e+00 1.28173988713574e-01 7.83347701212171e-04
1.46847222222222e+00 1.26944849984945e-01 7.83961185657630e-04
1.49875000000000e+00 1.25727498217112e-01 7.84408283146576e-04
1.52902777777778e+00 1.24521820377782e-01 7.84695387387855e-04
1.55930555555556e+00 1.23327704518597e-01 7.84828609381601e-04
1.58958333333333e+00 1.22145039772187e-01 7.84813796864566e-04
1.61986111111111e+00 1.20973716319332e-01 7.84656547636308e-04
1.65013888888889e+00 1.19813625401525e-01 7.84362221606594e-04
1.68041666666667e+00 1.18664659303165e-01 7.83935957957368e-04
1.71069444444444e+00 1.17526711341644e-01 7.83382685183421e-04
1.74097222222222e+00 1.16399675863865e-01 7.82707135935130e-04
1.77125000000000e+00 1.15283448216814e-01 7.81913855432224e-04
1.80152777777778e+00 1.14177924757653e-01 7.81007209083933e-04
1.83180555555556e+00 1.13083002837434e-01 7.79991394094327e-04
1.86208333333333e+00 1.11998580797394e-01 7.78870449987450e-04
1.89236111111111e+00 1.10924557941906e-01 7.77648264532892e-04
1.92263888888889e+00 1.09860834546896e-01 7.76328579106646e-04
1.95291666666667e+00 1.08807311844575e-01 7.74914998842159e-04
1.98319444444444e+00 1.07763892014326e-01 7.73410997158356e-04
2.01347222222222e+00 1.06730478178714e-01 7.71819924738160e-04
2.04375000000000e+00 1.05706974378969e-01 7.70145013367220e-04
2.07402777777778e+00 1.04693285581741e-01 7.68389379392379e-04
2.10430555555556e+00 1.03689317665012e-01 7.66556030835014e-04
2.13458333333333e+00 1.02694977414003e-01 7.64647873840226e-04
2.16486111111111e+00 1.01710172498466e-01 7.62667715404103e-04
2.19513888888889e+00 1.00734811478287e-01 7.60618265813407e-04
2.22541666666667e+00 9.97688037902069e-02 7.58502145362545e-04
2.25569444444444e+00 9.88120597394507e-02 7.56321886414982e-04
2.28597222222222e+00 9.78644904955127e-02 7.54079939431939e-04
2.31625000000000e+00 9.69260080713938e-02 7.51778674718282e-04
2.34652777777778e+00 9.59965253280556e-02 7.49420383961741e-04
2.37680555555556e+00 9.50759559620888e-02 7.47007285021450e-04
2.40708333333333e+00 9.41642145014737e-02 7.44541526257334e-04
2.43736111111111e+00 9.32612162862316e-02 7.42025187737539e-04
2.46763888888889e+00 9.23668774720740e-02 7.39460282281842e-04
2.49791666666667e+00 9.14811150187308e-02 7.36848760274227e-04
2.52819444444444e+00 9.06038466822695e-02 7.34192510526017e-04
2.55847222222222e+00 8.97349910108256e-02 7.31493364636554e-04
2.58875000000000e+00 8.88744673268018e-02 7.28753097706566e-04
2.61902777777778e+00 8.80221957297023e-02 7.25973428927391e-04
2.64930555555556e+00 8.71780970852453e-02 7.23156025033021e-04
2.67958333333333e+00 8.63420930211211e-02 7.20302503408979e-04
2.70986111111111e+00 8.55141059103261e-02 7.17414432531353e-04
2.74013888888889e+00 8.46940588734221e-02 7.14493332303260e-04
2.77041666666667e+00 8.38818757682031e-02 7.11540677702852e-04
2.80069444444444e+00 8.30774811826477e-02 7.08557899033099e-04
2.83097222222222e+00 8.22808004307055e-02 7.05546385247991e-04
2.86125000000000e+00 8.14917595368880e-02 7.02507484131992e-04
2.89152777777778e+00 8.07102852379452e-02 6.99442502398476e-04
2.92180555555556e+00 7.99363049731927e-02 6.96352708306545e-04
2.95208333333333e+00 7.91697468803572e-02 6.93239334007703e-04
2.98236111111111e+00 7.84105397810966e-02 6.90103575582195e-04
3.01263888888889e+00 7.76586131822622e-02 6.86946593006269e-04
3.04291666666667e+00 7.69138972666980e-02 6.83769513030733e-04
3.07319444444444e+00 7.61763228867755e-02 6.80573429108824e-04
3.10347222222222e+00 7.54458215603046e-02 6.77359404031462e-04
3.13375000000000e+00 7.47223254570935e-02 6.74128469824817e-04
3.16402777777778e+00 7.40057673997900e-02 6.70881627591531e-04
3.19430555555556e+00 7.32960808552462e-02 6.67619849568723e-04
3.22458333333333e+00 7.25931999305078e-02 6.64344080966446e-04
3.25486111111111e+00 7.18970593601464e-02 6.61055239790922e-04
3.28513888888889e+00 7.12075945068014e-02 6.57754216618548e-04
3.31541666666667e+00 7.05247413529526e-02 6.54441876934090e-04
3.34569444444444e+00 6.98484364949887e-02 6.51119060889648e-04
3.37597222222222e+00 6.91786171392855e-02 6.47786585451098e-04
3.40625000000000e+00 6.85152210904109e-02 6.44445244148049e-04
3.43652777777778e+00 6.78581867513622e-02 6.41095806782316e-04
3.46680555555556e+00 6.72074531158277e-02 6.37739021091522e-04
3.49708333333333e+00 6.65629597643530e-02 6.34375614229913e-04
3.52736111111111e+00 6.59246468531981e-02 6.31006292481706e-04
3.55763888888889e+00 6.52924551143569e-02 6.27631740937383e-04
3.58791666666667e+00 6.46663258481757e-02 6.24252625433517e-04
3.61819444444444e+00 6.40462009179118e-02 6.20869592227335e-04
3.64847222222222e+00 6.34320227460031e-02 6.17483269780702e-04
3.67875000000000e+00 6.28237343036643e-02 6.14094268436758e-04
3.70902777777778e+00 6.22212791106888e-02 6.10703180064721e-04
3.73930555555556e+00 6.16246012284931e-02 6.07310579432715e-04
3.76958333333333e+00 6.10336452564795e-02 6.03917025425894e-04
3.79986111111111e+00 6.04483563221877e-02 6.00523060707654e-04
3.83013888888889e+00 5.98686800809406e-02 5.97129211351980e-04
3.86041666666667e+00 5.92945627092012e-02 5.93735988478229e-04
3.89069444444444e+00 5.87259508995831e-02 5.90343887888762e-04
3.92097222222222e+00 5.81627918573225e-02 5.86953391574463e-04
3.95125000000000e+00 5.76050332910639e-02 5.83564967360249e-04
3.98152777777778e+00 5.70526234123504e-02 5.80179068525430e-04
4.01180555555556e+00 5.65055109293564e-02 5.76796134954437e-04
4.04208333333333e+00 5.59636450434552e-02 5.73416594155080e-04
4.07236111111111e+00 5.54269754404815e-02 5.70040860900739e-04
4.10263888888889e+00 5.48954522901118e-02 5.66669336849428e-04
4.13291666666667e+00 5.43690262398727e-02 5.63302411938119e-04
4.16319444444444e+00 5.38476484105645e-02 5.59940464010685e-04
4.19347222222222e+00 5.33312703929421e-02 5.56583860102987e-04
4.22375000000000e+00 5.28198442395240e-02 5.53232956081707e-04
4.25402777777778e+00 5.23133224638649e-02 5.49888096262630e-04
4.28430555555556e+00 5.18116580348957e-02 5.46549614386916e-04
4.31458333333333e+00 5.13148043736996e-02 5.43217834483106e-04
4.34486111111111e+00 5.08227153457342e-02 5.39893070509364e-04
4.37513888888889e+00 5.03353452600273e-02 5.36575625976740e-04
4.40541666666667e+00 4.98526488637624e-02 5.33265795149346e-04
4.43569444444444e+00 4.93745813380822e-02 5.29963862678258e-04
4.46597222222222e+00 4.89010982949767e-02 5.26670104708370e-04
4.49625000000000e+00 4.84321557699807e-02 5.23384788524369e-04
4.52652777777778e+00 4.79677102212968e-02 5.20108172179741e-04
4.55680555555556e+00 4.75077185246765e-02 5.16840505332977e-04
4.58708333333333e+00 4.70521379704008e-02 5.13582029984397e-04
4.61736111111111e+00 4.66009262563385e-02 5.10332980129394e-04
4.64763888888889e+00 4.61540414870170e-02 5.07093581395798e-04
4.67791666666667e+00 4.57114421687228e-02 5.03864052084428e-04
4.70819444444444e+00 4.52730872056531e-02 5.00644602817685e-04
4.73847222222222e+00 4.48389358970062e-02 4.97435437499669e-04
4.76875000000000e+00 4.44089479304552e-02 4.94236752977128e-04
4.79902777777778e+00 4.39830833811731e-02 4.91048738686109e-04
4.82930555555556e+00 4.35613027071963e-02 4.87871577373688e-04
4.85958333333333e+00 4.31435667466056e-02 4.84705445732762e-04
4.88986111111111e+00 4.27298367113146e-02 4.81550514072249e-04
4.92013888888889e+00 4.23200741860625e-02 4.78406945973876e-04
4.95041666666667e+00 4.19142411239744e-02 4.75274899199522e-04
4.98069444444444e+00 4.15122998430316e-02 4.72154525359203e-04
5.01097222222222e+00 4.11142130233587e-02 4.69045970748588e-04
5.04125000000000e+00 4.07199437013773e-02 4.65949376029115e-04
5.07152777777778e+00 4.03294552687732e-02 4.62864875895853e-04
5.10180555555556e+00 3.99427114682912e-02 4.59792599704147e-04
5.13208333333333e+00 3.95596763911092e-02 4.56732672020056e-04
5.16236111111111e+00 3.91803144712682e-02 4.53685212310540e-04
5.19263888888889e+00 3.88045904846220e-02 4.50650334622191e-04
5.22291666666667e+00 3.84324695448089e-02 4.47628148376162e-04
5.25319444444444e+00 3.80639171000150e-02 4.44618758057662e-04
5.28347222222222e+00 3.76988989304497e-02 4.41622263949952e-04
5.31375000000000e+00 3.73373811430979e-02 4.38638761835442e-04
5.34402777777778e+00 3.69793301706586e-02 4.35668342686255e-04
5.37430555555556e+00 3.66247127677283e-02 4.32711093211103e-04
5.40458333333333e+00 3.62734960083580e-02 4.29767096335001e-04
5.43486111111111e+00 3.59256472810499e-02 4.26836430910668e-04
5.46513888888889e+00 3.55811342876899e-02 4.23919171420053e-04
5.49541666666667e+00 3.52399250398892e-02 4.21015388673474e-04
5.52569444444444e+00 3.49019878560161e-02 4.18125149521348e-04
5.55597222222222e+00 3.45672913588504e-02 4.15248517499831e-04
5.58625000000000e+00 3.42358044708652e-02 4.12385552553452e-04
5.61652777777778e+00 3.39074964131595e-02 4.09536310748594e-04
5.64680555555556e+00 3.35823367019898e-02 4.06700844752749e-04
5.67708333333333e+00 3.32602951465020e-02 4.03879204254332e-04
5.70736111111111e+00 3.29413418442297e-02 4.01071435695479e-04
5.73763888888889e+00 3.26254471800288e-02 3.98277581996161e-04
5.76791666666667e+00 3.23125818227515e-02 3.95497683171063e-04
5.79819444444444e+00 3.20027167225257e-02 3.92731776063367e-04
5.82847222222222e+00 3.16958231085774e-02 3.89979894914446e-04
5.85875000000000e+00 3.13918724849832e-02 3.87242071107660e-04
5.88902777777778e+00 3.10908366296123e-02 3.84518332904231e-04
5.91930555555556e+00 3.07926875909734e-02 3.81808705864727e-04
5.94958333333333e+00 3.04973976861107e-02 3.79113213217774e-04
5.97986111111111e+00 3.02049394965481e-02 3.76431875613648e-04
6.01013888888889e+00 2.99152858672396e-02 3.73764710870329e-04
6.04041666666667e+00 2.96284099035449e-02 3.71111734519233e-04
6.07069444444444e+00 2.93442849687334e-02 3.68472959560141e-04
6.10097222222222e+00 2.90628846819674e-02 3.65848396965313e-04
6.13125000000000e+00 2.87841829144713e-02 3.63238055443739e-04
6.16152777777778e+00 2.85081537884967e-02 3.60641941198336e-04
6.19180555555556e+00 2.82347716744527e-02 3.58060058297630e-04
6.22208333333333e+00 2.79640111889574e-02 3.55492409000731e-04
6.25236111111111e+00 2.76958471911785e-02 3.52938993530727e-04
6.28263888888889e+00 2.74302547818107e-02 3.50399809841487e-04
6.31291666666667e+00 2.71672093003227e-02 3.47874854101708e-04
6.34319444444444e+00 2.69066863226688e-02 3.45364120469847e-04
6.37347222222222e+00 2.66486616594214e-02 3.42867601541225e-04
6.40375000000000e+00 2.63931113523126e-02 3.40385288131606e-04
6.43402777777778e+00 2.61400116732312e-02 3.37917169054570e-04
6.46430555555556e+00 2.58893391216090e-02 3.35463231450161e-04
6.49458333333333e+00 2.56410704226180e-02 3.33023461071888e-04
6.52486111111111e+00 2.53951825238649e-02 3.30597842078927e-04
6.55513888888889e+00 2.51516525944032e-02 3.28186356822420e-04
6.58541666666667e+00 2.49104580222258e-02 3.25788986275540e-04
6.61569444444444e+00 2.46715764121663e-02 3.23405709827336e-04
6.64597222222222e+00 2.44349855841718e-02 3.21036505680031e-04
6.67625000000000e+00 2.42006635701780e-02 3.18681350650680e-04
6.70652777777778e+00 2.39685886131423e-02 3.16340219967404e-04
6.73680555555556e+00 2.37387391646638e-02 3.14013087560589e-04
6.76708333333333e+00 2.35110938833155e-02 3.11699926316971e-04
6.79736111111111e+00 2.32856316316564e-02 3.09400707889353e-04
6.82763888888889e+00 2.30623314752823e-02 3.07115402501085e-04
6.85791666666667e+00 2.28411726805414e-02 3.04843979328846e-04
6.88819444444444e+00 2.26221347126099e-02 3.02586406314062e-04
6.91847222222222e+00 2.24051972338956e-02 3.00342650516536e-04
6.94875000000000e+00 2.21903401012108e-02 2.98112677932959e-04
6.97902777777778e+00 2.19775433648473e-02 2.95896453310643e-04
7.00930555555556e+00 2.17667872664071e-02 2.93693940406007e-04
7.03958333333333e+00 2.15580522372607e-02 2.91505102209997e-04
7.06986111111111e+00 2.13513188958441e-02 2.89329900774001e-04
7.10013888888889e+00 2.11465680467516e-02 2.87168297031143e-04
7.13041666666667e+00 2.09437806786539e-02 2.85020251137618e-04
7.16069444444444e+00 2.07429379625332e-02 2.82885722300259e-04
7.19097222222222e+00 2.05440212502084e-02 2.80764669091807e-04
7.22125000000000e+00 2.03470120717761e-02 2.78657049285048e-04
7.25152777777778e+00 2.01518921347293e-02 2.76562819682634e-04
7.28180555555556e+00 1.99586433219788e-02 2.74481936346968e-04
7.31208333333333e+00 1.97672476904304e-02 2.72414354800490e-04
7.34236111111111e+00 1.95776874685363e-02 2.70360029866597e-04
7.37263888888889e+00 1.93899450554327e-02 2.68318915506494e-04
7.40291666666667e+00 1.92040030190412e-02 2.66290965123821e-04
7.43319444444444e+00 1.90198440944503e-02 2.64276131407236e-04
7.46347222222222e+00 1.88374511825544e-02 2.62274366611862e-04
7.49375000000000e+00 1.86568073477348e-02 2.60285622407750e-04
7.52402777777778e+00 1.84778958170234e-02 2.58309849724596e-04
7.55430555555556e+00 1.83006999782985e-02 2.56346998956434e-04
7.58458333333333e+00 1.81252033789710e-02 2.54397020139859e-04
7.61486111111111e+00 1.79513897237652e-02 2.52459862808784e-04
7.64513888888889e+00 1.77792428739027e-02 2.50535475845512e-04
7.67541666666667e+00 1.76087468453690e-02 2.48623807753038e-04
7.70569444444444e+00 1.74398858074306e-02 2.46724806511365e-04
7.73597222222222e+00 1.72726440813786e-02 2.44838419829024e-04
7.76625000000000e+00 1.71070061384259e-02 2.42964595004801e-04
7.79652777777778e+00 1.69429565989171e-02 2.41103278786013e-04
7.82680555555556e+00 1.67804802306819e-02 2.39254417551050e-04
7.85708333333333e+00 1.66195619478228e-02 2.37417957468209e-04
7.88736111111111e+00 1.64601868087031e-02 2.35593844363091e-04
7.91763888888889e+00 1.63023400151751e-02 2.33782023582771e-04
7.94791666666667e+00 1.61460069109997e-02 2.31982440239430e-04
7.97819444444445e+00 1.59911729804855e-02 2.30195039079262e-04
8.00847222222222e+00 1.58378238473304e-02 2.28419764707542e-04
8.03875000000000e+00 1.56859452727143e-02 2.26656561462421e-04
8.06902777777778e+00 1.55355231545533e-02 2.24905373285699e-04
8.09930555555556e+00 1.53865435259970e-02 2.23166143885792e-04
8.12958333333333e+00 1.52389925543116e-02 2.21438816879411e-04
8.15986111111111e+00 1.50928565390522e-02 2.19723335670587e-04
8.19013888888889e+00 1.49481219113378e-02 2.18019643326810e-04
8.22041666666667e+00 1.48047752324074e-02 2.16327682797229e-04
8.25069444444444e+00 1.46628031923726e-02 2.14647396793079e-04
8.28097222222222e+00 1.45221926091497e-02 2.12978727989253e-04
8.31125000000000e+00 1.43829304267281e-02 2.11321618909212e-04
8.34152777777778e+00 1.42450037144690e-02 2.09676011807116e-04
8.37180555555556e+00 1.41083996657336e-02 2.08041848813472e-04
8.40208333333333e+00 1.39731055968529e-02 2.06419072061685e-04
8.43236111111111e+00 1.38391089454691e-02 2.04807623577693e-04
8.46263888888889e+00 1.37063972698536e-02 2.03207445167047e-04
8.49291666666667e+00 1.35749582475890e-02 2.01618478610513e-04
8.52319444444444e+00 1.34447796744253e-02 2.00040665555046e-04
8.55347222222222e+00 1.33158494632954e-02 1.98473947694454e-04
8.58375000000000e+00 1.31881556427428e-02 1.96918266664420e-04
8.61402777777778e+00 1.30616863562629e-02 1.95373563935114e-04
8.64430555555556e+00 1.29364298610510e-02 1.93839780941444e-04
8.67458333333333e+00 1.28123745270523e-02 1.92316859196159e-04
8.70486111111111e+00 1.26895088354554e-02 1.90804740189244e-04
8.73513888888889e+00 1.25678213780528e-02 1.89303365284961e-04
8.76541666666667e+00 1.24473008560374e-02 1.87812675897316e-04
8.79569444444444e+00 1.23279360789530e-02 1.86332613390679e-04
8.82597222222222e+00 1.22097159637884e-02 1.84863119241862e-04
8.85625000000000e+00 1.20926295335473e-02 1.83404134944383e-04
8.88652777777778e+00 1.19766659166326e-02 1.81955601910560e-04
8.91680555555556e+00 1.18618143457017e-02 1.80517461588150e-04
8.94708333333333e+00 1.17480641567921e-02 1.79089655561555e-04
8.97736111111111e+00 1.16354047879521e-02 1.77672125460053e-04
9.00763888888889e+00 1.15238257786417e-02 1.76264812863951e-04
9.03791666666667e+00 1.14133167686337e-02 1.74867659462143e-04
9.06819444444444e+00 1.13038674970513e-02 1.73480606961495e-04
9.09847222222222e+00 1.11954678015335e-02 1.72103597232340e-04
9.12875000000000e+00 1.10881076169351e-02 1.70736572221212e-04
9.15902777777778e+00 1.09817769747512e-02 1.69379473861600e-04
9.18930555555556e+00 1.08764660020707e-02 1.68032244178434e-04
9.21958333333333e+00 1.07721649207720e-02 1.66694825378731e-04
9.24986111111111e+00 1.06688640462767e-02 1.65367159767933e-04
9.28013888888889e+00 1.05665537869909e-02 1.64049189664320e-04
9.31041666666667e+00 1.04652246433004e-02 1.62740857540597e-04
9.34069444444444e+00 1.03648672066886e-02 1.61442105941278e-04
9.37097222222222e+00 1.02654721589677e-02 1.60152877613401e-04
9.40125000000000e+00 1.01670302710969e-02 1.58873115426946e-04
9.43152777777778e+00 1.00695324026442e-02 1.57602762293500e-04
9.46180555555556e+00 9.97296950083087e-03 1.56341761259958e-04
9.49208333333333e+00 9.87733259979041e-03 1.55090055589728e-04
9.52236111111111e+00 9.78261281943511e-03 1.53847588686434e-04
9.55263888888889e+00 9.68880136493466e-03 1.52614304015954e-04
