Energy (eV)          EEDF (eV^-(3/2))     First Anisotropy
1.14615384615385e-02 1.38688783744663e+00 1.40869739504530e-03
3.43846153846154e-02 1.35056201707750e+00 2.30343973740637e-03
5.73076923076923e-02 1.31518765449501e+00 2.98120023942437e-03
8.02307692307692e-02 1.28073982875600e+00 3.46120244565184e-03
1.03153846153846e-01 1.24719427176561e+00 3.83362118057856e-03
1.26076923076923e-01 1.21452735086822e+00 4.13361139951255e-03
1.49000000000000e-01 1.18271605266692e+00 4.37989210783533e-03
1.71923076923077e-01 1.15173796659925e+00 4.58407545655504e-03
1.94846153846154e-01 1.12157126868427e+00 4.75406114820385e-03
2.17769230769231e-01 1.09219470678281e+00 4.89556780291018e-03
2.40692307692308e-01 1.06358758539727e+00 5.01292459133103e-03
2.63615384615385e-01 1.03572975109235e+00 5.10952121050786e-03
2.86538461538462e-01 1.00860157829749e+00 5.18808236551563e-03
3.09461538461538e-01 9.82183955481055e-01 5.25084460909192e-03
3.32384615384615e-01 9.56458271685930e-01 5.29967537184883e-03
3.55307692307692e-01 9.31406403419864e-01 5.33615601119225e-03
3.78230769230769e-01 9.07010701886809e-01 5.36164152332064e-03
4.01153846153846e-01 8.83253980553579e-01 5.37730458668181e-03
4.24076923076923e-01 8.60119503042152e-01 5.38416877107997e-03
4.47000000000000e-01 8.37590971339091e-01 5.38313405925321e-03
4.69923076923077e-01 8.15652514359793e-01 5.37499680591242e-03
4.92846153846154e-01 7.94288676625083e-01 5.36046556105692e-03
5.15769230769231e-01 7.73484407520116e-01 5.34017379106530e-03
5.38692307692308e-01 7.53225050640603e-01 5.31469024325975e-03
5.61615384615385e-01 7.33496333467526e-01 5.28452746058705e-03
5.84538461538462e-01 7.14284357312307e-01 5.25014885633695e-03
6.07461538461538e-01 6.95575587525321e-01 5.21197464284655e-03
6.30384615384615e-01 6.77356843960758e-01 5.17038684033716e-03
6.53307692307692e-01 6.59615291691611e-01 5.12573354027439e-03
6.76230769230769e-01 6.42338431967454e-01 5.07833255912811e-03
6.99153846153846e-01 6.25514093409192e-01 5.02847458946443e-03
7.22076923076923e-01 6.09130423434455e-01 4.97642593342977e-03
7.45000000000000e-01 5.93175879907567e-01 4.92243088531593e-03
7.67923076923077e-01 5.77639223027942e-01 4.86671382570737e-03
7.90846153846154e-01 5.62509507351078e-01 4.80948105860826e-03
8.13769230769231e-01 5.47776074139915e-01 4.75092243573605e-03
8.36692307692308e-01 5.33428543834510e-01 4.69121280651342e-03
8.59615384615385e-01 5.19456808739736e-01 4.63051330449908e-03
8.82538461538462e-01 5.05851025904512e-01 4.56897249949606e-03
9.05461538461539e-01 4.92601610187543e-01 4.50672743142175e-03
9.28384615384615e-01 4.79699227504644e-01 4.44390454090500e-03
9.51307692307692e-01 4.67134788253052e-01 4.38062050934691e-03
9.74230769230769e-01 4.54899440907849e-01 4.31698301929397e-03
9.97153846153846e-01 4.42984565786145e-01 4.25309143974988e-03
1.02007692307692e+00 4.31381769028890e-01 4.18903747067591e-03
1.04300000000000e+00 4.20082876489653e-01 4.12490569983822e-03
1.06592307692308e+00 4.09079928212257e-01 4.06077411538373e-03
1.08884615384615e+00 3.98365172730146e-01 3.99671459720824e-03
1.11176923076923e+00 3.87931061697573e-01 3.93279337232889e-03
1.13469230769231e+00 3.77770244290534e-01 3.86907140098125e-03
1.15761538461538e+00 3.67875562314786e-01 3.80560472201442e-03
1.18053846153846e+00 3.58240045145668e-01 3.74244484380010e-03
1.20346153846154e+00 3.48856904573573e-01 3.67963903540293e-03
1.22638461538462e+00 3.39719530269481e-01 3.61723059519974e-03
1.24930769230769e+00 3.30821485113876e-01 3.55525916445499e-03
1.27223076923077e+00 3.22156500449636e-01 3.49376095550987e-03
1.29515384615385e+00 3.13718471881453e-01 3.43276896305666e-03
1.31807692307692e+00 3.05501454962800e-01 3.37231321856001e-03
1.34100000000000e+00 2.97499660823357e-01 3.31242097074895e-03
1.36392307692308e+00 2.89707452278943e-01 3.25311685863248e-03
1.38684615384615e+00 2.82119339796276e-01 3.19442309863981e-03
1.40976923076923e+00 2.74729977676787e-01 3.13635965503431e-03
1.43269230769231e+00 2.67534160134352e-01 3.07894437974404e-03
1.45561538461538e+00 2.60526817787030e-01 3.02219313681683e-03
1.47853846153846e+00 2.53703014076725e-01 2.96611996448982e-03
1.50146153846154e+00 2.47057941654187e-01 2.91073718250844e-03
1.52438461538462e+00 2.40586919131798e-01 2.85605549233888e-03
1.54730769230769e+00 2.34285387778007e-01 2.80208411221651e-03
1.57023076923077e+00 2.28148908184868e-01 2.74883086382395e-03
1.59315384615385e+00 2.22173157263384e-01 2.69630225335190e-03
1.61607692307692e+00 2.16353925191153e-01 2.64450358465276e-03
1.63900000000000e+00 2.10687112340151e-01 2.59343902944873e-03
1.66192307692308e+00 2.05168726496950e-01 2.54311169651982e-03
1.68484615384615e+00 1.99794880013450e-01 2.49352371329646e-03
1.70776923076923e+00 1.94561787097856e-01 2.44467629988387e-03
1.73069230769231e+00 1.89465761056589e-01 2.39656982623776e-03
1.75361538461538e+00 1.84503211789755e-01 2.34920386200011e-03
1.77653846153846e+00 1.79670643256941e-01 2.30257725283569e-03
1.79946153846154e+00 1.74964650933628e-01 2.25668816363065e-03
1.82238461538462e+00 1.70381919494751e-01 2.21153411901989e-03
1.84530769230769e+00 1.65919220474789e-01 2.16711206817608e-03
1.86823076923077e+00 1.61573409921749e-01 2.12341841993408e-03
1.89115384615385e+00 1.57341426255070e-01 2.08044907574737e-03
1.91407692307692e+00 1.53220288104903e-01 2.03819948481843e-03
1.93700000000000e+00 1.49207092148234e-01 1.99666467259976e-03
1.95992307692308e+00 1.45299011128205e-01 1.95583926977687e-03
1.98284615384615e+00 1.41493291840372e-01 1.91571755036804e-03
2.00576923076923e+00 1.37787253211026e-01 1.87629346590027e-03
2.02869230769231e+00 1.34178284353643e-01 1.83756066949006e-03
2.05161538461538e+00 1.30663842785301e-01 1.79951253596636e-03
2.07453846153846e+00 1.27241452632604e-01 1.76214220007745e-03
2.09746153846154e+00 1.23908702838638e-01 1.72544257375328e-03
2.12038461538462e+00 1.20663245514052e-01 1.68940636227882e-03
2.14330769230769e+00 1.17502794280457e-01 1.65402609698311e-03
2.16623076923077e+00 1.14425122616125e-01 1.61929414905062e-03
2.18915384615385e+00 1.11428062331735e-01 1.58520274244069e-03
2.21207692307692e+00 1.08509502040613e-01 1.55174398187895e-03
2.23500000000000e+00 1.05667385632405e-01 1.51890986380218e-03
2.25792307692308e+00 1.02899710864145e-01 1.48669228805315e-03
2.28084615384615e+00 1.00204527936262e-01 1.45508307597997e-03
2.30376923076923e+00 9.75799381299925e-02 1.42407398634191e-03
2.32669230769231e+00 9.50240924360493e-02 1.39365672490431e-03
2.34961538461538e+00 9.25351902863322e-02 1.36382295175222e-03
2.37253846153846e+00 9.01114782836894e-02 1.33456430086271e-03
2.39546153846154e+00 8.77512489364890e-02 1.30587238612617e-03
2.41838461538462e+00 8.54528394864003e-02 1.27773880691928e-03
2.44130769230769e+00 8.32146307354689e-02 1.25015516487242e-03
2.46423076923077e+00 8.10350458783498e-02 1.22311306837291e-03
2.48715384615385e+00 7.89125494189801e-02 1.19660413670378e-03
2.51007692307692e+00 7.68456460874466e-02 1.17062001440026e-03
2.53300000000000e+00 7.48328797623404e-02 1.14515237449175e-03
2.55592307692308e+00 7.28728324696138e-02 1.12019292243238e-03
2.57884615384615e+00 7.09641233752525e-02 1.09573340446693e-03
2.60176923076923e+00 6.91054078194004e-02 1.07176561471535e-03
2.62469230769231e+00 6.72953763479558e-02 1.04828139821518e-03
2.64761538461538e+00 6.55327538115612e-02 1.02527265259670e-03
2.67053846153846e+00 6.38162984661974e-02 1.00273133807018e-03
2.69346153846154e+00 6.21448010794223e-02 9.80649478517572e-04
2.71638461538462e+00 6.05170840977678e-02 9.59019162413254e-04
2.73930769230769e+00 5.89320008162209e-02 9.37832551339341e-04
2.76223076923077e+00 5.73884345533216e-02 9.17081880428075e-04
2.78515384615385e+00 5.58852978818224e-02 8.96759458669966e-04
2.80807692307692e+00 5.44215318617452e-02 8.76857676158849e-04
2.83100000000000e+00 5.29961052790336e-02 8.57369004002420e-04
2.85392307692308e+00 5.16080139346843e-02 8.38285994787801e-04
2.87684615384615e+00 5.02562799319985e-02 8.19601286104997e-04
2.89976923076923e+00 4.89399509920492e-02 8.01307603301475e-04
2.92269230769231e+00 4.76580997694143e-02 7.83397759607688e-04
2.94561538461538e+00 4.64098232125093e-02 7.65864655423264e-04
2.96853846153846e+00 4.51942419267244e-02 7.48701283252250e-04
2.99146153846154e+00 4.40104995428283e-02 7.31900726740578e-04
3.01438461538462e+00 4.28577621259433e-02 7.15456159665218e-04
3.03730769230769e+00 4.17352175874535e-02 6.99360850088497e-04
3.06023076923077e+00 4.06420751020097e-02 6.83608159149321e-04
3.08315384615385e+00 3.95775645614736e-02 6.68191539822077e-04
3.10607692307692e+00 3.85409360318428e-02 6.53104540397053e-04
3.12900000000000e+00 3.75314592151179e-02 6.38340803079520e-04
3.15192307692308e+00 3.65484229448029e-02 6.23894063013058e-04
3.17484615384615e+00 3.55911346815053e-02 6.09758149409699e-04
3.19776923076923e+00 3.46589200278619e-02 5.95926986210638e-04
3.22069230769231e+00 3.37511222448382e-02 5.82394591019027e-04
3.24361538461539e+00 3.28671017978129e-02 5.69155073509566e-04
3.26653846153846e+00 3.20062359056057e-02 5.56202637687987e-04
3.28946153846154e+00 3.11679180939723e-02 5.43531580211802e-04
3.31238461538462e+00 3.03515577762451e-02 5.31136288715509e-04
3.33530769230769e+00 2.95565798368946e-02 5.19011243658588e-04
3.35823076923077e+00 2.87824242193491e-02 5.07151016586373e-04
3.38115384615385e+00 2.80285455385778e-02 4.95550268401723e-04
3.40407692307692e+00 2.72944126965274e-02 4.84203750859466e-04
3.42700000000000e+00 2.65795085016311e-02 4.73106304791293e-04
3.44992307692308e+00 2.58833293109044e-02 4.62252858646575e-04
3.47284615384615e+00 2.52053846729427e-02 4.51638428485831e-04
3.49576923076923e+00 2.45451969842252e-02 4.41258117684463e-04
3.51869230769231e+00 2.39023011470842e-02 4.31107115492240e-04
3.54161538461539e+00 2.32762442477123e-02 4.21180695263176e-04
3.56453846153846e+00 2.26665852368171e-02 4.11474215316641e-04
3.58746153846154e+00 2.20728946138719e-02 4.01983117153257e-04
3.61038461538462e+00 2.14947541296579e-02 3.92702923695551e-04
3.63330769230769e+00 2.09317564913700e-02 3.83629239937964e-04
3.65623076923077e+00 2.03835050711245e-02 3.74757751184818e-04
3.67915384615385e+00 1.98496136311757e-02 3.66084221315040e-04
3.70207692307692e+00 1.93297060515933e-02 3.57604493252559e-04
3.72500000000000e+00 1.88234160611651e-02 3.49314487235812e-04
3.74792307692308e+00 1.83303869835613e-02 3.41210199319077e-04
3.77084615384615e+00 1.78502714846343e-02 3.33287700876765e-04
3.79376923076923e+00 1.73827313289130e-02 3.25543137927731e-04
3.81669230769231e+00 1.69274371376911e-02 3.17972729697441e-04
3.83961538461538e+00 1.64840681606769e-02 3.10572766971098e-04
3.86253846153846e+00 1.60523120498519e-02 3.03339612249805e-04
3.88546153846154e+00 1.56318646361362e-02 2.96269698122278e-04
3.90838461538462e+00 1.52224297184497e-02 2.89359525666688e-04
3.93130769230769e+00 1.48237188548850e-02 2.82605664504541e-04
3.95423076923077e+00 1.44354511565204e-02 2.76004751225815e-04
3.97715384615385e+00 1.40573530925700e-02 2.69553487844211e-04
4.00007692307692e+00 1.36891582975408e-02 2.63248641765768e-04
4.02300000000000e+00 1.33306073808773e-02 2.57087044269958e-04
4.04592307692308e+00 1.29814477469754e-02 2.51065589159425e-04
4.06884615384615e+00 1.26414334162970e-02 2.45181232103262e-04
4.09176923076923e+00 1.23103248528595e-02 2.39430989868116e-04
4.11469230769231e+00 1.19878887931041e-02 2.33811939039328e-04
4.13761538461539e+00 1.16738980839878e-02 2.28321214608921e-04
4.16053846153846e+00 1.13681315228419e-02 2.22956009802070e-04
4.18346153846154e+00 1.10703736993760e-02 2.17713574695357e-04
4.20638461538462e+00 1.07804148461219e-02 2.12591214863958e-04
4.22930769230769e+00 1.04980506905524e-02 2.07586291164220e-04
4.25223076923077e+00 1.02230823092109e-02 2.02696218412556e-04
4.27515384615385e+00 9.95531598956802e-03 1.97918464092456e-04
4.29807692307692e+00 9.69456309345929e-03 1.93250548102173e-04
4.32100000000000e+00 9.44063992241057e-03 1.88690041493663e-04
4.34392307692308e+00 9.19336759003705e-03 1.84234565333547e-04
4.36684615384615e+00 8.95257189540424e-03 1.79881790044435e-04
4.38976923076923e+00 8.71808320081958e-03 1.75629434676191e-04
4.41269230769231e+00 8.48973631075315e-03 1.71475265834787e-04
4.43561538461539e+00 8.26737035705862e-03 1.67417096526091e-04
4.45853846153846e+00 8.05082868556810e-03 1.63452785852184e-04
4.48146153846154e+00 7.83995874430333e-03 1.59580237887132e-04
4.50438461538462e+00 7.63461197745670e-03 1.55797400577908e-04
4.52730769230769e+00 7.43464372066795e-03 1.52102265427269e-04
4.55023076923077e+00 7.23991309781186e-03 1.48492866426570e-04
4.57315384615385e+00 7.05028292307264e-03 1.44967279012658e-04
4.59607692307692e+00 6.86561960423617e-03 1.41523619741870e-04
4.61900000000000e+00 6.68579304739667e-03 1.38160045278035e-04
4.64192307692308e+00 6.51067656650691e-03 1.34874751468442e-04
4.66484615384615e+00 6.34014679372181e-03 1.31665972752997e-04
4.68776923076923e+00 6.17408359282804e-03 1.28531981529700e-04
4.71069230769231e+00 6.01236997356770e-03 1.25471087289487e-04
4.73361538461539e+00 5.85489201028012e-03 1.22481635696677e-04
4.75653846153846e+00 5.70153876159297e-03 1.19562008257404e-04
4.77946153846154e+00 5.55220219131777e-03 1.16710621429334e-04
4.80238461538462e+00 5.40677709330339e-03 1.13925925752114e-04
4.82530769230769e+00 5.26516101727492e-03 1.11206405517388e-04
4.84823076923077e+00 5.12725419579652e-03 1.08550577927776e-04
4.87115384615385e+00 4.99295947486319e-03 1.05956992275555e-04
4.89407692307692e+00 4.86218224541603e-03 1.03424229616371e-04
4.91700000000000e+00 4.73483037590716e-03 1.00950901975310e-04
4.93992307692308e+00 4.61081414819195e-03 9.85356516162308e-05
4.96284615384615e+00 4.49004619405257e-03 9.61771505425475e-05
4.98576923076923e+00 4.37244143387500e-03 9.38740999708298e-05
5.00869230769231e+00 4.25791701601799e-03 9.16252296486872e-05
5.03161538461539e+00 4.14639225915063e-03 8.94292971378643e-05
5.05453846153846e+00 4.03778859538045e-03 8.72850875035672e-05
5.07746153846154e+00 3.93202951427197e-03 8.51914126225027e-05
5.10038461538462e+00 3.82904050958805e-03 8.31471105074794e-05
5.12330769230769e+00 3.72874902677150e-03 8.11510450049330e-05
5.14623076923077e+00 3.63108441125640e-03 7.92021051435292e-05
5.16915384615385e+00 3.53597785927738e-03 7.72992044984043e-05
5.19207692307692e+00 3.44336236937110e-03 7.54412808977056e-05
5.21500000000000e+00 3.35317269465111e-03 7.36272958096804e-05
5.23792307692308e+00 3.26534529737471e-03 7.18562337751648e-05
5.26084615384615e+00 3.17981830400043e-03 7.01271020010717e-05
5.28376923076923e+00 3.09653146175037e-03 6.84389299370409e-05
5.30669230769231e+00 3.01542609569962e-03 6.67907687467324e-05
5.32961538461539e+00 2.93644506791176e-03 6.51816907568951e-05
5.35253846153846e+00 2.85953273716408e-03 6.36107891875300e-05
5.37546153846154e+00 2.78463491932685e-03 6.20771776213476e-05
5.39838461538462e+00 2.71169884962051e-03 6.05799894861598e-05
5.42130769230769e+00 2.64067314542384e-03 5.91183777954237e-05
5.44423076923077e+00 2.57150776969079e-03 5.76915146500910e-05
5.46715384615385e+00 2.50415399609120e-03 5.62985907526343e-05
5.49007692307692e+00 2.43856437466556e-03 5.49388151581098e-05
5.51300000000000e+00 2.37469269804665e-03 5.36114148065898e-05
5.53592307692308e+00 2.31249396926355e-03 5.23156340881565e-05
5.55884615384615e+00 2.25192436992063e-03 5.10507345200067e-05
5.58176923076923e+00 2.19294122942960e-03 4.98159944132043e-05
5.60469230769231e+00 2.13550299463808e-03 4.86107084680225e-05
5.62761538461539e+00 2.07956920087180e-03 4.74341873551098e-05
5.65053846153846e+00 2.02510044341313e-03 4.62857574914461e-05
5.67346153846154e+00 1.97205834945785e-03 4.51647606377288e-05
5.69638461538462e+00 1.92040555136982e-03 4.40705535057087e-05
5.71930769230769e+00 1.87010566034278e-03 4.30025075444727e-05
5.74223076923077e+00 1.82112324050670e-03 4.19600085631670e-05
5.76515384615385e+00 1.77342378422616e-03 4.09424563630668e-05
5.78807692307692e+00 1.72697368777802e-03 3.99492645340041e-05
5.81100000000000e+00 1.68174022744267e-03 3.89798601009366e-05
5.83392307692308e+00 1.63769153668999e-03 3.80336831938357e-05
5.85684615384615e+00 1.59479658364839e-03 3.71101867957323e-05
5.87976923076923e+00 1.55302514931148e-03 3.62088364844634e-05
5.90269230769231e+00 1.51234780604045e-03 3.53291101259381e-05
5.92561538461539e+00 1.47273589704499e-03 3.44704975583923e-05
5.94853846153846e+00 1.43416151618511e-03 3.36325004117979e-05
5.97146153846154e+00 1.39659748812124e-03 3.28146318047714e-05
5.99438461538462e+00 1.36001734936310e-03 3.20164160490560e-05
6.01730769230769e+00 1.32439532961773e-03 3.12373884781971e-05
6.04023076923077e+00 1.28970633346079e-03 3.04770951639802e-05
6.06315384615385e+00 1.25592592283390e-03 2.97350926399622e-05
6.08607692307692e+00 1.22303029982015e-03 2.90109477391059e-05
6.10900000000000e+00 1.19099628972026e-03 2.83042373285474e-05
6.13192307692308e+00 1.15980132488755e-03 2.76145480610523e-05
6.15484615384615e+00 1.12942342877449e-03 2.69414761810164e-05
6.17776923076923e+00 1.09984120049647e-03 2.62846273266815e-05
6.20069230769231e+00 1.07103379961454e-03 2.56436162993959e-05
6.22361538461539e+00 1.04298093159657e-03 2.50180668271715e-05
6.24653846153846e+00 1.01566283351349e-03 2.44076114221225e-05
6.26946153846154e+00 9.89060259988144e-04 2.38118911537607e-05
6.29238461538462e+00 9.63154469767696e-04 2.32305554279996e-05
6.31530769230769e+00 9.37927212514715e-04 2.26632618524482e-05
6.33823076923077e+00 9.13360715832804e-04 2.21096760245864e-05
6.36115384615385e+00 8.89437672865357e-04 2.15694713252782e-05
6.38407692307692e+00 8.66141230097633e-04 2.10423287915894e-05
6.40700000000000e+00 8.43454975376658e-04 2.05279369189004e-05
6.42992307692308e+00 8.21362926457905e-04 2.00259914749575e-05
6.45284615384615e+00 7.99849519709003e-04 1.95361953520251e-05
6.47576923076923e+00 7.78899599176407e-04 1.90582584168058e-05
6.49869230769231e+00 7.58498405813221e-04 1.85918973379311e-05
6.52161538461538e+00 7.38631567178253e-04 1.81368354098646e-05
6.54453846153846e+00 7.19285087306393e-04 1.76928024420859e-05
6.56746153846154e+00 7.00445336761855e-04 1.72595345904076e-05
6.59038461538462e+00 6.82099043124627e-04 1.68367741925644e-05
6.61330769230769e+00 6.64233281636215e-04 1.64242696638219e-05
6.63623076923077e+00 6.46835466015039e-04 1.60217753395315e-05
6.65915384615385e+00 6.29893339670144e-04 1.56290513216772e-05
6.68207692307692e+00 6.13394967062906e-04 1.52458633805955e-05
6.70500000000000e+00 5.97328725226196e-04 1.48719828080418e-05
6.72792307692308e+00 5.81683295649774e-04 1.45071862787926e-05
6.75084615384615e+00 5.66447656281511e-04 1.41512557388861e-05
6.77376923076923e+00 5.51611073783509e-04 1.38039782925791e-05
6.79669230769231e+00 5.37163095906290e-04 1.34651460740229e-05
6.81961538461538e+00 5.23093544190723e-04 1.31345561167006e-05
6.84253846153846e+00 5.09392506794442e-04 1.28120102683010e-05
6.86546153846154e+00 4.96050331450306e-04 1.24973150657513e-05
6.88838461538462e+00 4.83057618726246e-04 1.21902816134310e-05
6.91130769230769e+00 4.70405215400776e-04 1.18907255031715e-05
6.93423076923077e+00 4.58084207960947e-04 1.15984666977188e-05
6.95715384615385e+00 4.46085916377498e-04 1.13133294171649e-05
6.98007692307692e+00 4.34401887987391e-04 1.10351420637995e-05
7.00300000000000e+00 4.23023891489943e-04 1.07637371134475e-05
7.02592307692308e+00 4.11943911197882e-04 1.04989510129065e-05
7.04884615384615e+00 4.01154141373433e-04 1.02406240960238e-05
7.07176923076923e+00 3.90646980743526e-04 9.98860049906294e-06
7.09469230769231e+00 3.80415027101177e-04 9.74272806565088e-06
7.11761538461538e+00 3.70451072135084e-04 9.50285825033949e-06
7.14053846153846e+00 3.60748096349445e-04 9.26884605382173e-06
7.16346153846154e+00 3.51299264078930e-04 9.04054993069014e-06
7.18638461538462e+00 3.42097918713582e-04 8.81783169955217e-06
7.20930769230769e+00 3.33137578007484e-04 8.60055648226250e-06
7.23223076923077e+00 3.24411929475637e-04 8.38859261796903e-06
