Energy (eV)          EEDF (eV^-(3/2))     First Anisotropy
3.33720930232558e-02 4.69808860059391e-02 2.68700791933400e-05
1.00116279069767e-01 4.66046916376009e-02 4.43415611328533e-05
1.66860465116279e-01 4.62315096051200e-02 5.84602294712527e-05
2.33604651162791e-01 4.58613157874741e-02 6.91403564352725e-05
3.00348837209302e-01 4.54940862568388e-02 7.80097797367175e-05
3.67093023255814e-01 4.51297972769993e-02 8.56849890725842e-05
4.33837209302326e-01 4.47684253018093e-02 9.24855229501743e-05
5.00581395348837e-01 4.44099469736675e-02 9.86046387750817e-05
5.67325581395349e-01 4.40543391220063e-02 1.04170703230735e-04
6.34069767441860e-01 4.37015787617948e-02 1.09274580078927e-04
7.00813953488372e-01 4.33516430920523e-02 1.13983632197408e-04
7.67558139534884e-01 4.30045094939035e-02 1.18349593557338e-04
8.34302325581395e-01 4.26601555305791e-02 1.22413318294188e-04
9.01046511627907e-01 4.23185589444460e-02 1.26207806415446e-04
9.67790697674419e-01 4.19796976560983e-02 1.29760217274943e-04
1.03453488372093e+00 4.16435497632574e-02 1.33093258736581e-04
1.10127906976744e+00 4.13100935370668e-02 1.36226173572296e-04
1.16802325581395e+00 4.09793074274107e-02 1.39175459784106e-04
1.23476744186047e+00 4.06511700506832e-02 1.41955406071959e-04
1.30151162790698e+00 4.03256602000714e-02 1.44578498814121e-04
1.36825581395349e+00 4.00027568334347e-02 1.47055736631216e-04
1.43500000000000e+00 3.96824390796898e-02 1.49396875404411e-04
1.50174418604651e+00 3.93646862370873e-02 1.51610625313867e-04
1.56848837209302e+00 3.90494777652145e-02 1.53704807044080e-04
1.63523255813953e+00 3.87367932903407e-02 1.55686478482837e-04
1.70197674418605e+00 3.84266126037994e-02 1.57562040735222e-04
1.76872093023256e+00 3.81189156548763e-02 1.59337323615605e-04
1.83546511627907e+00 3.78136825570636e-02 1.61017657910644e-04
1.90220930232558e+00 3.75108935796530e-02 1.62607936236241e-04
1.96895348837209e+00 3.72105291516423e-02 1.64112663361337e-04
2.03569767441860e+00 3.69125698602713e-02 1.65536001126128e-04
2.10244186046512e+00 3.66169964451583e-02 1.66881804961281e-04
2.16918604651163e+00 3.63237898030666e-02 1.68153656208329e-04
2.23593023255814e+00 3.60329309809533e-02 1.69354890208734e-04
2.30267441860465e+00 3.57444011789228e-02 1.70488619716731e-04
2.36941860465116e+00 3.54581817488706e-02 1.71557757198889e-04
2.43616279069767e+00 3.51742541895059e-02 1.72565032653986e-04
2.50290697674419e+00 3.48926001500861e-02 1.73513010100526e-04
2.56965116279070e+00 3.46132014245151e-02 1.74404102247430e-04
2.63639534883721e+00 3.43360399536247e-02 1.75240582606429e-04
2.70313953488372e+00 3.40610978239032e-02 1.76024597933417e-04
2.76988372093023e+00 3.37883572631800e-02 1.76758177764527e-04
2.83662790697674e+00 3.35178006436103e-02 1.77443243679342e-04
2.90337209302326e+00 3.32494104765659e-02 1.78081617700811e-04
2.97011627906977e+00 3.29831694144225e-02 1.78675029048526e-04
3.03686046511628e+00 3.27190602493585e-02 1.79225121739676e-04
3.10360465116279e+00 3.24570659095567e-02 1.79733460038637e-04
3.17034883720930e+00 3.21971694616215e-02 1.80201534062561e-04
3.23709302325581e+00 3.19393541060905e-02 1.80630764946357e-04
3.30383720930233e+00 3.16836031788503e-02 1.81022508814579e-04
3.37058139534884e+00 3.14299001499923e-02 1.81378061777452e-04
3.43732558139535e+00 3.11782286204310e-02 1.81698663193592e-04
3.50406976744186e+00 3.09285723238818e-02 1.81985499269338e-04
3.57081395348837e+00 3.06809151228726e-02 1.82239706421768e-04
3.63755813953488e+00 3.04352410098698e-02 1.82462373702993e-04
3.70430232558140e+00 3.01915341061874e-02 1.82654546287445e-04
3.77104651162791e+00 2.99497786589464e-02 1.82817227488651e-04
3.83779069767442e+00 2.97099590427056e-02 1.82951381185002e-04
3.90453488372093e+00 2.94720597558840e-02 1.83057934115111e-04
3.97127906976744e+00 2.92360654216583e-02 1.83137777392958e-04
4.03802325581395e+00 2.90019607869208e-02 1.83191769066692e-04
4.10476744186046e+00 2.87697307195243e-02 1.83220735389157e-04
4.17151162790698e+00 2.85393602096333e-02 1.83225472520342e-04
4.23825581395349e+00 2.83108343664915e-02 1.83206748157270e-04
4.30500000000000e+00 2.80841384191356e-02 1.83165302491272e-04
4.37174418604651e+00 2.78592577153986e-02 1.83101850165270e-04
4.43848837209302e+00 2.76361777193972e-02 1.83017081179802e-04
4.50523255813953e+00 2.74148840121646e-02 1.82911661727106e-04
4.57197674418605e+00 2.71953622906796e-02 1.82786235890981e-04
4.63872093023256e+00 2.69775983654724e-02 1.82641426254660e-04
4.70546511627907e+00 2.67615781616472e-02 1.82477834937233e-04
4.77220930232558e+00 2.65472877160835e-02 1.82296044603872e-04
4.83895348837209e+00 2.63347131779337e-02 1.82096618915247e-04
4.90569767441860e+00 2.61238408076952e-02 1.81880103898217e-04
4.97244186046512e+00 2.59146569750085e-02 1.81647028322029e-04
5.03918604651163e+00 2.57071481595105e-02 1.81397904485872e-04
5.10593023255814e+00 2.55013009482702e-02 1.81133228994857e-04
5.17267441860465e+00 2.52971020361748e-02 1.80853483028682e-04
5.23941860465116e+00 2.50945382250427e-02 1.80559133475594e-04
5.30616279069767e+00 2.48935964215900e-02 1.80250633153911e-04
5.37290697674419e+00 2.46942636381421e-02 1.79928421424745e-04
5.43965116279070e+00 2.44965269902745e-02 1.79592924802072e-04
5.50639534883721e+00 2.43003736971073e-02 1.79244557099536e-04
5.57313953488372e+00 2.41057910804554e-02 1.78883720388738e-04
5.63988372093023e+00 2.39127665629452e-02 1.78510805115777e-04
5.70662790697674e+00 2.37212876686061e-02 1.78126190587921e-04
5.77337209302326e+00 2.35313420206927e-02 1.77730245463024e-04
5.84011627906977e+00 2.33429173419028e-02 1.77323327813140e-04
5.90686046511628e+00 2.31560014535631e-02 1.76905785948722e-04
5.97360465116279e+00 2.29705822738791e-02 1.76477958463045e-04
6.04034883720930e+00 2.27866478184263e-02 1.76040174625872e-04
6.10709302325581e+00 2.26041861981320e-02 1.75592754783071e-04
6.17383720930233e+00 2.24231856194305e-02 1.75136010363017e-04
6.24058139534884e+00 2.22436343834818e-02 1.74670244595887e-04
6.30732558139535e+00 2.20655208845419e-02 1.74195752508087e-04
6.37406976744186e+00 2.18888336103670e-02 1.73712821245914e-04
6.44081395348837e+00 2.17135611403403e-02 1.73221730407010e-04
6.50755813953488e+00 2.15396921455727e-02 1.72722752007233e-04
6.57430232558140e+00 2.13672153881544e-02 1.72216151115998e-04
6.64104651162791e+00 2.11961197196323e-02 1.71702185816105e-04
6.70779069767442e+00 2.10263940813417e-02 1.71181107473652e-04
6.77453488372093e+00 2.08580275026614e-02 1.70653161016727e-04
6.84127906976744e+00 2.06910091010707e-02 1.70118584875121e-04
6.90802325581395e+00 2.05253280814305e-02 1.69577611547145e-04
6.97476744186046e+00 2.03609737345594e-02 1.69030467535562e-04
7.04151162790698e+00 2.01979354375019e-02 1.68477373575609e-04
7.10825581395349e+00 2.00362026519007e-02 1.67918544872184e-04
7.17500000000000e+00 1.98757649240161e-02 1.67354191021011e-04
7.24174418604651e+00 1.97166118840358e-02 1.66784516518602e-04
7.30848837209302e+00 1.95587332447407e-02 1.66209720737411e-04
7.37523255813953e+00 1.94021188015069e-02 1.65629997898298e-04
7.44197674418605e+00 1.92467584316333e-02 1.65045537552352e-04
7.50872093023256e+00 1.90926420930531e-02 1.64456524492434e-04
7.57546511627907e+00 1.89397598245244e-02 1.63863138931563e-04
7.64220930232558e+00 1.87881017441630e-02 1.63265556690722e-04
7.70895348837209e+00 1.86376580494161e-02 1.62663949101303e-04
7.77569767441860e+00 1.84884190164171e-02 1.62058483443238e-04
7.84244186046512e+00 1.83403749987745e-02 1.61449322848467e-04
7.90918604651163e+00 1.81935164277197e-02 1.60836626455605e-04
7.97593023255814e+00 1.80478338107317e-02 1.60220549574021e-04
8.04267441860465e+00 1.79033177314871e-02 1.59601243580468e-04
8.10941860465116e+00 1.77599588492402e-02 1.58978856319621e-04
8.17616279069767e+00 1.76177478976838e-02 1.58353532002701e-04
8.24290697674419e+00 1.74766756850598e-02 1.57725411342711e-04
8.30965116279070e+00 1.73367330928684e-02 1.57094631698898e-04
8.37639534883721e+00 1.71979110757974e-02 1.56461326970243e-04
8.44313953488372e+00 1.70602006611281e-02 1.55825627963289e-04
8.50988372093023e+00 1.69235929476608e-02 1.55187662288278e-04
8.57662790697674e+00 1.67880791057942e-02 1.54547554478272e-04
8.64337209302326e+00 1.66536503763121e-02 1.53905426117229e-04
8.71011627906977e+00 1.65202980702956e-02 1.53261395732320e-04
8.77686046511628e+00 1.63880135685526e-02 1.52615579132980e-04
8.84360465116279e+00 1.62567883206051e-02 1.51968089306311e-04
8.91034883720930e+00 1.61266138447399e-02 1.51319036522692e-04
8.97709302325581e+00 1.59974817268675e-02 1.50668528450040e-04
9.04383720930232e+00 1.58693836204200e-02 1.50016670046345e-04
9.11058139534884e+00 1.57423112458038e-02 1.49363563873289e-04
9.17732558139535e+00 1.56162563894427e-02 1.48709309992088e-04
9.24406976744186e+00 1.54912109038051e-02 1.48054006057733e-04
9.31081395348837e+00 1.53671667063296e-02 1.47397747421454e-04
9.37755813953488e+00 1.52441157793103e-02 1.46740627024520e-04
9.44430232558140e+00 1.51220501693721e-02 1.46082735689161e-04
9.51104651162791e+00 1.50009619865656e-02 1.45424162015773e-04
9.57779069767442e+00 1.48808434043750e-02 1.44764992467454e-04
9.64453488372093e+00 1.47616866587031e-02 1.44105311462317e-04
9.71127906976744e+00 1.46434840477490e-02 1.43445201269325e-04
9.77802325581395e+00 1.45262279315032e-02 1.42784742278837e-04
9.84476744186046e+00 1.44099107308917e-02 1.42124012901785e-04
9.91151162790698e+00 1.42945249277661e-02 1.41463089645894e-04
9.97825581395349e+00 1.41800630639458e-02 1.40802047164875e-04
1.00450000000000e+01 1.40665177412000e-02 1.40140958328642e-04
1.01117441860465e+01 1.39538816202015e-02 1.39479894234253e-04
1.01784883720930e+01 1.38421474206193e-02 1.38818924139174e-04
1.02452325581395e+01 1.37313079204195e-02 1.38158115676291e-04
1.03119767441860e+01 1.36213559553980e-02 1.37497534495073e-04
1.03787209302326e+01 1.35122844197648e-02 1.36837245281520e-04
1.04454651162791e+01 1.34040862625192e-02 1.36177311135891e-04
1.05122093023256e+01 1.32967544901823e-02 1.35517792940205e-04
1.05789534883721e+01 1.31902821652741e-02 1.34858750397728e-04
1.06456976744186e+01 1.30846624058653e-02 1.34200241728521e-04
1.07124418604651e+01 1.29798883851339e-02 1.33542323702145e-04
1.07791860465116e+01 1.28759533309224e-02 1.32885051368511e-04
1.08459302325581e+01 1.27728505262487e-02 1.32228478997462e-04
1.09126744186047e+01 1.26705733060083e-02 1.31572659500525e-04
1.09794186046512e+01 1.25691150594266e-02 1.30917643843203e-04
1.10461627906977e+01 1.24684692286642e-02 1.30263482003140e-04
1.11129069767442e+01 1.23686293083916e-02 1.29610222685845e-04
1.11796511627907e+01 1.22695888453712e-02 1.28957913352140e-04
1.12463953488372e+01 1.21713414380390e-02 1.28306599966695e-04
1.13131395348837e+01 1.20738807369489e-02 1.27656327864756e-04
1.13798837209302e+01 1.19772004417697e-02 1.27007141214767e-04
1.14466279069767e+01 1.18812943034887e-02 1.26359082472163e-04
1.15133720930233e+01 1.17861561231313e-02 1.25712193263753e-04
1.15801162790698e+01 1.16917797513597e-02 1.25066514122433e-04
1.16468604651163e+01 1.15981590880771e-02 1.24422084510330e-04
1.17136046511628e+01 1.15052880820324e-02 1.23778942583982e-04
1.17803488372093e+01 1.14131607312084e-02 1.23137125994941e-04
1.18470930232558e+01 1.13217710800803e-02 1.22496671390186e-04
1.19138372093023e+01 1.12311132216006e-02 1.21857613904397e-04
1.19805813953488e+01 1.11411812960215e-02 1.21219987977066e-04
1.20473255813953e+01 1.10519694905159e-02 1.20583827105213e-04
1.21140697674419e+01 1.09634720388027e-02 1.19949163862985e-04
1.21808139534884e+01 1.08756832207740e-02 1.19316029682249e-04
1.22475581395349e+01 1.07885973628328e-02 1.18684455593117e-04
1.23143023255814e+01 1.07022088353880e-02 1.18054471759298e-04
1.23810465116279e+01 1.06165120546436e-02 1.17426107006020e-04
1.24477906976744e+01 1.05315014815152e-02 1.16799389575756e-04
1.25145348837209e+01 1.04471716212716e-02 1.16174346897761e-04
1.25812790697674e+01 1.03635170231802e-02 1.15551005604769e-04
1.26480232558140e+01 1.02805322801545e-02 1.14929391327995e-04
1.27147674418605e+01 1.01982120290497e-02 1.14309529382780e-04
1.27815116279070e+01 1.01165509483684e-02 1.13691444336336e-04
1.28482558139535e+01 1.00355437598769e-02 1.13075159568608e-04
1.29150000000000e+01 9.95518522760665e-03 1.12460697971937e-04
1.29817441860465e+01 9.87547015751491e-03 1.11848081736265e-04
1.30484883720930e+01 9.79639339714974e-03 1.11237332363402e-04
1.31152325581395e+01 9.71794983531720e-03 1.10628470681467e-04
1.31819767441860e+01 9.64013440175058e-03 1.10021516654909e-04
1.32487209302326e+01 9.56294206736332e-03 1.09416490013488e-04
1.33154651162791e+01 9.48636784217064e-03 1.08813409853783e-04
1.33822093023256e+01 9.41040677673206e-03 1.08212294234361e-04
1.34489534883721e+01 9.33505396123896e-03 1.07613160817742e-04
1.35156976744186e+01 9.26030452519726e-03 1.07016026671655e-04
1.35824418604651e+01 9.18615363711318e-03 1.06420908281436e-04
1.36491860465116e+01 9.11259650418058e-03 1.05827821372774e-04
1.37159302325581e+01 9.03962837250105e-03 1.05236781494988e-04
1.37826744186046e+01 8.96724452517637e-03 1.04647803650061e-04
1.38494186046512e+01 8.89544028361459e-03 1.04060901915759e-04
1.39161627906977e+01 8.82421100668697e-03 1.03476090041140e-04
1.39829069767442e+01 8.75355209042772e-03 1.02893381261140e-04
1.40496511627907e+01 8.68345896773721e-03 1.02312788307237e-04
1.41163953488372e+01 8.61392710808632e-03 1.01734323242037e-04
1.41831395348837e+01 8.54495201770793e-03 1.01157998000608e-04
1.42498837209302e+01 8.47652923784395e-03 1.00583824044974e-04
1.43166279069767e+01 8.40865434592935e-03 1.00011812013139e-04
1.43833720930233e+01 8.34132295481225e-03 9.94419722719297e-05
1.44501162790698e+01 8.27453071246992e-03 9.88743147439475e-05
1.45168604651163e+01 8.20827330172844e-03 9.83088489167844e-05
1.45836046511628e+01 8.14254643998314e-03 9.77455836886447e-05
1.46503488372093e+01 8.07734587936488e-03 9.71845278710432e-05
1.47170930232558e+01 8.01266740512757e-03 9.66256898669647e-05
1.47838372093023e+01 7.94850683672248e-03 9.60690773438942e-05
1.48505813953488e+01 7.88486002707613e-03 9.55146977472706e-05
1.49173255813953e+01 7.82172286232195e-03 9.49625581390946e-05
1.49840697674419e+01 7.75909126153492e-03 9.44126652059014e-05
1.50508139534884e+01 7.69696117646764e-03 9.38650251145379e-05
1.51175581395349e+01 7.63532859169438e-03 9.33196439793952e-05
1.51843023255814e+01 7.57418952312622e-03 9.27765275624562e-05
1.52510465116279e+01 7.51354001898688e-03 9.22356809685823e-05
1.53177906976744e+01 7.45337615914348e-03 9.16971091226787e-05
1.53845348837209e+01 7.39369405485291e-03 9.11608166191628e-05
1.54512790697674e+01 7.33448984851085e-03 9.06268077288518e-05
1.55180232558140e+01 7.27575971340241e-03 9.00950862642013e-05
1.55847674418605e+01 7.21749985382669e-03 8.95656560138356e-05
1.56515116279070e+01 7.15970650372821e-03 8.90385204628912e-05
1.57182558139535e+01 7.10237592758401e-03 8.85136825089591e-05
1.57850000000000e+01 7.04550441978291e-03 8.79911449057790e-05
1.58517441860465e+01 6.98908830438583e-03 8.74709101227833e-05
1.59184883720930e+01 6.93312393488835e-03 8.69529803510642e-05
1.59852325581395e+01 6.87760769398517e-03 8.64373575094837e-05
1.60519767441860e+01 6.82253599333618e-03 8.59240431197814e-05
1.61187209302326e+01 6.76790527367193e-03 8.54130387069861e-05
1.61854651162791e+01 6.71371200354467e-03 8.49043455409998e-05
1.62522093023256e+01 6.65995268012564e-03 8.43979643741278e-05
1.63189534883721e+01 6.60662382863448e-03 8.38938958499917e-05
1.63856976744186e+01 6.55372200211467e-03 8.33921403734388e-05
1.64524418604651e+01 6.50124378121095e-03 8.28926981158502e-05
1.65191860465116e+01 6.44918577394820e-03 8.23955688984853e-05
1.65859302325581e+01 6.39754461582209e-03 8.19007525652088e-05
1.66526744186047e+01 6.34631696864579e-03 8.14082487414249e-05
1.67194186046512e+01 6.29549952127609e-03 8.09180565891940e-05
1.67861627906977e+01 6.24508898908333e-03 8.04301751879482e-05
1.68529069767442e+01 6.19508211373900e-03 7.99446034129610e-05
1.69196511627907e+01 6.14547566300549e-03 7.94613399399594e-05
1.69863953488372e+01 6.09626643052695e-03 7.89803831361725e-05
1.70531395348837e+01 6.04745123590699e-03 7.85017314074182e-05
1.71198837209302e+01 5.99902692364290e-03 7.80253829731483e-05
1.71866279069767e+01 5.95099036378738e-03 7.75513356379176e-05
1.72533720930233e+01 5.90333845145585e-03 7.70795871459891e-05
1.73201162790698e+01 5.85606810662552e-03 7.66101350677979e-05
1.73868604651163e+01 5.80917627393674e-03 7.61429768039654e-05
1.74536046511628e+01 5.76265992249532e-03 7.56781094834793e-05
1.75203488372093e+01 5.71651604593871e-03 7.52155302870804e-05
1.75870930232558e+01 5.67074166145038e-03 7.47552362372679e-05
1.76538372093023e+01 5.62533381036338e-03 7.42972239849635e-05
1.77205813953488e+01 5.58028955770195e-03 7.38414901399274e-05
1.77873255813953e+01 5.53560599199167e-03 7.33880311646972e-05
1.78540697674419e+01 5.49128022507151e-03 7.29368433780690e-05
1.79208139534884e+01 5.44730939190715e-03 7.24879228598941e-05
1.79875581395349e+01 5.40369065064694e-03 7.20412657525318e-05
1.80543023255814e+01 5.36042118170987e-03 7.15968680647611e-05
1.81210465116279e+01 5.31749818833634e-03 7.11547254725846e-05
1.81877906976744e+01 5.27491889616149e-03 7.07148336271912e-05
1.82545348837209e+01 5.23268055303576e-03 7.02771880558810e-05
1.83212790697674e+01 5.19078042884715e-03 6.98417841650937e-05
1.83880232558140e+01 5.14921581534483e-03 6.94086171513454e-05
1.84547674418605e+01 5.10798402618618e-03 6.89776822823623e-05
1.85215116279070e+01 5.06708239609229e-03 6.85489747139133e-05
1.85882558139535e+01 5.02650828135085e-03 6.81224893037743e-05
1.86550000000000e+01 4.98625905941876e-03 6.76982208988800e-05
1.87217441860465e+01 4.94633212875259e-03 6.72761642427328e-05
1.87884883720930e+01 4.90672490864044e-03 6.68563139780412e-05
1.88552325581395e+01 4.86743483903528e-03 6.64386646494427e-05
1.89219767441860e+01 4.82845938038935e-03 6.60232106208778e-05
1.89887209302326e+01 4.78979601369269e-03 6.56099463353943e-05
1.90554651162791e+01 4.75144223969854e-03 6.51988661455670e-05
1.91222093023256e+01 4.71339557937744e-03 6.47899641412526e-05
1.91889534883721e+01 4.67565357355042e-03 6.43832344149858e-05
1.92556976744186e+01 4.63821378273007e-03 6.39786709761054e-05
1.93224418604651e+01 4.60107378696300e-03 6.35762677531267e-05
1.93891860465116e+01 4.56423118567333e-03 6.31760185164686e-05
1.94559302325581e+01 4.52768359769443e-03 6.27779171208895e-05
1.95226744186047e+01 4.49142866055074e-03 6.23819573469965e-05
1.95894186046512e+01 4.45546403087293e-03 6.19881327402741e-05
1.96561627906977e+01 4.41978738405589e-03 6.15964368587757e-05
1.97229069767442e+01 4.38439641410843e-03 6.12068631927816e-05
1.97896511627907e+01 4.34928883350448e-03 6.08194051668753e-05
1.98563953488372e+01 4.31446237303503e-03 6.04340560676585e-05
1.99231395348837e+01 4.27991478183407e-03 6.00508092700426e-05
1.99898837209302e+01 4.24564382671222e-03 5.96696580891029e-05
2.00566279069767e+01 4.21164729253652e-03 5.92905956295921e-05
2.01233720930233e+01 4.17792298191143e-03 5.89136150171813e-05
2.01901162790698e+01 4.14446871503670e-03 5.85387093233003e-05
2.02568604651163e+01 4.11128232956669e-03 5.81658715669180e-05
2.03236046511628e+01 4.07836168047051e-03 5.77950946469306e-05
2.03903488372093e+01 4.04570464005269e-03 5.74263715534498e-05
2.04570930232558e+01 4.01330909733471e-03 5.70596952292841e-05
2.05238372093023e+01 3.98117295840247e-03 5.66950584292363e-05
2.05905813953488e+01 3.94929414610871e-03 5.63324539360196e-05
2.06573255813953e+01 3.91767059993855e-03 5.59718744899569e-05
2.07240697674419e+01 3.88630027587656e-03 5.56133127905249e-05
2.07908139534884e+01 3.85518114627453e-03 5.52567614330428e-05
2.08575581395349e+01 3.82431119986765e-03 5.49022131060468e-05
2.09243023255814e+01 3.79368844120009e-03 5.45496604617405e-05
2.09910465116279e+01 3.76331089094320e-03 5.41990959844008e-05
2.10577906976744e+01 3.73317658561757e-03 5.38505121920421e-05
