Energy (eV)          EEDF (eV^-(3/2))     First Anisotropy
2.16666666666667e-02 1.33536759823112e-01 8.69652999440429e-05
6.50000000000000e-02 1.32144293650904e-01 1.43337577464563e-04
1.08333333333333e-01 1.30766347539040e-01 1.88516227625047e-04
1.51666666666667e-01 1.29402770080868e-01 2.22412392795505e-04
1.95000000000000e-01 1.28053411447336e-01 2.50331535879741e-04
2.38333333333333e-01 1.26718123363696e-01 2.74290269898580e-04
2.81666666666667e-01 1.25396759115032e-01 2.95337474051678e-04
3.25000000000000e-01 1.24089173508234e-01 3.14109657933830e-04
3.68333333333333e-01 1.22795222861390e-01 3.31031013135514e-04
4.11666666666667e-01 1.21514764998772e-01 3.46402786607330e-04
4.55000000000000e-01 1.20247659222739e-01 3.60449034423700e-04
4.98333333333333e-01 1.18993766300523e-01 3.73342377540516e-04
5.41666666666667e-01 1.17752948456701e-01 3.85219561288475e-04
5.85000000000000e-01 1.16525069349505e-01 3.96191381475478e-04
6.28333333333333e-01 1.15309994057077e-01 4.06349297639339e-04
6.71666666666667e-01 1.14107589068601e-01 4.15770001815242e-04
7.15000000000000e-01 1.12917722263223e-01 4.24518669682767e-04
7.58333333333333e-01 1.11740262896318e-01 4.32651332229324e-04
8.01666666666667e-01 1.10575081589883e-01 4.40216646158114e-04
8.45000000000000e-01 1.09422050313271e-01 4.47257239921544e-04
8.88333333333333e-01 1.08281042369648e-01 4.53810753159568e-04
9.31666666666667e-01 1.07151932386012e-01 4.59910653308301e-04
9.75000000000000e-01 1.06034596295272e-01 4.65586884820238e-04
1.01833333333333e+00 1.04928911323011e-01 4.70866390406783e-04
1.06166666666667e+00 1.03834755977308e-01 4.75773535553129e-04
1.10500000000000e+00 1.02752010034800e-01 4.80330458917644e-04
1.14833333333333e+00 1.01680554513321e-01 4.84557357486000e-04
1.19166666666667e+00 1.00620271690674e-01 4.88472729314021e-04
1.23500000000000e+00 9.95710450621205e-02 4.92093579755233e-04
1.27833333333333e+00 9.85327593298891e-02 4.95435587142143e-04
1.32166666666667e+00 9.75053004151976e-02 4.98513252472538e-04
1.36500000000000e+00 9.64885554201052e-02 5.01340027867100e-04
1.40833333333333e+00 9.54824126169646e-02 5.03928419286992e-04
1.45166666666667e+00 9.44867614578297e-02 5.06290083392322e-04
1.49500000000000e+00 9.35014925398781e-02 5.08435911967760e-04
1.53833333333333e+00 9.25264975949101e-02 5.10376098305335e-04
1.58166666666667e+00 9.15616694966649e-02 5.12120202812089e-04
1.62500000000000e+00 9.06069022292230e-02 5.13677210934060e-04
1.66833333333333e+00 8.96620908766209e-02 5.15055577474766e-04
1.71166666666667e+00 8.87271316284720e-02 5.16263272775438e-04
1.75500000000000e+00 8.78019217508984e-02 5.17307823926707e-04
1.79833333333333e+00 8.68863595763076e-02 5.18196345116927e-04
1.84166666666667e+00 8.59803445076243e-02 5.18935571222379e-04
1.88500000000000e+00 8.50837769914002e-02 5.19531888057408e-04
1.92833333333333e+00 8.41965585077838e-02 5.19991353565056e-04
1.97166666666667e+00 8.33185915736030e-02 5.20319722953762e-04
2.01500000000000e+00 8.24497797173752e-02 5.20522471511789e-04
2.05833333333333e+00 8.15900274694888e-02 5.20604809617162e-04
2.10166666666667e+00 8.07392403643307e-02 5.20571702021878e-04
2.14500000000000e+00 7.98973249169689e-02 5.20427885472664e-04
2.18833333333333e+00 7.90641886135602e-02 5.20177879445403e-04
2.23166666666667e+00 7.82397399126774e-02 5.19826001267430e-04
2.27500000000000e+00 7.74238882234796e-02 5.19376380016373e-04
2.31833333333333e+00 7.66165438963528e-02 5.18832964234344e-04
2.36166666666667e+00 7.58176182235653e-02 5.18199534019506e-04
2.40500000000000e+00 7.50270234187705e-02 5.17479712196258e-04
2.44833333333333e+00 7.42446726078846e-02 5.16676969857676e-04
2.49166666666667e+00 7.34704798291763e-02 5.15794636202816e-04
2.53500000000000e+00 7.27043600139706e-02 5.14835907665227e-04
2.57833333333333e+00 7.19462289777657e-02 5.13803851869875e-04
2.62166666666667e+00 7.11960034198450e-02 5.12701415761596e-04
2.66500000000000e+00 7.04536009050711e-02 5.11531433177680e-04
2.70833333333333e+00 6.97189398552407e-02 5.10296627632367e-04
2.75166666666667e+00 6.89919395482934e-02 5.08999619127315e-04
2.79500000000000e+00 6.82725201010997e-02 5.07642930518448e-04
2.83833333333333e+00 6.75606024610528e-02 5.06228989424294e-04
2.88166666666667e+00 6.68561084049367e-02 5.04760134003853e-04
2.92500000000000e+00 6.61589605226244e-02 5.03238618374762e-04
2.96833333333333e+00 6.54690822089048e-02 5.01666613861176e-04
3.01166666666667e+00 6.47863976620619e-02 5.00046213950855e-04
3.05500000000000e+00 6.41108318684124e-02 4.98379438956413e-04
3.09833333333333e+00 6.34423105943624e-02 4.96668236762002e-04
3.14166666666667e+00 6.27807603847448e-02 4.94914487119315e-04
3.18500000000000e+00 6.21261085481304e-02 4.93120005697093e-04
3.22833333333333e+00 6.14782831491125e-02 4.91286544445558e-04
3.27166666666667e+00 6.08372130064396e-02 4.89415795353500e-04
3.31500000000000e+00 6.02028276790448e-02 4.87509393997456e-04
3.35833333333333e+00 5.95750574585524e-02 4.85568919613711e-04
3.40166666666667e+00 5.89538333672408e-02 4.83595898411073e-04
3.44500000000000e+00 5.83390871447389e-02 4.81591806706366e-04
3.48833333333333e+00 5.77307512407504e-02 4.79558070772509e-04
3.53166666666667e+00 5.71287588128753e-02 4.77496069781128e-04
3.57500000000000e+00 5.65330437139287e-02 4.75407138592482e-04
3.61833333333333e+00 5.59435404848774e-02 4.73292567432265e-04
3.66166666666667e+00 5.53601843525456e-02 4.71153604522846e-04
3.70500000000000e+00 5.47829112175145e-02 4.68991458581841e-04
3.74833333333333e+00 5.42116576472676e-02 4.66807298368433e-04
3.79166666666667e+00 5.36463608738009e-02 4.64602255050322e-04
3.83500000000000e+00 5.30869587820676e-02 4.62377424454522e-04
3.87833333333333e+00 5.25333899033259e-02 4.60133866515000e-04
3.92166666666667e+00 5.19855934126735e-02 4.57872607413339e-04
3.96500000000000e+00 5.14435091180039e-02 4.55594641617072e-04
4.00833333333333e+00 5.09070774535514e-02 4.53300931253645e-04
4.05166666666667e+00 5.03762394773663e-02 4.50992408055935e-04
4.09500000000000e+00 4.98509368607522e-02 4.48669975216934e-04
4.13833333333333e+00 4.93311118820036e-02 4.46334506709680e-04
4.18166666666667e+00 4.88167074238356e-02 4.43986849063293e-04
4.22500000000000e+00 4.83076669632754e-02 4.41627823057808e-04
4.26833333333333e+00 4.78039345655854e-02 4.39258223005604e-04
4.31166666666667e+00 4.73054548816625e-02 4.36878818379210e-04
4.35500000000000e+00 4.68121731383556e-02 4.34490355366157e-04
4.39833333333333e+00 4.63240351325720e-02 4.32093556124228e-04
4.44166666666667e+00 4.58409872286545e-02 4.29689120278817e-04
4.48500000000000e+00 4.53629763491033e-02 4.27277726354412e-04
4.52833333333333e+00 4.48899499688598e-02 4.24860031013395e-04
4.57166666666667e+00 4.44218561126712e-02 4.22436670437976e-04
4.61500000000000e+00 4.39586433461957e-02 4.20008261652353e-04
4.65833333333333e+00 4.35002607704579e-02 4.17575401752918e-04
4.70166666666667e+00 4.30466580192101e-02 4.15138669187411e-04
4.74500000000000e+00 4.25977852503997e-02 4.12698624979629e-04
4.78833333333333e+00 4.21535931407925e-02 4.10255811957256e-04
4.83166666666667e+00 4.17140328833370e-02 4.07810755939087e-04
4.87500000000000e+00 4.12790561789764e-02 4.05363966872564e-04
4.91833333333333e+00 4.08486152314339e-02 4.02915938064084e-04
4.96166666666667e+00 4.04226627445875e-02 4.00467147283623e-04
5.00500000000000e+00 4.00011519146085e-02 3.98018057823836e-04
5.04833333333333e+00 3.95840364249044e-02 3.95569117736732e-04
5.09166666666667e+00 3.91712704435100e-02 3.93120760863850e-04
5.13500000000000e+00 3.87628086155355e-02 3.90673407824492e-04
5.17833333333333e+00 3.83586060582638e-02 3.88227465261767e-04
5.22166666666667e+00 3.79586183585607e-02 3.85783326805308e-04
5.26500000000000e+00 3.75628015656198e-02 3.83341373995240e-04
5.30833333333333e+00 3.71711121862081e-02 3.80901975540084e-04
5.35166666666667e+00 3.67835071821007e-02 3.78465488218094e-04
5.39500000000000e+00 3.63999439631072e-02 3.76032257742727e-04
5.43833333333333e+00 3.60203803824619e-02 3.73602618034261e-04
5.48166666666667e+00 3.56447747342867e-02 3.71176892065067e-04
5.52500000000000e+00 3.52730857468855e-02 3.68755392671720e-04
5.56833333333333e+00 3.49052725782754e-02 3.66338421841721e-04
5.61166666666667e+00 3.45412948136797e-02 3.63926271507491e-04
5.65500000000000e+00 3.41811124590792e-02 3.61519224309549e-04
5.69833333333333e+00 3.38246859368793e-02 3.59117552899397e-04
5.74166666666667e+00 3.34719760834367e-02 3.56721520686438e-04
5.78500000000000e+00 3.31229441428552e-02 3.54331382556198e-04
5.82833333333333e+00 3.27775517627845e-02 3.51947384190138e-04
5.87166666666667e+00 3.24357609919837e-02 3.49569762769214e-04
5.91500000000000e+00 3.20975342743501e-02 3.47198747650725e-04
5.95833333333333e+00 3.17628344448462e-02 3.44834559705550e-04
6.00166666666667e+00 3.14316247271013e-02 3.42477411981688e-04
6.04500000000000e+00 3.11038687276630e-02 3.40127510342871e-04
6.08833333333333e+00 3.07795304320497e-02 3.37785052823569e-04
6.13166666666667e+00 3.04585742023901e-02 3.35450230255528e-04
6.17500000000000e+00 3.01409647718895e-02 3.33123226870941e-04
6.21833333333333e+00 2.98266672410023e-02 3.30804219675412e-04
6.26166666666667e+00 2.95156470751126e-02 3.28493379040186e-04
6.30500000000000e+00 2.92078700992044e-02 3.26190869272487e-04
6.34833333333333e+00 2.89033024941517e-02 3.23896848006416e-04
6.39166666666667e+00 2.86019107944403e-02 3.21611466763291e-04
6.43500000000000e+00 2.83036618830342e-02 3.19334871491473e-04
6.47833333333333e+00 2.80085229877786e-02 3.17067201975176e-04
6.52166666666667e+00 2.77164616791652e-02 3.14808592365124e-04
6.56500000000000e+00 2.74274458653849e-02 3.12559171689888e-04
6.60833333333333e+00 2.71414437888423e-02 3.10319063282501e-04
6.65166666666667e+00 2.68584240239627e-02 3.08088385283444e-04
6.69500000000000e+00 2.65783554724256e-02 3.05867251125405e-04
6.73833333333333e+00 2.63012073597857e-02 3.03655768977458e-04
6.78166666666667e+00 2.60269492333231e-02 3.01454042222204e-04
6.82500000000000e+00 2.57555509574500e-02 2.99262169915670e-04
6.86833333333333e+00 2.54869827104342e-02 2.97080246248799e-04
6.91166666666667e+00 2.52212149822943e-02 2.94908361000420e-04
6.95500000000000e+00 2.49582185703707e-02 2.92746599973912e-04
6.99833333333333e+00 2.46979645761504e-02 2.90595044475658e-04
7.04166666666667e+00 2.44404244032056e-02 2.88453771745296e-04
7.08500000000000e+00 2.41855697529241e-02 2.86322855370677e-04
7.12833333333333e+00 2.39333726214305e-02 2.84202364782963e-04
7.17166666666667e+00 2.36838052975699e-02 2.82092365665542e-04
7.21500000000000e+00 2.34368403587897e-02 2.79992920348568e-04
7.25833333333333e+00 2.31924506681562e-02 2.77904087320350e-04
7.30166666666667e+00 2.29506093723817e-02 2.75825921616262e-04
7.34500000000000e+00 2.27112898978526e-02 2.73758475194046e-04
7.38833333333333e+00 2.24744659477379e-02 2.71701796461130e-04
7.43166666666667e+00 2.22401115000596e-02 2.69655930644700e-04
7.47500000000000e+00 2.20082008038622e-02 2.67620920148937e-04
7.51833333333333e+00 2.17787083764091e-02 2.65596804097833e-04
7.56166666666667e+00 2.15516090012974e-02 2.63583618687539e-04
7.60500000000000e+00 2.13268777247618e-02 2.61581397526568e-04
7.64833333333333e+00 2.11044898529574e-02 2.59590171193686e-04
7.69166666666667e+00 2.08844209501180e-02 2.57609967573599e-04
7.73500000000000e+00 2.06666468349891e-02 2.55640812181062e-04
7.77833333333333e+00 2.04511435781952e-02 2.53682727733434e-04
7.82166666666667e+00 2.02378875004400e-02 2.51735734470629e-04
7.86500000000000e+00 2.00268551690652e-02 2.49799850464048e-04
7.90833333333333e+00 1.98180233954977e-02 2.47875091203415e-04
7.95166666666667e+00 1.96113692334933e-02 2.45961469901810e-04
7.99500000000000e+00 1.94068699758146e-02 2.44058997790288e-04
8.03833333333333e+00 1.92045031517575e-02 2.42167683718581e-04
8.08166666666667e+00 1.90042465254363e-02 2.40287534446027e-04
8.12500000000000e+00 1.88060780925773e-02 2.38418554922663e-04
8.16833333333333e+00 1.86099760781214e-02 2.36560747903332e-04
8.21166666666667e+00 1.84159189345508e-02 2.34714114225331e-04
8.25500000000000e+00 1.82238853387932e-02 2.32878653076680e-04
8.29833333333333e+00 1.80338541898990e-02 2.31054361623218e-04
8.34166666666667e+00 1.78458046074078e-02 2.29241235273673e-04
8.38500000000000e+00 1.76597159283608e-02 2.27439267935776e-04
8.42833333333333e+00 1.74755677050482e-02 2.25648451655999e-04
8.47166666666667e+00 1.72933397034171e-02 2.23868776872657e-04
8.51500000000000e+00 1.71130119001863e-02 2.22100232660524e-04
8.55833333333333e+00 1.69345644806632e-02 2.20342806382778e-04
8.60166666666667e+00 1.67579778371911e-02 2.18596483932783e-04
8.64500000000000e+00 1.65832325663634e-02 2.16861249967803e-04
8.68833333333333e+00 1.64103094669078e-02 2.15137087572783e-04
8.73166666666667e+00 1.62391895381722e-02 2.13423978491360e-04
8.77500000000000e+00 1.60698539774348e-02 2.11721903349240e-04
8.81833333333333e+00 1.59022841778530e-02 2.10030841329414e-04
8.86166666666667e+00 1.57364617269886e-02 2.08350770392985e-04
8.90500000000000e+00 1.55723684042083e-02 2.06681667492688e-04
8.94833333333333e+00 1.54099861786974e-02 2.05023508259214e-04
8.99166666666667e+00 1.52492972080212e-02 2.03376267212318e-04
9.03500000000000e+00 1.50902838356155e-02 2.01739917964992e-04
9.07833333333333e+00 1.49329285888604e-02 2.00114432920508e-04
9.12166666666667e+00 1.47772141776793e-02 1.98499783474341e-04
9.16500000000000e+00 1.46231234921145e-02 1.96895940209436e-04
9.20833333333333e+00 1.44706396004603e-02 1.95302872603606e-04
9.25166666666667e+00 1.43197457478988e-02 1.93720549222697e-04
9.29500000000000e+00 1.41704253541569e-02 1.92148937907405e-04
9.33833333333333e+00 1.40226620116979e-02 1.90588005490702e-04
9.38166666666667e+00 1.38764394843919e-02 1.89037717982647e-04
9.42500000000000e+00 1.37317417052530e-02 1.87498040749179e-04
9.46833333333333e+00 1.35885527746859e-02 1.85968938239210e-04
9.51166666666667e+00 1.34468569591918e-02 1.84450374161513e-04
9.55500000000000e+00 1.33066386891816e-02 1.82942311655849e-04
9.59833333333333e+00 1.31678825572768e-02 1.81444713029414e-04
9.64166666666667e+00 1.30305733170493e-02 1.79957539926179e-04
9.68500000000000e+00 1.28946958809085e-02 1.78480753490727e-04
9.72833333333333e+00 1.27602353184548e-02 1.77014314113732e-04
9.77166666666667e+00 1.26271768552523e-02 1.75558181594091e-04
9.81500000000000e+00 1.24955058707876e-02 1.74112315295825e-04
9.85833333333333e+00 1.23652078968734e-02 1.72676673902294e-04
9.90166666666667e+00 1.22362686164546e-02 1.71251215571458e-04
9.94500000000000e+00 1.21086738616349e-02 1.69835898086160e-04
9.98833333333333e+00 1.19824096121306e-02 1.68430678616758e-04
1.00316666666667e+01 1.18574619941077e-02 1.67035513749651e-04
1.00750000000000e+01 1.17338172786391e-02 1.65650360232843e-04
1.01183333333333e+01 1.16114618783865e-02 1.64275173665256e-04
1.01616666666667e+01 1.14903823501087e-02 1.62909909114291e-04
1.02050000000000e+01 1.13705653895256e-02 1.61554522459897e-04
1.02483333333333e+01 1.12519978299465e-02 1.60208968021547e-04
1.02916666666667e+01 1.11346666442869e-02 1.58873199768261e-04
1.03350000000000e+01 1.10185589401367e-02 1.57547172488860e-04
1.03783333333333e+01 1.09036619584298e-02 1.56230839506408e-04
1.04216666666667e+01 1.07899630753560e-02 1.54924153842664e-04
1.04650000000000e+01 1.06774497976247e-02 1.53627069344434e-04
1.05083333333333e+01 1.05661097611743e-02 1.52339538482075e-04
1.05516666666667e+01 1.04559307329853e-02 1.51061513470219e-04
1.05950000000000e+01 1.03469006065308e-02 1.49792947351982e-04
1.06383333333333e+01 1.02390074005248e-02 1.48533791878269e-04
1.06816666666667e+01 1.01322392606408e-02 1.47283998586482e-04
1.07250000000000e+01 1.00265844551426e-02 1.46043519844274e-04
1.07683333333333e+01 9.92203137366892e-03 1.44812306806564e-04
1.08116666666667e+01 9.81856852886404e-03 1.43590310453901e-04
1.08550000000000e+01 9.71618455217927e-03 1.42377482597317e-04
1.08983333333333e+01 9.61486819269464e-03 1.41173773910069e-04
1.09416666666667e+01 9.51460831866521e-03 1.39979134927287e-04
1.09850000000000e+01 9.41539391348649e-03 1.38793517013444e-04
1.10283333333333e+01 9.31721407455169e-03 1.37616870465968e-04
1.10716666666667e+01 9.22005801471827e-03 1.36449145477664e-04
1.11150000000000e+01 9.12391505843062e-03 1.35290293068297e-04
1.11583333333333e+01 9.02877464061157e-03 1.34140263257333e-04
1.12016666666667e+01 8.93462630805350e-03 1.32999005990585e-04
1.12450000000000e+01 8.84145971569152e-03 1.31866472037312e-04
1.12883333333333e+01 8.74926462552844e-03 1.30742611229433e-04
1.13316666666667e+01 8.65803090795422e-03 1.29627373353831e-04
1.13750000000000e+01 8.56774853816347e-03 1.28520709016285e-04
1.14183333333333e+01 8.47840759511283e-03 1.27422567944662e-04
1.14616666666667e+01 8.38999826277253e-03 1.26332899848187e-04
1.15050000000000e+01 8.30251082668216e-03 1.25251655249515e-04
1.15483333333333e+01 8.21593567293954e-03 1.24178783849450e-04
1.15916666666667e+01 8.13026328938791e-03 1.23114235354481e-04
1.16350000000000e+01 8.04548426230431e-03 1.22057960278231e-04
1.16783333333333e+01 7.96158927541890e-03 1.21009908365379e-04
1.17216666666667e+01 7.87856911104119e-03 1.19970029388691e-04
1.17650000000000e+01 7.79641464687547e-03 1.18938273921013e-04
1.18083333333333e+01 7.71511685506984e-03 1.17914591816165e-04
1.18516666666667e+01 7.63466680328448e-03 1.16898932976642e-04
1.18950000000000e+01 7.55505565162906e-03 1.15891248097307e-04
1.19383333333333e+01 7.47627465174042e-03 1.14891487201094e-04
1.19816666666667e+01 7.39831514779605e-03 1.13899600378531e-04
1.20250000000000e+01 7.32116857356835e-03 1.12915538504189e-04
1.20683333333333e+01 7.24482645153018e-03 1.11939251825147e-04
1.21116666666667e+01 7.16928039381642e-03 1.10970690673412e-04
1.21550000000000e+01 7.09452209939019e-03 1.10009806156180e-04
1.21983333333333e+01 7.02054335317561e-03 1.09056548795092e-04
1.22416666666667e+01 6.94733602696990e-03 1.08110869212576e-04
1.22850000000000e+01 6.87489207671724e-03 1.07172718796916e-04
1.23283333333333e+01 6.80320354166777e-03 1.06242048390405e-04
1.23716666666667e+01 6.73226254524283e-03 1.05318808950603e-04
1.24150000000000e+01 6.66206129241215e-03 1.04402952191185e-04
1.24583333333333e+01 6.59259206887818e-03 1.03494429317151e-04
1.25016666666667e+01 6.52384724189706e-03 1.02593191661976e-04
1.25450000000000e+01 6.45581925775473e-03 1.01699191305123e-04
1.25883333333333e+01 6.38850064097612e-03 1.00812379852591e-04
1.26316666666667e+01 6.32188399510386e-03 9.99327090508488e-05
1.26750000000000e+01 6.25596200026955e-03 9.90601313819342e-05
1.27183333333333e+01 6.19072741242689e-03 9.81945988876272e-05
1.27616666666667e+01 6.12617306409043e-03 9.73360637610393e-05
1.28050000000000e+01 6.06229186199807e-03 9.64844789201542e-05
1.28483333333333e+01 5.99907678636752e-03 9.56397968740035e-05
1.28916666666667e+01 5.93652089159706e-03 9.48019702927899e-05
1.29350000000000e+01 5.87461730401571e-03 9.39709525606497e-05
1.29783333333333e+01 5.81335922116223e-03 9.31466966822818e-05
1.30216666666667e+01 5.75273991244988e-03 9.23291558324239e-05
1.30650000000000e+01 5.69275271700074e-03 9.15182838886049e-05
1.31083333333333e+01 5.63339104294664e-03 9.07140343767547e-05
1.31516666666667e+01 5.57464836805969e-03 8.99163610007791e-05
1.31950000000000e+01 5.51651823766747e-03 8.91252181560856e-05
1.32383333333333e+01 5.45899426397512e-03 8.83405599127175e-05
1.32816666666667e+01 5.40207012666356e-03 8.75623405257795e-05
1.33250000000000e+01 5.34573957088219e-03 8.67905149304614e-05
1.33683333333333e+01 5.28999640659165e-03 8.60250377613027e-05
1.34116666666667e+01 5.23483450913122e-03 8.52658638442098e-05
1.34550000000000e+01 5.18024781728611e-03 8.45129486736486e-05
1.34983333333333e+01 5.12623033265018e-03 8.37662474667244e-05
1.35416666666667e+01 5.07277612016416e-03 8.30257156374668e-05
1.35850000000000e+01 5.01987930625454e-03 8.22913092568687e-05
1.36283333333333e+01 4.96753407821572e-03 8.15629841405088e-05
1.36716666666667e+01 4.91573468472042e-03 8.08406963057533e-05
