Energy (eV)          EEDF (eV^-(3/2))     First Anisotropy
5.00000000000000e-03 1.00414859382043e+00 -3.79210354298225e-04
1.50000000000000e-02 1.00492553981608e+00 -1.84642145573626e-04
2.50000000000000e-02 1.00458658195163e+00 6.92743402281645e-04
3.50000000000000e-02 1.00364943267383e+00 1.48232427870916e-03
4.50000000000000e-02 1.00227297059943e+00 2.27500492685300e-03
5.50000000000000e-02 1.00050977073812e+00 3.07313118047661e-03
6.50000000000000e-02 9.98426605938329e-01 3.86274517786253e-03
7.50000000000000e-02 9.96050987408707e-01 4.63071467149084e-03
8.50000000000000e-02 9.93437978854274e-01 5.36864452514166e-03
9.50000000000000e-02 9.90605332836099e-01 6.10301559316323e-03
1.05000000000000e-01 9.87568085257693e-01 6.80241555407727e-03
1.15000000000000e-01 9.84367885986298e-01 7.46289756039925e-03
1.25000000000000e-01 9.81015462665635e-01 8.11350393277450e-03
1.35000000000000e-01 9.77520312372307e-01 8.75387834920446e-03
1.45000000000000e-01 9.73890991490666e-01 9.38361702384516e-03
1.55000000000000e-01 9.70135311494828e-01 1.00023112797518e-02
1.65000000000000e-01 9.66260475957091e-01 1.06095715331437e-02
1.75000000000000e-01 9.62273179512193e-01 1.12050395864417e-02
1.85000000000000e-01 9.58179682041455e-01 1.17883804938301e-02
1.95000000000000e-01 9.53985876019040e-01 1.23592740412793e-02
2.05000000000000e-01 9.49697338260129e-01 1.28870825110872e-02
2.15000000000000e-01 9.45341914444743e-01 1.33716551094497e-02
2.25000000000000e-01 9.40923522497269e-01 1.38445774646837e-02
2.35000000000000e-01 9.36445826732672e-01 1.43060482833985e-02
2.45000000000000e-01 9.31912266842963e-01 1.47562516968124e-02
2.55000000000000e-01 9.27326082025988e-01 1.51953603831602e-02
2.65000000000000e-01 9.22690331278948e-01 1.56235379688056e-02
2.75000000000000e-01 9.18007910622993e-01 1.60409407178376e-02
2.85000000000000e-01 9.13281567966118e-01 1.64477156305871e-02
2.95000000000000e-01 9.08513918062689e-01 1.68439987322821e-02
3.05000000000000e-01 9.03707455422640e-01 1.72157645850553e-02
3.15000000000000e-01 8.98873937058309e-01 1.75637211100761e-02
3.25000000000000e-01 8.94015071529186e-01 1.79030475511276e-02
3.35000000000000e-01 8.89132505836645e-01 1.82338524995784e-02
3.45000000000000e-01 8.84227828094599e-01 1.85562448549759e-02
3.55000000000000e-01 8.79302570101097e-01 1.88703335919735e-02
3.65000000000000e-01 8.74358209797377e-01 1.91762275800928e-02
3.75000000000000e-01 8.69396173611084e-01 1.94740353728207e-02
3.85000000000000e-01 8.64417838724141e-01 1.97638638531430e-02
3.95000000000000e-01 8.59424535952752e-01 2.00458170399098e-02
4.05000000000000e-01 8.54417552423605e-01 2.03054645082612e-02
4.15000000000000e-01 8.49407172374124e-01 2.05437038327817e-02
4.25000000000000e-01 8.44394048864360e-01 2.07761644053366e-02
4.35000000000000e-01 8.39378835737634e-01 2.10028707179088e-02
4.45000000000000e-01 8.34362184851928e-01 2.12238543304266e-02
4.55000000000000e-01 8.29344743772676e-01 2.14391529473008e-02
4.65000000000000e-01 8.24327153854217e-01 2.16488096140861e-02
4.75000000000000e-01 8.19310048649858e-01 2.18528719855629e-02
4.85000000000000e-01 8.14294052618201e-01 2.20513911152903e-02
4.95000000000000e-01 8.09279780397817e-01 2.22444203307291e-02
5.05000000000000e-01 8.04267836271277e-01 2.24264846482263e-02
5.15000000000000e-01 7.99262046666807e-01 2.25974796513308e-02
5.25000000000000e-01 7.94263017652895e-01 2.27629231065709e-02
5.35000000000000e-01 7.89271334926892e-01 2.29229125486472e-02
5.45000000000000e-01 7.84287564326414e-01 2.30775444064823e-02
5.55000000000000e-01 7.79312252341358e-01 2.32269139642183e-02
5.65000000000000e-01 7.74345926625283e-01 2.33711153268335e-02
5.75000000000000e-01 7.69389096503436e-01 2.35102413761405e-02
5.85000000000000e-01 7.64442253485259e-01 2.36443834169414e-02
5.95000000000000e-01 7.59505871947069e-01 2.37736308348099e-02
6.05000000000000e-01 7.54580409800046e-01 2.38991880199070e-02
6.15000000000000e-01 7.49665849237783e-01 2.40232480326435e-02
6.25000000000000e-01 7.44761765447033e-01 2.41467009780966e-02
6.35000000000000e-01 7.39867811193567e-01 2.42692750721132e-02
6.45000000000000e-01 7.34983708896960e-01 2.43907232064149e-02
6.55000000000000e-01 7.30109243471161e-01 2.45108209760712e-02
6.65000000000000e-01 7.25244255850668e-01 2.46293648810125e-02
6.75000000000000e-01 7.20388637132777e-01 2.47461706705849e-02
6.85000000000000e-01 7.15542323279558e-01 2.48610716343887e-02
6.95000000000000e-01 7.10705290422888e-01 2.49739170490907e-02
7.05000000000000e-01 7.05877550601057e-01 2.50837119844005e-02
7.15000000000000e-01 7.01059729046354e-01 2.51917209233594e-02
7.25000000000000e-01 6.96251365196858e-01 2.52999755043393e-02
7.35000000000000e-01 6.91452078576896e-01 2.54081468973248e-02
7.45000000000000e-01 6.86661561710796e-01 2.55159308647870e-02
7.55000000000000e-01 6.81879573604601e-01 2.56230461989880e-02
7.65000000000000e-01 6.77105933749359e-01 2.57292332626263e-02
7.75000000000000e-01 6.72340516601564e-01 2.58342526238864e-02
7.85000000000000e-01 6.67583246504271e-01 2.59378836415179e-02
7.95000000000000e-01 6.62834093083563e-01 2.60399231155047e-02
8.05000000000000e-01 6.58093067021478e-01 2.61391545375657e-02
8.15000000000000e-01 6.53360589285370e-01 2.62334538383559e-02
8.25000000000000e-01 6.48637438679436e-01 2.63218927522885e-02
8.35000000000000e-01 6.43924358785806e-01 2.64046215377870e-02
8.45000000000000e-01 6.39222059675221e-01 2.64817855160137e-02
8.55000000000000e-01 6.34531219487204e-01 2.65535254674499e-02
8.65000000000000e-01 6.29852485889163e-01 2.66199780011385e-02
8.75000000000000e-01 6.25186477425008e-01 2.66812758884208e-02
8.85000000000000e-01 6.20533784765340e-01 2.67375482843231e-02
8.95000000000000e-01 6.15894971908222e-01 2.67889209385200e-02
9.05000000000000e-01 6.11270577287354e-01 2.68358790888637e-02
9.15000000000000e-01 6.06660990029799e-01 2.68792443552072e-02
9.25000000000000e-01 6.02066461802243e-01 2.69194359047223e-02
9.35000000000000e-01 5.97487237540231e-01 2.69564948251299e-02
9.45000000000000e-01 5.92923555682751e-01 2.69904613313394e-02
9.55000000000000e-01 5.88375648379329e-01 2.70213748914977e-02
9.65000000000000e-01 5.83843741672414e-01 2.70492743415580e-02
9.75000000000000e-01 5.79328055657663e-01 2.70741979783647e-02
9.85000000000000e-01 5.74828804629850e-01 2.70961834377611e-02
9.95000000000000e-01 5.70346197312579e-01 2.71152675649004e-02
1.00500000000000e+00 5.65880437069548e-01 2.71381006817711e-02
1.01500000000000e+00 5.61429005910789e-01 2.71712048509524e-02
1.02500000000000e+00 5.56990000975423e-01 2.72140412015250e-02
1.03500000000000e+00 5.52561676991908e-01 2.72658197143461e-02
1.04500000000000e+00 5.48142438398515e-01 2.73257805695692e-02
1.05500000000000e+00 5.43730831720951e-01 2.73931938611121e-02
1.06500000000000e+00 5.39325538198303e-01 2.74673593002677e-02
1.07500000000000e+00 5.34925366648440e-01 2.75476059096621e-02
1.08500000000000e+00 5.30529246564719e-01 2.76332917065461e-02
1.09500000000000e+00 5.26136221436479e-01 2.77238033730086e-02
1.10500000000000e+00 5.21745442286908e-01 2.78246877350126e-02
1.11500000000000e+00 5.17353113198554e-01 2.79348670727277e-02
1.12500000000000e+00 5.12958754225491e-01 2.80471892162038e-02
1.13500000000000e+00 5.08561956226256e-01 2.81612500744523e-02
1.14500000000000e+00 5.04162377255141e-01 2.82766618095104e-02
1.15500000000000e+00 4.99759739026246e-01 2.83930528789297e-02
1.16500000000000e+00 4.95353823453231e-01 2.85100680416703e-02
1.17500000000000e+00 4.90944469266390e-01 2.86273683333974e-02
1.18500000000000e+00 4.86531568708252e-01 2.87446310139207e-02
1.19500000000000e+00 4.82115064308560e-01 2.88615494867657e-02
1.20500000000000e+00 4.77694945740009e-01 2.89862130398918e-02
1.21500000000000e+00 4.73266950181664e-01 2.91166048673459e-02
1.22500000000000e+00 4.68831683326466e-01 2.92424687675697e-02
1.23500000000000e+00 4.64389744849844e-01 2.93638128796254e-02
1.24500000000000e+00 4.59941729567256e-01 2.94806390416688e-02
1.25500000000000e+00 4.55488228469486e-01 2.95929434664150e-02
1.26500000000000e+00 4.51029829642281e-01 2.97007173848391e-02
1.27500000000000e+00 4.46567119077999e-01 2.98039476542913e-02
1.28500000000000e+00 4.42100681386577e-01 2.99026173320713e-02
1.29500000000000e+00 4.37631100412780e-01 2.99967062163493e-02
1.30500000000000e+00 4.33158959766092e-01 3.00839902742744e-02
1.31500000000000e+00 4.28686099516680e-01 3.01656163382421e-02
1.32500000000000e+00 4.24212756521119e-01 3.02449288417511e-02
1.33500000000000e+00 4.19739172177709e-01 3.03218876540980e-02
1.34500000000000e+00 4.15265593574334e-01 3.03964453305088e-02
1.35500000000000e+00 4.10792274426375e-01 3.04685484167754e-02
1.36500000000000e+00 4.06319475817986e-01 3.05381386897515e-02
1.37500000000000e+00 4.01847466758792e-01 3.06051543366425e-02
1.38500000000000e+00 3.97376524567812e-01 3.06695310730704e-02
1.39500000000000e+00 3.92906935096109e-01 3.07312032002631e-02
1.40500000000000e+00 3.88438992799309e-01 3.07901182244926e-02
1.41500000000000e+00 3.83972996768185e-01 3.08462457361814e-02
1.42500000000000e+00 3.79509248179278e-01 3.08995506807554e-02
1.43500000000000e+00 3.75048054120841e-01 3.09499831706654e-02
1.44500000000000e+00 3.70589728065833e-01 3.09974902539351e-02
1.45500000000000e+00 3.66134590217998e-01 3.10420167394677e-02
1.46500000000000e+00 3.61682967741106e-01 3.10835059643735e-02
1.47500000000000e+00 3.57235194881231e-01 3.11219005047477e-02
1.48500000000000e+00 3.52791612991354e-01 3.11571428329154e-02
1.49500000000000e+00 3.48352570466920e-01 3.11891759222798e-02
1.50500000000000e+00 3.43918422600956e-01 3.12218889180900e-02
1.51500000000000e+00 3.39487162538743e-01 3.12540459473462e-02
1.52500000000000e+00 3.35059496394091e-01 3.12805806767350e-02
1.53500000000000e+00 3.30636100759536e-01 3.13016763885568e-02
1.54500000000000e+00 3.26217624990956e-01 3.13175026225840e-02
1.55500000000000e+00 3.21804693325623e-01 3.13282161537263e-02
1.56500000000000e+00 3.17397906841307e-01 3.13339619352710e-02
1.57500000000000e+00 3.12997845263270e-01 3.13348740095508e-02
1.58500000000000e+00 3.08605068625919e-01 3.13310763855905e-02
1.59500000000000e+00 3.04220118795754e-01 3.13226838789476e-02
1.60500000000000e+00 2.99843520863429e-01 3.13216969936572e-02
1.61500000000000e+00 2.95469957079304e-01 3.13361112503121e-02
1.62500000000000e+00 2.91097732432327e-01 3.13615533197963e-02
1.63500000000000e+00 2.86725269501685e-01 3.13972249176621e-02
1.64500000000000e+00 2.82351106961945e-01 3.14423354684938e-02
1.65500000000000e+00 2.77973897656778e-01 3.14961053800563e-02
1.66500000000000e+00 2.73592406265107e-01 3.15577691538839e-02
1.67500000000000e+00 2.69205506583331e-01 3.16265783309166e-02
1.68500000000000e+00 2.64812178447259e-01 3.17018042707707e-02
1.69500000000000e+00 2.60411504317243e-01 3.17827407625587e-02
1.70500000000000e+00 2.56002665550216e-01 3.18672893063905e-02
1.71500000000000e+00 2.51582781026650e-01 3.19404455576659e-02
1.72500000000000e+00 2.47155170678800e-01 3.19894366029045e-02
1.73500000000000e+00 2.42723033850073e-01 3.20151259543996e-02
1.74500000000000e+00 2.38289450133498e-01 3.20183735712985e-02
1.75500000000000e+00 2.33857380386053e-01 3.20000343964024e-02
1.76500000000000e+00 2.29429667907112e-01 3.19609569875692e-02
1.77500000000000e+00 2.25009039768542e-01 3.19019822449035e-02
1.78500000000000e+00 2.20598108284468e-01 3.18239422299857e-02
1.79500000000000e+00 2.16199372609341e-01 3.17276590527597e-02
1.80500000000000e+00 2.11815220459175e-01 3.16362795314469e-02
1.81500000000000e+00 2.07424030584433e-01 3.15415677520355e-02
1.82500000000000e+00 2.03030633300441e-01 3.14132538606549e-02
1.83500000000000e+00 1.98639654310473e-01 3.12532112898766e-02
1.84500000000000e+00 1.94255515886400e-01 3.10632766278544e-02
1.85500000000000e+00 1.89882438422699e-01 3.08452474765347e-02
1.86500000000000e+00 1.85524442326393e-01 3.06008806370440e-02
1.87500000000000e+00 1.81185350207629e-01 3.03318905941156e-02
1.88500000000000e+00 1.76868789338874e-01 3.00399482694352e-02
1.89500000000000e+00 1.72578194353634e-01 2.97266800207024e-02
1.90500000000000e+00 1.68316810157135e-01 2.93891464977228e-02
1.91500000000000e+00 1.64091351996986e-01 2.90201074016618e-02
1.92500000000000e+00 1.59907167200764e-01 2.86173325472327e-02
1.93500000000000e+00 1.55769343376831e-01 2.81829795722785e-02
1.94500000000000e+00 1.51682707787352e-01 2.77191790362388e-02
1.95500000000000e+00 1.47651827795097e-01 2.72280274313260e-02
1.96500000000000e+00 1.43681012325352e-01 2.67115807501575e-02
1.97500000000000e+00 1.39774314285148e-01 2.61718485929877e-02
1.98500000000000e+00 1.35935533883463e-01 2.56107888076591e-02
1.99500000000000e+00 1.32168222808925e-01 2.50303026260597e-02
2.00500000000000e+00 1.28475689193824e-01 2.44385721832070e-02
2.01500000000000e+00 1.24861061451283e-01 2.38461485636228e-02
2.02500000000000e+00 1.21324382117650e-01 2.32569588683708e-02
2.03500000000000e+00 1.17865605779491e-01 2.26715655932328e-02
2.04500000000000e+00 1.14484604283279e-01 2.20904899675703e-02
2.05500000000000e+00 1.11181171781087e-01 2.15142135917037e-02
2.06500000000000e+00 1.07955029614280e-01 2.09431800391403e-02
2.07500000000000e+00 1.04805831037564e-01 2.03777964220031e-02
2.08500000000000e+00 1.01733165785938e-01 1.98184349185054e-02
2.09500000000000e+00 9.87365644872883e-02 1.92654342655851e-02
2.10500000000000e+00 9.58155029222905e-02 1.87301150053992e-02
2.11500000000000e+00 9.29735050491212e-02 1.82155849236083e-02
2.12500000000000e+00 9.02084260142857e-02 1.77150586835721e-02
2.13500000000000e+00 8.75181709619597e-02 1.72282150586708e-02
2.14500000000000e+00 8.49006941643910e-02 1.67547378156623e-02
2.15500000000000e+00 8.23539981648561e-02 1.62943156799634e-02
2.16500000000000e+00 7.98761329327436e-02 1.58466422992925e-02
2.17500000000000e+00 7.74651950310753e-02 1.54114162033857e-02
2.18500000000000e+00 7.51193267967659e-02 1.49883407599316e-02
2.19500000000000e+00 7.28367155339105e-02 1.45771241287295e-02
2.20500000000000e+00 7.06155927198054e-02 1.41780370385348e-02
2.21500000000000e+00 6.84560457156794e-02 1.37867099356270e-02
2.22500000000000e+00 6.63574914469320e-02 1.33988293488466e-02
2.23500000000000e+00 6.43193149928684e-02 1.30146095585366e-02
2.24500000000000e+00 6.23408722503333e-02 1.26342476029845e-02
2.25500000000000e+00 6.04214925662662e-02 1.22579234474588e-02
2.26500000000000e+00 5.85604813359420e-02 1.18858001757987e-02
2.27500000000000e+00 5.67571225641045e-02 1.15180242017928e-02
2.28500000000000e+00 5.50106813865943e-02 1.11547254978520e-02
2.29500000000000e+00 5.33204065504303e-02 1.07960178383370e-02
2.30500000000000e+00 5.16855328507383e-02 1.04446974745261e-02
2.31500000000000e+00 5.01050793634297e-02 1.01041676917400e-02
2.32500000000000e+00 4.85771772794965e-02 9.77502593623104e-03
2.33500000000000e+00 4.71000241288029e-02 9.45688033693887e-03
2.34500000000000e+00 4.56718815394336e-02 9.14935163977601e-03
2.35500000000000e+00 4.42910730642336e-02 8.85207286319065e-03
2.36500000000000e+00 4.29559820725914e-02 8.56468896204491e-03
2.37500000000000e+00 4.16650497056677e-02 8.28685649942355e-03
2.38500000000000e+00 4.04167728932894e-02 8.01824332641769e-03
2.39500000000000e+00 3.92097024307452e-02 7.75852827041630e-03
2.40500000000000e+00 3.80424411135850e-02 7.50736152277019e-03
2.41500000000000e+00 3.69141043916248e-02 7.26312793862454e-03
2.42500000000000e+00 3.58237516456208e-02 7.02444031115095e-03
2.43500000000000e+00 3.47704644719830e-02 6.79117608606278e-03
2.44500000000000e+00 3.37533465569651e-02 6.56321273360230e-03
2.45500000000000e+00 3.27715235438121e-02 6.34042780765842e-03
2.46500000000000e+00 3.18241428936401e-02 6.12269899984836e-03
2.47500000000000e+00 3.09103737408129e-02 5.90990418864559e-03
2.48500000000000e+00 3.00294067435525e-02 5.70192148366648e-03
2.49500000000000e+00 2.91804539305053e-02 5.49862926503321e-03
2.50500000000000e+00 2.83627485440152e-02 5.30112712184670e-03
2.51500000000000e+00 2.75753872403511e-02 5.11098894084303e-03
2.52500000000000e+00 2.68171106732146e-02 4.92851670656065e-03
2.53500000000000e+00 2.60867136993669e-02 4.75339105252151e-03
2.54500000000000e+00 2.53830429244805e-02 4.58530663539939e-03
2.55500000000000e+00 2.47049943600279e-02 4.42397152606206e-03
2.56500000000000e+00 2.40515111859250e-02 4.26910662843071e-03
2.57500000000000e+00 2.34215816139516e-02 4.12044512469762e-03
2.58500000000000e+00 2.28142368472120e-02 3.97773194569798e-03
2.59500000000000e+00 2.22285491311241e-02 3.84072326544535e-03
2.60500000000000e+00 2.16636298915928e-02 3.70947441795839e-03
2.61500000000000e+00 2.11187642305760e-02 3.58370263141044e-03
2.62500000000000e+00 2.05931322709091e-02 3.46290752554176e-03
2.63500000000000e+00 2.00859463262159e-02 3.34690328784522e-03
2.64500000000000e+00 1.95964495102698e-02 3.23551188690968e-03
2.65500000000000e+00 1.91239144065659e-02 3.12856275076584e-03
2.66500000000000e+00 1.86676417955032e-02 3.02589245832251e-03
2.67500000000000e+00 1.82269594367143e-02 2.92734444326225e-03
2.68500000000000e+00 1.78012209041886e-02 2.83276870986210e-03
2.69500000000000e+00 1.73898044719428e-02 2.74202156084078e-03
2.70500000000000e+00 1.69921120479100e-02 2.65581253267608e-03
2.71500000000000e+00 1.66080621680305e-02 2.57361027136608e-03
2.72500000000000e+00 1.62371505944460e-02 2.49421475886442e-03
2.73500000000000e+00 1.58788914761516e-02 2.41753283217915e-03
2.74500000000000e+00 1.55328166236044e-02 2.34347482052611e-03
2.75500000000000e+00 1.51984748125233e-02 2.27195441539032e-03
2.76500000000000e+00 1.48754311156670e-02 2.20288854547419e-03
2.77500000000000e+00 1.45632662614882e-02 2.13619725612010e-03
2.78500000000000e+00 1.42615760186095e-02 2.07180359303610e-03
2.79500000000000e+00 1.39699706051089e-02 2.00963349050445e-03
2.80500000000000e+00 1.36880741215439e-02 1.95047009758977e-03
2.81500000000000e+00 1.34157881436155e-02 1.89466393072367e-03
2.82500000000000e+00 1.31526031473352e-02 1.84179654847753e-03
2.83500000000000e+00 1.28980313101371e-02 1.79176473710878e-03
2.84500000000000e+00 1.26516055249750e-02 1.74446981204555e-03
2.85500000000000e+00 1.24128784746267e-02 1.69981732433442e-03
2.86500000000000e+00 1.21814217630813e-02 1.65771677887997e-03
2.87500000000000e+00 1.19568251011044e-02 1.61808136364785e-03
2.88500000000000e+00 1.17386955432205e-02 1.58082768928742e-03
2.89500000000000e+00 1.15266567734826e-02 1.54587553896462e-03
2.90500000000000e+00 1.13203484374451e-02 1.51269797016728e-03
2.91500000000000e+00 1.11196372860636e-02 1.48021560854621e-03
2.92500000000000e+00 1.09244541179823e-02 1.44785042068332e-03
2.93500000000000e+00 1.07347301363945e-02 1.41560200202351e-03
2.94500000000000e+00 1.05503969760128e-02 1.38346973313514e-03
2.95500000000000e+00 1.03713867270321e-02 1.35145279630285e-03
2.96500000000000e+00 1.01976319560919e-02 1.31955019274848e-03
2.97500000000000e+00 1.00290657242323e-02 1.28776076059796e-03
2.98500000000000e+00 9.86562160183684e-03 1.25608319367890e-03
2.99500000000000e+00 9.70723368073381e-03 1.22451606020683e-03
3.00500000000000e+00 9.55383658347216e-03 1.19320036155068e-03
3.01500000000000e+00 9.40485212524977e-03 1.16259738612052e-03
3.02500000000000e+00 9.26013702292638e-03 1.13291485146971e-03
3.03500000000000e+00 9.11955243069918e-03 1.10412730213826e-03
3.04500000000000e+00 8.98296378745890e-03 1.07621012207039e-03
3.05500000000000e+00 8.85024066965273e-03 1.04913950616339e-03
3.06500000000000e+00 8.72125664952494e-03 1.02289243244690e-03
3.07500000000000e+00 8.59588915854815e-03 9.97446635123167e-04
3.08500000000000e+00 8.47401935586386e-03 9.72780578440968e-04
3.09500000000000e+00 8.35553200155779e-03 9.48873431534171e-04
3.10500000000000e+00 8.24031533456222e-03 9.25708304126632e-04
3.11500000000000e+00 8.12837124028956e-03 9.03309353106600e-04
3.12500000000000e+00 8.01957582844083e-03 8.81719223394124e-04
3.13500000000000e+00 7.91380918946743e-03 8.60916242093547e-04
3.14500000000000e+00 7.81095525667294e-03 8.40879458350708e-04
3.15500000000000e+00 7.71090167440687e-03 8.21588610470137e-04
