Energy (eV)          EEDF (eV^-(3/2))     First Anisotropy
2.82352941176471e-02 8.54882757722895e-02 5.48259732388851e-05
8.47058823529412e-02 8.46253284128780e-02 9.03801687866573e-05
1.41176470588235e-01 8.37710919360924e-02 1.18907174199778e-04
1.97647058823529e-01 8.29254784045692e-02 1.40334525432983e-04
2.54117647058824e-01 8.20884007816512e-02 1.58003730520295e-04
3.10588235294118e-01 8.12597729020336e-02 1.73184255958427e-04
3.67058823529412e-01 8.04395094708893e-02 1.86536057044740e-04
4.23529411764706e-01 7.96275260525514e-02 1.98459437388835e-04
4.80000000000000e-01 7.88237390680511e-02 2.09221050598914e-04
5.36470588235294e-01 7.80280657796546e-02 2.19010179968595e-04
5.92941176470588e-01 7.72404242848769e-02 2.27967544392177e-04
6.49411764705882e-01 7.64607335068079e-02 2.36201511894762e-04
7.05882352941177e-01 7.56889131895841e-02 2.43797892053572e-04
7.62352941176471e-01 7.49248838860639e-02 2.50826181904596e-04
8.18823529411765e-01 7.41685669510763e-02 2.57343727062889e-04
8.75294117647059e-01 7.34198845324784e-02 2.63398595098360e-04
9.31764705882353e-01 7.26787595658297e-02 2.69031620088828e-04
9.88235294117647e-01 7.19451157636403e-02 2.74277894782698e-04
1.04470588235294e+00 7.12188776070202e-02 2.79167882764678e-04
1.10117647058824e+00 7.04999703410644e-02 2.83728263730774e-04
1.15764705882353e+00 6.97883199717059e-02 2.87982589402476e-04
1.21411764705882e+00 6.90838532389645e-02 2.91951794914051e-04
1.27058823529412e+00 6.83864976289217e-02 2.95654605140042e-04
1.32705882352941e+00 6.76961813596030e-02 2.99107864473353e-04
1.38352941176471e+00 6.70128333735994e-02 3.02326802684408e-04
1.44000000000000e+00 6.63363833308107e-02 3.05325253199853e-04
1.49647058823529e+00 6.56667616057058e-02 3.08115835862036e-04
1.55294117647059e+00 6.50038992663090e-02 3.10710107171803e-04
1.60941176470588e+00 6.43477280811830e-02 3.13118686504386e-04
1.66588235294118e+00 6.36981805076105e-02 3.15351365507168e-04
1.72235294117647e+00 6.30551896846827e-02 3.17417199453371e-04
1.77882352941176e+00 6.24186894264141e-02 3.19324585614196e-04
1.83529411764706e+00 6.17886142183957e-02 3.21081332524267e-04
1.89176470588235e+00 6.11648992004666e-02 3.22694717983357e-04
1.94823529411765e+00 6.05474801707794e-02 3.24171539448682e-04
2.00470588235294e+00 5.99362935755346e-02 3.25518160254911e-04
2.06117647058824e+00 5.93312765024883e-02 3.26740548193954e-04
2.11764705882353e+00 5.87323666772940e-02 3.27844311451157e-04
2.17411764705882e+00 5.81395024484491e-02 3.28834728610094e-04
2.23058823529412e+00 5.75526227897099e-02 3.29716775220602e-04
2.28705882352941e+00 5.69716672908436e-02 3.30495149381890e-04
2.34352941176471e+00 5.63965761514115e-02 3.31174293153736e-04
2.40000000000000e+00 5.58272901746306e-02 3.31758411795381e-04
2.45647058823529e+00 5.52637507635735e-02 3.32251492390113e-04
2.51294117647059e+00 5.47058999081338e-02 3.32657319051029e-04
2.56941176470588e+00 5.41536801861470e-02 3.32979486603711e-04
2.62588235294118e+00 5.36070347550773e-02 3.33221414659231e-04
2.68235294117647e+00 5.30659073461801e-02 3.33386359108992e-04
2.73882352941176e+00 5.25302422587089e-02 3.33477422624887e-04
2.79529411764706e+00 5.19999843560847e-02 3.33497565407344e-04
2.85176470588235e+00 5.14750790544331e-02 3.33449613601346e-04
2.90823529411765e+00 5.09554723228221e-02 3.33336266954980e-04
2.96470588235294e+00 5.04411106757163e-02 3.33160107329091e-04
3.02117647058824e+00 4.99319411674894e-02 3.32923605109040e-04
3.07764705882353e+00 4.94279113886039e-02 3.32629126455087e-04
3.13411764705882e+00 4.89289694552449e-02 3.32278938708273e-04
3.19058823529412e+00 4.84350640090074e-02 3.31875215343155e-04
3.24705882352941e+00 4.79461442099121e-02 3.31420041894020e-04
3.30352941176471e+00 4.74621597311729e-02 3.30915420403628e-04
3.36000000000000e+00 4.69830607540231e-02 3.30363273579916e-04
3.41647058823529e+00 4.65087979639719e-02 3.29765449606091e-04
3.47294117647059e+00 4.60393225415153e-02 3.29123725466219e-04
3.52941176470588e+00 4.55745861613700e-02 3.28439810008980e-04
3.58588235294118e+00 4.51145409860601e-02 3.27715348008018e-04
3.64235294117647e+00 4.46591396609989e-02 3.26951923017724e-04
3.69882352941176e+00 4.42083353096140e-02 3.26151060068678e-04
3.75529411764706e+00 4.37620815297101e-02 3.25314229040730e-04
3.81176470588235e+00 4.33203323850858e-02 3.24442846787545e-04
3.86823529411765e+00 4.28830424044505e-02 3.23538279100308e-04
3.92470588235294e+00 4.24501665755109e-02 3.22601843632598e-04
3.98117647058824e+00 4.20216603403474e-02 3.21634811610015e-04
4.03764705882353e+00 4.15974795918708e-02 3.20638410429075e-04
4.09411764705882e+00 4.11775806661050e-02 3.19613825152326e-04
4.15058823529412e+00 4.07619203409028e-02 3.18562199892090e-04
4.20705882352941e+00 4.03504558304139e-02 3.17484640106895e-04
4.26352941176471e+00 3.99431447806818e-02 3.16382213993200e-04
4.32000000000000e+00 3.95399452652867e-02 3.15255953820703e-04
4.37647058823529e+00 3.91408157819387e-02 3.14106857899784e-04
4.43294117647059e+00 3.87457152454465e-02 3.12935891580488e-04
4.48941176470588e+00 3.83546029862750e-02 3.11743988176698e-04
4.54588235294118e+00 3.79674387454187e-02 3.10532050738927e-04
4.60235294117647e+00 3.75841826702611e-02 3.09300953031830e-04
4.65882352941177e+00 3.72047953104718e-02 3.08051540480158e-04
4.71529411764706e+00 3.68292376147410e-02 3.06784631705804e-04
4.77176470588235e+00 3.64574709243490e-02 3.05501019204380e-04
4.82823529411765e+00 3.60894569716211e-02 3.04201469969462e-04
4.88470588235294e+00 3.57251578751666e-02 3.02886726900604e-04
4.94117647058824e+00 3.53645361359849e-02 3.01557509356358e-04
4.99764705882353e+00 3.50075546343142e-02 3.00214514430905e-04
5.05411764705882e+00 3.46541766236550e-02 2.98858417445944e-04
5.11058823529412e+00 3.43043657291646e-02 2.97489872402858e-04
5.16705882352941e+00 3.39580859431790e-02 2.96109513165713e-04
5.22352941176471e+00 3.36153016215071e-02 2.94717953998690e-04
5.28000000000000e+00 3.32759774797632e-02 2.93315790094485e-04
5.33647058823529e+00 3.29400785903615e-02 2.91903598616487e-04
5.39294117647059e+00 3.26075703770205e-02 2.90481939033981e-04
5.44941176470588e+00 3.22784186131221e-02 2.89051353427849e-04
5.50588235294118e+00 3.19525894175419e-02 2.87612367468103e-04
5.56235294117647e+00 3.16300492511633e-02 2.86165490809746e-04
5.61882352941176e+00 3.13107649134254e-02 2.84711217485586e-04
5.67529411764706e+00 3.09947035394602e-02 2.83250026772690e-04
5.73176470588235e+00 3.06818325950278e-02 2.81782383418829e-04
5.78823529411765e+00 3.03721198748650e-02 2.80308737846386e-04
5.84470588235294e+00 3.00655334987981e-02 2.78829526973422e-04
5.90117647058824e+00 2.97620419084637e-02 2.77345174394419e-04
5.95764705882353e+00 2.94616138645610e-02 2.75856091131985e-04
6.01411764705882e+00 2.91642184421165e-02 2.74362675797854e-04
6.07058823529412e+00 2.88698250288345e-02 2.72865314735683e-04
6.12705882352941e+00 2.85784033214293e-02 2.71364382738495e-04
6.18352941176471e+00 2.82899233225065e-02 2.69860243279955e-04
6.24000000000000e+00 2.80043553374762e-02 2.68353248748221e-04
6.29647058823529e+00 2.77216699719425e-02 2.66843741087237e-04
6.35294117647059e+00 2.74418381273246e-02 2.65332051899928e-04
6.40941176470588e+00 2.71648309992274e-02 2.63818502536836e-04
6.46588235294118e+00 2.68906200740159e-02 2.62303404712901e-04
6.52235294117647e+00 2.66191771258820e-02 2.60787060681408e-04
6.57882352941176e+00 2.63504742139382e-02 2.59269763411979e-04
6.63529411764706e+00 2.60844836797414e-02 2.57751797143677e-04
6.69176470588235e+00 2.58211781432365e-02 2.56233437446617e-04
6.74823529411765e+00 2.55605305011577e-02 2.54714951271792e-04
6.80470588235294e+00 2.53025139238281e-02 2.53196597486470e-04
6.86117647058824e+00 2.50471018523989e-02 2.51678626916423e-04
6.91764705882353e+00 2.47942679964792e-02 2.50161282838328e-04
6.97411764705882e+00 2.45439863303287e-02 2.48644801015838e-04
7.03058823529412e+00 2.42962310912894e-02 2.47129409725740e-04
7.08705882352941e+00 2.40509767767596e-02 2.45615330236748e-04
7.14352941176471e+00 2.38081981415694e-02 2.44102776912826e-04
7.20000000000000e+00 2.35678701953823e-02 2.42591957321799e-04
7.25647058823529e+00 2.33299682004492e-02 2.41083072666676e-04
7.31294117647059e+00 2.30944676680740e-02 2.39576317798777e-04
7.36941176470588e+00 2.28613443570895e-02 2.38071881222493e-04
7.42588235294118e+00 2.26305742710262e-02 2.36569945516851e-04
7.48235294117647e+00 2.24021336556434e-02 2.35070687412943e-04
7.53882352941176e+00 2.21759989964838e-02 2.33574277876904e-04
7.59529411764706e+00 2.19521470167463e-02 2.32080882490276e-04
7.65176470588235e+00 2.17305546740020e-02 2.30590661446476e-04
7.70823529411765e+00 2.15111991587183e-02 2.29103769540235e-04
7.76470588235294e+00 2.12940578916089e-02 2.27620356540946e-04
7.82117647058824e+00 2.10791085213110e-02 2.26140567180161e-04
7.87764705882353e+00 2.08663289223523e-02 2.24664541495683e-04
7.93411764705882e+00 2.06556971920615e-02 2.23192414817895e-04
7.99058823529412e+00 2.04471916491326e-02 2.21724317749930e-04
8.04705882352941e+00 2.02407908311178e-02 2.20260376506404e-04
8.10352941176471e+00 2.00364734922186e-02 2.18800712957786e-04
8.16000000000000e+00 1.98342186010985e-02 2.17345444680225e-04
8.21647058823529e+00 1.96340053389610e-02 2.15894685261988e-04
8.27294117647059e+00 1.94358130966731e-02 2.14448544280740e-04
8.32941176470588e+00 1.92396214733833e-02 2.13007127275432e-04
8.38588235294118e+00 1.90454102741728e-02 2.11570536049022e-04
8.44235294117647e+00 1.88531595079771e-02 2.10138868700394e-04
8.49882352941177e+00 1.86628493855285e-02 2.08712219661546e-04
8.55529411764706e+00 1.84744603175378e-02 2.07290679971672e-04
8.61176470588235e+00 1.82879729120153e-02 2.05874337248025e-04
8.66823529411765e+00 1.81033679729426e-02 2.04463275652185e-04
8.72470588235294e+00 1.79206264980723e-02 2.03057576161604e-04
8.78117647058824e+00 1.77397296769722e-02 2.01657316536093e-04
8.83764705882353e+00 1.75606588892903e-02 2.00262571568316e-04
8.89411764705882e+00 1.73833957022291e-02 1.98873413050997e-04
8.95058823529412e+00 1.72079218692620e-02 1.97489909739970e-04
9.00705882352941e+00 1.70342193280492e-02 1.96112127602871e-04
9.06352941176471e+00 1.68622701985777e-02 1.94740129834760e-04
9.12000000000000e+00 1.66920567813217e-02 1.93373976878615e-04
9.17647058823530e+00 1.65235615556031e-02 1.92013726650817e-04
9.23294117647059e+00 1.63567671772353e-02 1.90659434505272e-04
9.28941176470588e+00 1.61916564772951e-02 1.89311153193893e-04
9.34588235294118e+00 1.60282124601680e-02 1.87968933090976e-04
9.40235294117647e+00 1.58664183017989e-02 1.86632822202610e-04
9.45882352941176e+00 1.57062573479605e-02 1.85302866180756e-04
9.51529411764706e+00 1.55477131127046e-02 1.83979108526792e-04
9.57176470588235e+00 1.53907692761638e-02 1.82661590553743e-04
9.62823529411765e+00 1.52354096833770e-02 1.81350351345265e-04
9.68470588235294e+00 1.50816183424564e-02 1.80045427958681e-04
9.74117647058824e+00 1.49293794229421e-02 1.78746855385053e-04
9.79764705882353e+00 1.47786772543248e-02 1.77454666736475e-04
9.85411764705882e+00 1.46294963239707e-02 1.76168893207485e-04
9.91058823529412e+00 1.44818212759911e-02 1.74889564033550e-04
9.96705882352941e+00 1.43356369095042e-02 1.73616706678175e-04
1.00235294117647e+01 1.41909281770712e-02 1.72350346792500e-04
1.00800000000000e+01 1.40476801832884e-02 1.71090508428869e-04
1.01364705882353e+01 1.39058781826881e-02 1.69837213918488e-04
1.01929411764706e+01 1.37655075789339e-02 1.68590483830075e-04
1.02494117647059e+01 1.36265539230306e-02 1.67350337227947e-04
1.03058823529412e+01 1.34890029118357e-02 1.66116791236890e-04
1.03623529411765e+01 1.33528403878924e-02 1.64889862263820e-04
1.04188235294118e+01 1.32180523340247e-02 1.63669565247247e-04
1.04752941176471e+01 1.30846248758750e-02 1.62455912890772e-04
1.05317647058824e+01 1.29525442791379e-02 1.61248916915292e-04
1.05882352941176e+01 1.28217969481467e-02 1.60048587688984e-04
1.06447058823529e+01 1.26923694244725e-02 1.58854934262994e-04
1.07011764705882e+01 1.25642483855416e-02 1.57667964406973e-04
1.07576470588235e+01 1.24374206432625e-02 1.56487684644461e-04
1.08141176470588e+01 1.23118731426687e-02 1.55314099938048e-04
1.08705882352941e+01 1.21875929617109e-02 1.54147214774989e-04
1.09270588235294e+01 1.20645673064908e-02 1.52987032494637e-04
1.09835294117647e+01 1.19427835134084e-02 1.51833554601658e-04
1.10400000000000e+01 1.18222290466943e-02 1.50686781879135e-04
1.10964705882353e+01 1.17028914971190e-02 1.49546714055011e-04
1.11529411764706e+01 1.15847585807154e-02 1.48413349831057e-04
1.12094117647059e+01 1.14678181375156e-02 1.47286686911791e-04
1.12658823529412e+01 1.13520581302984e-02 1.46166721718032e-04
1.13223529411765e+01 1.12374666443552e-02 1.45053450364425e-04
1.13788235294118e+01 1.11240318832240e-02 1.43946868049659e-04
1.14352941176471e+01 1.10117421705399e-02 1.42846968433910e-04
1.14917647058824e+01 1.09005859478028e-02 1.41753744641379e-04
1.15482352941176e+01 1.07905517731881e-02 1.40667188957197e-04
1.16047058823529e+01 1.06816283203678e-02 1.39587292851102e-04
1.16611764705882e+01 1.05738043773464e-02 1.38514047001069e-04
1.17176470588235e+01 1.04670688453060e-02 1.37447441316934e-04
1.17741176470588e+01 1.03614107374639e-02 1.36387464681694e-04
1.18305882352941e+01 1.02568191788197e-02 1.35334105822460e-04
1.18870588235294e+01 1.01532834023801e-02 1.34287352763543e-04
1.19435294117647e+01 1.00507927507283e-02 1.33247192268125e-04
1.20000000000000e+01 9.94933667402655e-03 1.32213610731658e-04
1.20564705882353e+01 9.84890472893067e-03 1.31186593908697e-04
1.21129411764706e+01 9.74948657751487e-03 1.30166126932237e-04
1.21694117647059e+01 9.65107198620814e-03 1.29152194333012e-04
1.22258823529412e+01 9.55365082474054e-03 1.28144779804164e-04
1.22823529411765e+01 9.45721306587994e-03 1.27143866987177e-04
1.23388235294118e+01 9.36174878204252e-03 1.26149438975574e-04
1.23952941176471e+01 9.26724814664725e-03 1.25161477808292e-04
1.24517647058824e+01 9.17370143230584e-03 1.24179965276062e-04
1.25082352941176e+01 9.08109900982146e-03 1.23204882673100e-04
1.25647058823529e+01 8.98943134719700e-03 1.22236210812900e-04
1.26211764705882e+01 8.89868900865506e-03 1.21273930044032e-04
1.26776470588235e+01 8.80886265366608e-03 1.20318020265986e-04
1.27341176470588e+01 8.71994303598690e-03 1.19368460716682e-04
1.27905882352941e+01 8.63192100339240e-03 1.18425230674171e-04
1.28470588235294e+01 8.54478749466683e-03 1.17488309011084e-04
1.29035294117647e+01 8.45853354075426e-03 1.16557673739850e-04
1.29600000000000e+01 8.37315026313535e-03 1.15633302732763e-04
1.30164705882353e+01 8.28862887291325e-03 1.14715173498121e-04
1.30729411764706e+01 8.20496066990913e-03 1.13803263193146e-04
1.31294117647059e+01 8.12213704176688e-03 1.12897548636939e-04
1.31858823529412e+01 8.04014946306636e-03 1.11998006117082e-04
1.32423529411765e+01 7.95898949505421e-03 1.11104612023979e-04
1.32988235294118e+01 7.87864878293562e-03 1.10217342446165e-04
1.33552941176471e+01 7.79911905686861e-03 1.09336172757265e-04
1.34117647058824e+01 7.72039213048968e-03 1.08461078267039e-04
1.34682352941176e+01 7.64245990007121e-03 1.07592034017794e-04
1.35247058823529e+01 7.56531434368686e-03 1.06729014794900e-04
1.35811764705882e+01 7.48894752038668e-03 1.05871995137344e-04
1.36376470588235e+01 7.41335156937931e-03 1.05020949348322e-04
1.36941176470588e+01 7.33851870922280e-03 1.04175851320635e-04
1.37505882352941e+01 7.26444123755857e-03 1.03336675104020e-04
1.38070588235294e+01 7.19111152870117e-03 1.02503394541505e-04
1.38635294117647e+01 7.11852203448355e-03 1.01675982898275e-04
1.39200000000000e+01 7.04666528293236e-03 1.00854413444017e-04
1.39764705882353e+01 6.97553387749861e-03 1.00038659269333e-04
1.40329411764706e+01 6.90512049629655e-03 9.92286932942992e-05
1.40894117647059e+01 6.83541789135016e-03 9.84244882770946e-05
1.41458823529412e+01 6.76641888784685e-03 9.76260166550125e-05
1.42023529411765e+01 6.69811638387631e-03 9.68332510580807e-05
1.42588235294118e+01 6.63050334825624e-03 9.60461639784874e-05
1.43152941176471e+01 6.56357282126321e-03 9.52647274332151e-05
1.43717647058824e+01 6.49731791342753e-03 9.44889134913337e-05
1.44282352941176e+01 6.43173180482410e-03 9.37186941069181e-05
1.44847058823529e+01 6.36680774437010e-03 9.29540411259698e-05
1.45411764705882e+01 6.30253904913066e-03 9.21949262933968e-05
1.45976470588235e+01 6.23891910363070e-03 9.14413212600474e-05
1.46541176470588e+01 6.17594135917391e-03 9.06931974391052e-05
1.47105882352941e+01 6.11359933358942e-03 8.99505264661311e-05
1.47670588235294e+01 6.05188660929254e-03 8.92132799017650e-05
1.48235294117647e+01 5.99079683390617e-03 8.84814289283192e-05
1.48800000000000e+01 5.93032371917617e-03 8.77549448220988e-05
1.49364705882353e+01 5.87046104032402e-03 8.70337988026577e-05
1.49929411764706e+01 5.81120263540618e-03 8.63179620384027e-05
1.50494117647059e+01 5.75254240467994e-03 8.56074056522581e-05
1.51058823529412e+01 5.69447430997539e-03 8.49021005908551e-05
1.51623529411765e+01 5.63699237445016e-03 8.42020180415270e-05
1.52188235294118e+01 5.58009068083671e-03 8.35071291618315e-05
1.52752941176471e+01 5.52376337197959e-03 8.28174048035350e-05
1.53317647058824e+01 5.46800464984741e-03 8.21328159407985e-05
1.53882352941176e+01 5.41280877493604e-03 8.14533335329056e-05
1.54447058823529e+01 5.35817006567758e-03 8.07789285287365e-05
1.55011764705882e+01 5.30408289785598e-03 8.01095718712835e-05
1.55576470588235e+01 5.25054170402789e-03 7.94452345022261e-05
1.56141176470588e+01 5.19754097294960e-03 7.87858872437490e-05
1.56705882352941e+01 5.14507524934203e-03 7.81315011724947e-05
1.57270588235294e+01 5.09313913232451e-03 7.74820473760991e-05
1.57835294117647e+01 5.04172727587137e-03 7.68374967047724e-05
1.58400000000000e+01 4.99083438792151e-03 7.61978201553219e-05
1.58964705882353e+01 4.94045522983352e-03 7.55629887472323e-05
1.59529411764706e+01 4.89058461584660e-03 7.49329735262377e-05
1.60094117647059e+01 4.84121741254684e-03 7.43077455679457e-05
1.60658823529412e+01 4.79234853833869e-03 7.36872758700967e-05
1.61223529411765e+01 4.74397296321966e-03 7.30715356919181e-05
1.61788235294118e+01 4.69608570736245e-03 7.24604963324650e-05
1.62352941176471e+01 4.64868184150944e-03 7.18541289044455e-05
1.62917647058824e+01 4.60175648616056e-03 7.12524046827333e-05
1.63482352941176e+01 4.55530481107103e-03 7.06552949914534e-05
1.64047058823529e+01 4.50932203475400e-03 7.00627712067667e-05
1.64611764705882e+01 4.46380342398869e-03 6.94748047596929e-05
1.65176470588235e+01 4.41874429333305e-03 6.88913671389948e-05
1.65741176470588e+01 4.37414000464143e-03 6.83124297938052e-05
1.66305882352941e+01 4.32998596685064e-03 6.77379644382730e-05
1.66870588235294e+01 4.28627763471084e-03 6.71679428518957e-05
1.67435294117647e+01 4.24301050912037e-03 6.66023366757956e-05
1.68000000000000e+01 4.20018013639300e-03 6.60411177256277e-05
1.68564705882353e+01 4.15778210779942e-03 6.54842578895912e-05
1.69129411764706e+01 4.11581205911349e-03 6.49317291306016e-05
1.69694117647059e+01 4.07426567016309e-03 6.43835034885089e-05
1.70258823529412e+01 4.03313866438536e-03 6.38395529912866e-05
1.70823529411765e+01 3.99242680862294e-03 6.32998499317492e-05
1.71388235294118e+01 3.95212591197343e-03 6.27643666856323e-05
1.71952941176471e+01 3.91223182607831e-03 6.22330755259971e-05
1.72517647058824e+01 3.87274044445396e-03 6.17059489074657e-05
1.73082352941176e+01 3.83364770206899e-03 6.11829593732336e-05
1.73647058823529e+01 3.79494957492564e-03 6.06640795566938e-05
1.74211764705882e+01 3.75664207964585e-03 6.01492821831006e-05
1.74776470588235e+01 3.71872127306111e-03 5.96385400712817e-05
1.75341176470588e+01 3.68118325180657e-03 5.91318260533334e-05
1.75905882352941e+01 3.64402415212885e-03 5.86291132232734e-05
1.76470588235294e+01 3.60724014885467e-03 5.81303747730639e-05
1.77035294117647e+01 3.57082745563565e-03 5.76355838253182e-05
1.77600000000000e+01 3.53478232434406e-03 5.71447136887315e-05
1.78164705882353e+01 3.49910104468697e-03 5.66577377740597e-05
