Energy (eV)          EEDF (eV^-(3/2))     First Anisotropy
3.68181818181818e-02 1.10525940820148e-01 8.79790760443944e-05
1.10454545454545e-01 1.08800893856577e-01 1.44630956203757e-04
1.84090909090909e-01 1.07102770773514e-01 1.89221552378893e-04
2.57727272727273e-01 1.05431151348271e-01 2.22075938849874e-04
3.31363636363636e-01 1.03785621922821e-01 2.48644439367097e-04
4.05000000000000e-01 1.02165775300314e-01 2.71015576236091e-04
4.78636363636364e-01 1.00571210628088e-01 2.90283980622600e-04
5.52272727272727e-01 9.90015333184555e-02 3.07118845574409e-04
6.25909090909091e-01 9.74563549359056e-02 3.21969344403397e-04
6.99545454545455e-01 9.59352931106059e-02 3.35156680574395e-04
7.73181818181818e-01 9.44379714427211e-02 3.46921354257589e-04
8.46818181818182e-01 9.29640194028459e-02 3.57449849629630e-04
9.20454545454546e-01 9.15130722467402e-02 3.66890803221538e-04
9.94090909090909e-01 9.00847709245406e-02 3.75365349815033e-04
1.06772727272727e+00 8.86787619884341e-02 3.82974036737023e-04
1.14136363636364e+00 8.72946975107239e-02 3.89801614966684e-04
1.21500000000000e+00 8.59322349789032e-02 3.95920455802390e-04
1.28863636363636e+00 8.45910372495434e-02 4.01393055901052e-04
1.36227272727273e+00 8.32707724191503e-02 4.06273910072932e-04
1.43590909090909e+00 8.19711137852755e-02 4.10610939003918e-04
1.50954545454545e+00 8.06917397335454e-02 4.14446600360414e-04
1.58318181818182e+00 7.94323336614896e-02 4.17818756590949e-04
1.65681818181818e+00 7.81925839247702e-02 4.20761372907578e-04
1.73045454545455e+00 7.69721837342338e-02 4.23305080761295e-04
1.80409090909091e+00 7.57708310826056e-02 4.25477632200472e-04
1.87772727272727e+00 7.45882286899634e-02 4.27304279385766e-04
1.95136363636364e+00 7.34240839090200e-02 4.28808090123004e-04
2.02500000000000e+00 7.22781086545665e-02 4.30010207496126e-04
2.09863636363636e+00 7.11500193492591e-02 4.30930074219184e-04
2.17227272727273e+00 7.00395368306171e-02 4.31585621085964e-04
2.24590909090909e+00 6.89463863038818e-02 4.31993428002069e-04
2.31954545454545e+00 6.78702972576520e-02 4.32168865175422e-04
2.39318181818182e+00 6.68110033982266e-02 4.32126210664202e-04
2.46681818181818e+00 6.57682425972422e-02 4.31878756702683e-04
2.54045454545455e+00 6.47417568127810e-02 4.31438902685380e-04
2.61409090909091e+00 6.37312920266009e-02 4.30818233053317e-04
2.68772727272727e+00 6.27365981929627e-02 4.30027589675514e-04
2.76136363636364e+00 6.17574291646630e-02 4.29077135960498e-04
2.83500000000000e+00 6.07935426329677e-02 4.27976410400312e-04
2.90863636363636e+00 5.98447000778886e-02 4.26734378042521e-04
2.98227272727273e+00 5.89106666955014e-02 4.25359474868497e-04
3.05590909090909e+00 5.79912113530578e-02 4.23859647490219e-04
3.12954545454545e+00 5.70861065219204e-02 4.22242390754399e-04
3.20318181818182e+00 5.61951282218982e-02 4.20514778304484e-04
3.27681818181818e+00 5.53180559742804e-02 4.18683493230554e-04
3.35045454545455e+00 5.44546727385673e-02 4.16754855901479e-04
3.42409090909091e+00 5.36047648593274e-02 4.14734846510292e-04
3.49772727272727e+00 5.27681220208139e-02 4.12629128376840e-04
3.57136363636364e+00 5.19445371872178e-02 4.10443069254274e-04
3.64500000000000e+00 5.11338065518972e-02 4.08181758285378e-04
3.71863636363636e+00 5.03357294936315e-02 4.05850024347497e-04
3.79227272727273e+00 4.95501085180614e-02 4.03452451650658e-04
3.86590909090909e+00 4.87767492174763e-02 4.00993394005331e-04
3.93954545454545e+00 4.80154602162368e-02 3.98476989379974e-04
4.01318181818182e+00 4.72660531237838e-02 3.95907170804208e-04
4.08681818181818e+00 4.65283424936807e-02 3.93287678713244e-04
4.16045454545455e+00 4.58021457719171e-02 3.90622072396374e-04
4.23409090909091e+00 4.50872832520671e-02 3.87913738521131e-04
4.30772727272727e+00 4.43835780359045e-02 3.85165901143391e-04
4.38136363636364e+00 4.36908559844149e-02 3.82381631028869e-04
4.45500000000000e+00 4.30089456749830e-02 3.79563852391228e-04
4.52863636363636e+00 4.23376783635712e-02 3.76715351310093e-04
4.60227272727273e+00 4.16768879368360e-02 3.73838782621092e-04
4.67590909090909e+00 4.10264108769867e-02 3.70936676286711e-04
4.74954545454545e+00 4.03860862168635e-02 3.68011444426587e-04
4.82318181818182e+00 3.97557555003339e-02 3.65065385949045e-04
4.89681818181818e+00 3.91352627470343e-02 3.62100692628841e-04
4.97045454545455e+00 3.85244544097273e-02 3.59119454815997e-04
5.04409090909091e+00 3.79231793365157e-02 3.56123665178384e-04
5.11772727272727e+00 3.73312887370256e-02 3.53115223834277e-04
5.19136363636364e+00 3.67486361419184e-02 3.50095943185504e-04
5.26500000000000e+00 3.61750773668268e-02 3.47067550960512e-04
5.33863636363636e+00 3.56104704799457e-02 3.44031694737040e-04
5.41227272727273e+00 3.50546757625535e-02 3.40989945451087e-04
5.48590909090909e+00 3.45075556786862e-02 3.37943800654594e-04
5.55954545454545e+00 3.39689748379273e-02 3.34894688420542e-04
5.63318181818182e+00 3.34387999620550e-02 3.31843969511896e-04
5.70681818181818e+00 3.29168998549041e-02 3.28792940783923e-04
5.78045454545455e+00 3.24031453669974e-02 3.25742838405496e-04
5.85409090909091e+00 3.18974093637272e-02 3.22694839642661e-04
5.92772727272727e+00 3.13995666964919e-02 3.19650065809284e-04
6.00136363636364e+00 3.09094941690753e-02 3.16609585065163e-04
6.07500000000000e+00 3.04270705072823e-02 3.13574413886727e-04
6.14863636363636e+00 2.99521763313119e-02 3.10545519759650e-04
6.22227272727273e+00 2.94846941230422e-02 3.07523823139421e-04
6.29590909090909e+00 2.90245082000481e-02 3.04510199270571e-04
6.36954545454546e+00 2.85715046846583e-02 3.01505480564550e-04
6.44318181818182e+00 2.81255714758790e-02 2.98510457663007e-04
6.51681818181818e+00 2.76865982237408e-02 2.95525881511364e-04
6.59045454545455e+00 2.72544762998629e-02 2.92552465332041e-04
6.66409090909091e+00 2.68290987706691e-02 2.89590885503344e-04
6.73772727272727e+00 2.64103603728436e-02 2.86641783390309e-04
6.81136363636364e+00 2.59981574853276e-02 2.83705767088655e-04
6.88500000000000e+00 2.55923881037619e-02 2.80783412150815e-04
6.95863636363636e+00 2.51929518170135e-02 2.77875263303132e-04
7.03227272727273e+00 2.47997497799738e-02 2.74981835610705e-04
7.10590909090909e+00 2.44126846913992e-02 2.72103615554137e-04
7.17954545454545e+00 2.40316607681132e-02 2.69241062569914e-04
7.25318181818182e+00 2.36565837213768e-02 2.66394609571226e-04
7.32681818181818e+00 2.32873607351147e-02 2.63564664286803e-04
7.40045454545455e+00 2.29239004413592e-02 2.60751610539062e-04
7.47409090909091e+00 2.25661128977094e-02 2.57955808670840e-04
7.54772727272727e+00 2.22139095665114e-02 2.55177596742160e-04
7.62136363636364e+00 2.18672032914851e-02 2.52417291673416e-04
7.69500000000000e+00 2.15259082762166e-02 2.49675189593077e-04
7.76863636363636e+00 2.11899400642581e-02 2.46951566985628e-04
7.84227272727273e+00 2.08592155164571e-02 2.44246681412311e-04
7.91590909090909e+00 2.05336527921152e-02 2.41560772172890e-04
7.98954545454546e+00 2.02131713274406e-02 2.38894061346937e-04
8.06318181818182e+00 1.98976918156647e-02 2.36246754032927e-04
8.13681818181818e+00 1.95871361885957e-02 2.33619039247886e-04
8.21045454545455e+00 1.92814275960999e-02 2.31011090787949e-04
8.28409090909091e+00 1.89804903871345e-02 2.28423067417574e-04
8.35772727272727e+00 1.86842500921179e-02 2.25855113680628e-04
8.43136363636364e+00 1.83926334033910e-02 2.23307360676564e-04
8.50500000000000e+00 1.81055681571215e-02 2.20779926207440e-04
8.57863636363636e+00 1.78229833164580e-02 2.18272915570933e-04
8.65227272727273e+00 1.75448089526041e-02 2.15786422017885e-04
8.72590909090909e+00 1.72709762288327e-02 2.13320527168352e-04
8.79954545454546e+00 1.70014173824654e-02 2.10875301736870e-04
8.87318181818182e+00 1.67360657081433e-02 2.08450805620459e-04
8.94681818181818e+00 1.64748555422200e-02 2.06047088520281e-04
9.02045454545455e+00 1.62177222455968e-02 2.03664190536964e-04
9.09409090909091e+00 1.59646021877641e-02 2.01302142231783e-04
9.16772727272727e+00 1.57154327318908e-02 1.98960965190535e-04
9.24136363636364e+00 1.54701522184743e-02 1.96640672563629e-04
9.31500000000000e+00 1.52286999501155e-02 1.94341269104569e-04
9.38863636363636e+00 1.49910161772757e-02 1.92062751730643e-04
9.46227272727273e+00 1.47570420824564e-02 1.89805109817526e-04
9.53590909090909e+00 1.45267197666575e-02 1.87568325463617e-04
9.60954545454545e+00 1.42999922342923e-02 1.85352374005991e-04
9.68318181818182e+00 1.40768033791122e-02 1.83157224026693e-04
9.75681818181818e+00 1.38570979710163e-02 1.80982837790820e-04
9.83045454545455e+00 1.36408216416789e-02 1.78829171666301e-04
9.90409090909091e+00 1.34279208711235e-02 1.76696176115917e-04
9.97772727272727e+00 1.32183429751231e-02 1.74583796306459e-04
1.00513636363636e+01 1.30120360904870e-02 1.72491971565749e-04
1.01250000000000e+01 1.28089491667466e-02 1.70420636825204e-04
1.01986363636364e+01 1.26090319459711e-02 1.68369722112671e-04
1.02722727272727e+01 1.24122349585655e-02 1.66339152792654e-04
1.03459090909091e+01 1.22185095032082e-02 1.64328850330616e-04
1.04195454545455e+01 1.20278076406174e-02 1.62338730861205e-04
1.04931818181818e+01 1.18400821815062e-02 1.60368707767234e-04
1.05668181818182e+01 1.16552866695197e-02 1.58418690699639e-04
1.06404545454545e+01 1.14733753751763e-02 1.56488584626654e-04
1.07140909090909e+01 1.12943032843875e-02 1.54578292261944e-04
1.07877272727273e+01 1.11180260822765e-02 1.52687713128799e-04
1.08613636363636e+01 1.09445001473029e-02 1.50816742652179e-04
1.09350000000000e+01 1.07736825403099e-02 1.48965274445559e-04
1.10086363636364e+01 1.06055309891831e-02 1.47133199096359e-04
1.10822727272727e+01 1.04400038846350e-02 1.45320404584491e-04
1.11559090909091e+01 1.02770602638156e-02 1.43526776833075e-04
1.12295454545455e+01 1.01166598047103e-02 1.41752198519648e-04
1.13031818181818e+01 9.95876281602216e-03 1.39996551136333e-04
1.13768181818182e+01 9.80333022314591e-03 1.38259714168013e-04
1.14504545454545e+01 9.65032356274351e-03 1.36541564295118e-04
1.15240909090909e+01 9.49970497309885e-03 1.34841977335602e-04
1.15977272727273e+01 9.35143718080805e-03 1.33160827461095e-04
1.16713636363636e+01 9.20548349553462e-03 1.31497986436445e-04
1.17450000000000e+01 9.06180780080813e-03 1.29853325450780e-04
1.18186363636364e+01 8.92037454139617e-03 1.28226714109246e-04
1.18922727272727e+01 8.78114871939499e-03 1.26618020751105e-04
1.19659090909091e+01 8.64409588079640e-03 1.25027112874700e-04
1.20395454545455e+01 8.50918211051484e-03 1.23453856151650e-04
1.21131818181818e+01 8.37637402388646e-03 1.21898116079766e-04
1.21868181818182e+01 8.24563875510997e-03 1.20359757295923e-04
1.22604545454545e+01 8.11694395244384e-03 1.18838642909506e-04
1.23340909090909e+01 7.99025777010187e-03 1.17334636062006e-04
1.24077272727273e+01 7.86554885727758e-03 1.15847599272085e-04
1.24813636363636e+01 7.74278635351152e-03 1.14377393800165e-04
1.25550000000000e+01 7.62193988095976e-03 1.12923881120302e-04
1.26286363636364e+01 7.50297953397432e-03 1.11486922083850e-04
1.27022727272727e+01 7.38587587554851e-03 1.10066377162781e-04
1.27759090909091e+01 7.27059992627631e-03 1.08662106779621e-04
1.28495454545455e+01 7.15712315997833e-03 1.07273970490358e-04
1.29231818181818e+01 7.04541749655838e-03 1.05901828315360e-04
1.29968181818182e+01 6.93545529245569e-03 1.04545540165806e-04
1.30704545454545e+01 6.82720933642895e-03 1.03204965287282e-04
1.31440909090909e+01 6.72065284274550e-03 1.01879963516545e-04
1.32177272727273e+01 6.61575944211121e-03 1.00570394735039e-04
1.32913636363636e+01 6.51250317761091e-03 9.92761183387050e-05
1.33650000000000e+01 6.41085849821104e-03 9.79969944249525e-05
1.34386363636364e+01 6.31080025014474e-03 9.67328830990843e-05
1.35122727272727e+01 6.21230367372518e-03 9.54836446613248e-05
1.35859090909091e+01 6.11534439425007e-03 9.42491398641999e-05
1.36595454545455e+01 6.01989841818109e-03 9.30292292353245e-05
1.37331818181818e+01 5.92594212714033e-03 9.18237741522123e-05
1.38068181818182e+01 5.83345227000928e-03 9.06326363639331e-05
1.38804545454545e+01 5.74240595925188e-03 8.94556775270597e-05
1.39540909090909e+01 5.65278066519031e-03 8.82927602212674e-05
1.40277272727273e+01 5.56455420849600e-03 8.71437474936990e-05
1.41013636363636e+01 5.47770475665401e-03 8.60085024168749e-05
1.41750000000000e+01 5.39221081850226e-03 8.48868890484985e-05
1.42486363636364e+01 5.30805123709635e-03 8.37787718562232e-05
1.43222727272727e+01 5.22520518688276e-03 8.26840158619290e-05
1.43959090909091e+01 5.14365216619072e-03 8.16024868432639e-05
1.44695454545455e+01 5.06337199391324e-03 8.05340507722242e-05
1.45431818181818e+01 4.98434480446101e-03 7.94785746853288e-05
1.46168181818182e+01 4.90655104121362e-03 7.84359262848611e-05
1.46904545454545e+01 4.82997145332918e-03 7.74059735519907e-05
1.47640909090909e+01 4.75458709093282e-03 7.63885855694772e-05
1.48377272727273e+01 4.68037929889061e-03 7.53836321418839e-05
1.49113636363636e+01 4.60732971374514e-03 7.43909834270642e-05
1.49850000000000e+01 4.53542025912547e-03 7.34105107140889e-05
1.50586363636364e+01 4.46463313982887e-03 7.24420859460033e-05
1.51322727272727e+01 4.39495083933327e-03 7.14855818314198e-05
1.52059090909091e+01 4.32635611358887e-03 7.05408720028206e-05
1.52795454545455e+01 4.25883198814723e-03 6.96078305509412e-05
1.53531818181818e+01 4.19236175391976e-03 6.86863327307774e-05
1.54268181818182e+01 4.12692896174215e-03 6.77762546292333e-05
1.55004545454545e+01 4.06251741961753e-03 6.68774728426126e-05
1.55740909090909e+01 3.99911118867183e-03 6.59898651444280e-05
1.56477272727273e+01 3.93669457798460e-03 6.51133101688829e-05
1.57213636363636e+01 3.87525214194331e-03 6.42476871036994e-05
1.57950000000000e+01 3.81476867638482e-03 6.33928763218745e-05
1.58686363636364e+01 3.75522921368029e-03 6.25487589855818e-05
1.59422727272727e+01 3.69661902055996e-03 6.17152171326489e-05
1.60159090909091e+01 3.63892359297176e-03 6.08921338011816e-05
1.60895454545455e+01 3.58212865360685e-03 6.00793926432258e-05
1.61631818181818e+01 3.52622014833389e-03 5.92768784986555e-05
1.62368181818182e+01 3.47118424168230e-03 5.84844771181324e-05
1.63104545454545e+01 3.41700731446788e-03 5.77020748942474e-05
1.63840909090909e+01 3.36367596039256e-03 5.69295594045856e-05
1.64577272727273e+01 3.31117698174787e-03 5.61668191478939e-05
1.65313636363636e+01 3.25949738713786e-03 5.54137432880085e-05
1.66050000000000e+01 3.20862438823540e-03 5.46702221678108e-05
1.66786363636364e+01 3.15854539569565e-03 5.39361469803209e-05
1.67522727272727e+01 3.10924801726352e-03 5.32114098357758e-05
1.68259090909091e+01 3.06072005351047e-03 5.24959038599336e-05
1.68995454545455e+01 3.01294949570768e-03 5.17895228733514e-05
1.69731818181818e+01 2.96592452282846e-03 5.10921618586319e-05
1.70468181818182e+01 2.91963349779102e-03 5.04037167294520e-05
1.71204545454545e+01 2.87406496541911e-03 4.97240841063908e-05
1.71940909090909e+01 2.82920764958338e-03 4.90531617592472e-05
1.72677272727273e+01 2.78505044962656e-03 4.83908483870777e-05
1.73413636363636e+01 2.74158243840878e-03 4.77370434046812e-05
1.74150000000000e+01 2.69879285958061e-03 4.70916473613547e-05
1.74886363636364e+01 2.65667112418209e-03 4.64545616676401e-05
1.75622727272727e+01 2.61520680900298e-03 4.58256886473914e-05
1.76359090909091e+01 2.57438965304357e-03 4.52049316154300e-05
1.77095454545455e+01 2.53420955569115e-03 4.45921946111460e-05
1.77831818181818e+01 2.49465657419980e-03 4.39873827794682e-05
1.78568181818182e+01 2.45572092056221e-03 4.33904021782589e-05
1.79304545454545e+01 2.41739295976200e-03 4.28011595913476e-05
1.80040909090909e+01 2.37966320737037e-03 4.22195628892944e-05
1.80777272727273e+01 2.34252232656908e-03 4.16455208459561e-05
1.81513636363636e+01 2.30596112647628e-03 4.10789429604016e-05
1.82250000000000e+01 2.26997055985380e-03 4.05197397985729e-05
1.82986363636364e+01 2.23454172027437e-03 3.99678227661456e-05
1.83722727272727e+01 2.19966584070562e-03 3.94231041489448e-05
1.84459090909091e+01 2.16533429056909e-03 3.88854971743584e-05
1.85195454545455e+01 2.13153857417981e-03 3.83549157899389e-05
1.85931818181818e+01 2.09827032862739e-03 3.78312749744316e-05
1.86668181818182e+01 2.06552132116944e-03 3.73144905771080e-05
1.87404545454545e+01 2.03328344773684e-03 3.68044791617868e-05
1.88140909090909e+01 2.00154873091298e-03 3.63011583014457e-05
1.88877272727273e+01 1.97030931745272e-03 3.58044464252029e-05
1.89613636363636e+01 1.93955747685108e-03 3.53142626697411e-05
1.90350000000000e+01 1.90928559941561e-03 3.48305271583941e-05
1.91086363636364e+01 1.87948619390502e-03 3.43531608122517e-05
1.91822727272727e+01 1.85015188630998e-03 3.38820853815145e-05
1.92559090909091e+01 1.82127541740688e-03 3.34172234940979e-05
1.93295454545455e+01 1.79284964142497e-03 3.29584984715414e-05
1.94031818181818e+01 1.76486752426472e-03 3.25058345832228e-05
1.94768181818182e+01 1.73732214132436e-03 3.20591569122908e-05
1.95504545454545e+01 1.71020667622354e-03 3.16183912254940e-05
1.96240909090909e+01 1.68351441910423e-03 3.11834642140461e-05
1.96977272727273e+01 1.65723876456162e-03 3.07543033659298e-05
1.97713636363636e+01 1.63137321042236e-03 3.03308368418989e-05
1.98450000000000e+01 1.60591135612377e-03 2.99129937037073e-05
1.99186363636364e+01 1.58084690074424e-03 2.95007037569319e-05
1.99922727272727e+01 1.55617364195581e-03 2.90938975752755e-05
2.00659090909091e+01 1.53188547398804e-03 2.86925065390571e-05
2.01395454545455e+01 1.50797638649095e-03 2.82964626820572e-05
2.02131818181818e+01 1.48444046303712e-03 2.79056988995123e-05
2.02868181818182e+01 1.46127187930812e-03 2.75201488362101e-05
2.03604545454545e+01 1.43846490200622e-03 2.71397467778179e-05
2.04340909090909e+01 1.41601388742574e-03 2.67644278480007e-05
2.05077272727273e+01 1.39391327972636e-03 2.63941279018262e-05
2.05813636363636e+01 1.37215760989173e-03 2.60287834222401e-05
2.06550000000000e+01 1.35074149436661e-03 2.56683317068887e-05
2.07286363636364e+01 1.32965963341299e-03 2.53127107372745e-05
2.08022727272727e+01 1.30890681021225e-03 2.49618591975624e-05
2.08759090909091e+01 1.28847788916897e-03 2.46157165050683e-05
2.09495454545455e+01 1.26836781494233e-03 2.42742226827798e-05
2.10231818181818e+01 1.24857161118659e-03 2.39373185296962e-05
2.10968181818182e+01 1.22908437903702e-03 2.36049455273882e-05
2.11704545454545e+01 1.20990129618307e-03 2.32770457492428e-05
2.12440909090909e+01 1.19101761566710e-03 2.29535620219301e-05
2.13177272727273e+01 1.17242866444268e-03 2.26344378363896e-05
2.13913636363636e+01 1.15412984248788e-03 2.23196172613713e-05
2.14650000000000e+01 1.13611662165935e-03 2.20090450965007e-05
2.15386363636364e+01 1.11838454431959e-03 2.17026667633023e-05
2.16122727272727e+01 1.10092922256856e-03 2.14004283197236e-05
2.16859090909091e+01 1.08374633682988e-03 2.11022764842865e-05
2.17595454545455e+01 1.06683163502658e-03 2.08081585299306e-05
2.18331818181818e+01 1.05018093152197e-03 2.05180224236340e-05
2.19068181818182e+01 1.03379010585505e-03 2.02318167483604e-05
2.19804545454545e+01 1.01765510195198e-03 1.99494906272452e-05
2.20540909090909e+01 1.00177192711597e-03 1.96709938559692e-05
2.21277272727273e+01 9.86136650822900e-04 1.93962768284013e-05
2.22013636363636e+01 9.70745403967212e-04 1.91252904643660e-05
2.22750000000000e+01 9.55594377898276e-04 1.88579863351519e-05
2.23486363636364e+01 9.40679823273534e-04 1.85943165727106e-05
2.24222727272727e+01 9.25998049401953e-04 1.83342338808439e-05
2.24959090909091e+01 9.11545423064875e-04 1.80776915543317e-05
2.25695454545455e+01 8.97318367815289e-04 1.78246433904898e-05
2.26431818181818e+01 8.83313363087212e-04 1.75750438037008e-05
2.27168181818182e+01 8.69526943138944e-04 1.73288477601964e-05
2.27904545454545e+01 8.55955696382867e-04 1.70860107147012e-05
2.28640909090909e+01 8.42596264536024e-04 1.68464887190374e-05
2.29377272727273e+01 8.29445341613611e-04 1.66102383599914e-05
2.30113636363636e+01 8.16499673288125e-04 1.63772166989472e-05
2.30850000000000e+01 8.03756056079062e-04 1.61473813748765e-05
2.31586363636364e+01 7.91211336394351e-04 1.59206905286473e-05
2.32322727272727e+01 7.78862409970099e-04 1.56971028116136e-05
