Energy (eV)          EEDF (eV^-(3/2))     First Anisotropy
1.41136363636364e-03 1.46895898651750e+01 1.08404975771528e-02
4.23409090909091e-03 1.44607025498052e+01 1.78211929581077e-02
7.05681818181818e-03 1.42353816646942e+01 2.33161905379071e-02
9.87954545454546e-03 1.40135716397186e+01 2.73652853210870e-02
1.27022727272727e-02 1.37952177697284e+01 3.06399960501005e-02
1.55250000000000e-02 1.35802662020587e+01 3.33976327920426e-02
1.83477272727273e-02 1.33686639246645e+01 3.57730510710457e-02
2.11704545454545e-02 1.31603587490751e+01 3.78486905850760e-02
2.39931818181818e-02 1.29552993012100e+01 3.96798841503242e-02
2.68159090909091e-02 1.27534350074861e+01 4.13061989250188e-02
2.96386363636364e-02 1.25547160829561e+01 4.27572597669576e-02
3.24613636363636e-02 1.23590935170964e+01 4.40560371421218e-02
3.52840909090909e-02 1.21665190636954e+01 4.52208390268677e-02
3.81068181818182e-02 1.19769452287534e+01 4.62665855828340e-02
4.09295454545455e-02 1.17903252573849e+01 4.72056609427088e-02
4.37522727272727e-02 1.16066131236836e+01 4.80485032674711e-02
4.65750000000000e-02 1.14257635188957e+01 4.88040259872828e-02
4.93977272727273e-02 1.12477318405745e+01 4.94799261973513e-02
5.22204545454545e-02 1.10724741805927e+01 5.00829153730571e-02
5.50431818181818e-02 1.08999473153126e+01 5.06188953250434e-02
5.78659090909091e-02 1.07301086945916e+01 5.10930947347243e-02
6.06886363636364e-02 1.05629164315306e+01 5.15101766232442e-02
6.35113636363636e-02 1.03983292913957e+01 5.18743240194855e-02
6.63340909090909e-02 1.02363066822067e+01 5.21893090897751e-02
6.91568181818182e-02 1.00768086446754e+01 5.24585496687866e-02
7.19795454545454e-02 9.91979584173302e+00 5.26851557191707e-02
7.48022727272727e-02 9.76522954945264e+00 5.28719679611710e-02
7.76250000000000e-02 9.61307164728681e+00 5.30215903032035e-02
8.04477272727273e-02 9.46328460883094e+00 5.31364172228856e-02
8.32704545454546e-02 9.31583149207079e+00 5.32186570072961e-02
8.60931818181818e-02 9.17067593077448e+00 5.32703516372579e-02
8.89159090909091e-02 9.02778212535474e+00 5.32933939541352e-02
9.17386363636364e-02 8.88711483417323e+00 5.32895425168607e-02
9.45613636363636e-02 8.74863936444025e+00 5.32604344926783e-02
9.73840909090909e-02 8.61232156407202e+00 5.32075969161957e-02
1.00206818181818e-01 8.47812781324592e+00 5.31324566866658e-02
1.03029545454545e-01 8.34602501552988e+00 5.30363492039903e-02
1.05852272727273e-01 8.21598059108439e+00 5.29205261916109e-02
1.08675000000000e-01 8.08796246712818e+00 5.27861627340159e-02
1.11497727272727e-01 7.96193906966783e+00 5.26343630448155e-02
1.14320454545455e-01 7.83787931866893e+00 5.24661661935343e-02
1.17143181818182e-01 7.71575261734994e+00 5.22825512197404e-02
1.19965909090909e-01 7.59552884568183e+00 5.20844413917497e-02
1.22788636363636e-01 7.47717835213637e+00 5.18727080955601e-02
1.25611363636364e-01 7.36067194888748e+00 5.16481746321788e-02
1.28434090909091e-01 7.24598090203338e+00 5.14116197485345e-02
1.31256818181818e-01 7.13307692466375e+00 5.11637802042950e-02
1.34079545454545e-01 7.02193217213341e+00 5.09053537458070e-02
1.36902272727273e-01 6.91251923288741e+00 5.06370017643718e-02
1.39725000000000e-01 6.80481112248628e+00 5.03593514419558e-02
1.42547727272727e-01 6.69878127632057e+00 5.00729977565372e-02
1.45370454545455e-01 6.59440354499937e+00 4.97785055587860e-02
1.48193181818182e-01 6.49165218591442e+00 4.94764114972897e-02
1.51015909090909e-01 6.39050185757129e+00 4.91672255352860e-02
1.53838636363636e-01 6.29092761278738e+00 4.88514323850030e-02
1.56661363636364e-01 6.19290489422329e+00 4.85294930452728e-02
1.59484090909091e-01 6.09640952660395e+00 4.82018462896690e-02
1.62306818181818e-01 6.00141771084751e+00 4.78689095584750e-02
1.65129545454545e-01 5.90790601972227e+00 4.75310802695523e-02
1.67952272727273e-01 5.81585139050798e+00 4.71887369922929e-02
1.70775000000000e-01 5.72523111983812e+00 4.68422403220874e-02
1.73597727272727e-01 5.63602285766501e+00 4.64919337237504e-02
1.76420454545455e-01 5.54820460308496e+00 4.61381444981587e-02
1.79243181818182e-01 5.46175469754609e+00 4.57811846953185e-02
1.82065909090909e-01 5.37665181997296e+00 4.54213517702931e-02
1.84888636363636e-01 5.29287498112199e+00 4.50589292227270e-02
1.87711363636364e-01 5.21040351958192e+00 4.46941873588852e-02
1.90534090909091e-01 5.12921709547677e+00 4.43273840551124e-02
1.93356818181818e-01 5.04929568550779e+00 4.39587650975937e-02
1.96179545454545e-01 4.97061957909097e+00 4.35885648743412e-02
1.99002272727273e-01 4.89316937239783e+00 4.32170069904913e-02
2.01825000000000e-01 4.81692596394238e+00 4.28443046781332e-02
2.04647727272727e-01 4.74187054955913e+00 4.24706612037216e-02
2.07470454545455e-01 4.66798461871835e+00 4.20962703914457e-02
2.10293181818182e-01 4.59524994898903e+00 4.17213171241710e-02
2.13115909090909e-01 4.52364860187571e+00 4.13459776620936e-02
2.15938636363636e-01 4.45316291811632e+00 4.09704199630805e-02
2.18761363636364e-01 4.38377551417365e+00 4.05948041123636e-02
2.21584090909091e-01 4.31546927708508e+00 4.02192827665040e-02
2.24406818181818e-01 4.24822736028105e+00 3.98440012787234e-02
2.27229545454545e-01 4.18203318020907e+00 3.94690981089082e-02
2.30052272727273e-01 4.11687041145000e+00 3.90947051839449e-02
2.32875000000000e-01 4.05272298296069e+00 3.87209481066027e-02
2.35697727272727e-01 3.98957507388318e+00 3.83479463700141e-02
2.38520454545455e-01 3.92741111033809e+00 3.79758136704876e-02
2.41343181818182e-01 3.86621576087549e+00 3.76046582098816e-02
2.44165909090909e-01 3.80597393293450e+00 3.72345828614544e-02
2.46988636363636e-01 3.74667076891669e+00 3.68656853423350e-02
2.49811363636364e-01 3.68829164314400e+00 3.64980584774035e-02
2.52634090909091e-01 3.63082215761810e+00 3.61317904796186e-02
2.55456818181818e-01 3.57424813849658e+00 3.57669649840472e-02
2.58279545454545e-01 3.51855563317220e+00 3.54036613100332e-02
2.61102272727273e-01 3.46373090624644e+00 3.50419546884197e-02
2.63925000000000e-01 3.40976043634018e+00 3.46819163730815e-02
2.66747727272727e-01 3.35663091258995e+00 3.43236137598697e-02
2.69570454545455e-01 3.30432923188152e+00 3.39671105864172e-02
2.72393181818182e-01 3.25284249509278e+00 3.36124671267677e-02
2.75215909090909e-01 3.20215800409094e+00 3.32597402807909e-02
2.78038636363636e-01 3.15226325844808e+00 3.29089836710471e-02
2.80861363636364e-01 3.10314595282296e+00 3.25602478144826e-02
2.83684090909091e-01 3.05479397345338e+00 3.22135803095302e-02
2.86506818181818e-01 3.00719539518790e+00 3.18690258298161e-02
2.89329545454545e-01 2.96033847897576e+00 3.15266263006551e-02
2.92152272727273e-01 2.91421166853325e+00 3.11864210497654e-02
2.94975000000000e-01 2.86880358764201e+00 3.08484468677985e-02
2.97797727272727e-01 2.82410303721592e+00 3.05127380760934e-02
3.00620454545455e-01 2.78009899292804e+00 3.01793266602598e-02
3.03443181818182e-01 2.73678060209618e+00 2.98482424011157e-02
3.06265909090909e-01 2.69413718114055e+00 2.95195129231692e-02
3.09088636363636e-01 2.65215821283333e+00 2.91931637500440e-02
3.11911363636364e-01 2.61083334405634e+00 2.88692184207539e-02
3.14734090909091e-01 2.57015238289029e+00 2.85476986194464e-02
3.17556818181818e-01 2.53010529611528e+00 2.82286241517463e-02
3.20379545454545e-01 2.49068220706313e+00 2.79120130678865e-02
3.23202272727273e-01 2.45187339284930e+00 2.75978817662498e-02
3.26025000000000e-01 2.41366928208728e+00 2.72862450257209e-02
3.28847727272727e-01 2.37606045243097e+00 2.69771160444520e-02
3.31670454545455e-01 2.33903762854705e+00 2.66705065320644e-02
3.34493181818182e-01 2.30259167952641e+00 2.63664268005074e-02
3.37315909090909e-01 2.26671361673427e+00 2.60648857895851e-02
3.40138636363636e-01 2.23139459150501e+00 2.57658910985456e-02
3.42961363636364e-01 2.19662589322848e+00 2.54694490670681e-02
3.45784090909091e-01 2.16239894692872e+00 2.51755648676842e-02
3.48606818181818e-01 2.12870531115958e+00 2.48842424756501e-02
3.51429545454545e-01 2.09553667617320e+00 2.45954847570390e-02
3.54252272727273e-01 2.06288486161615e+00 2.43092935416610e-02
3.57075000000000e-01 2.03074181459798e+00 2.40256696393013e-02
3.59897727272727e-01 1.99909960763051e+00 2.37446128614397e-02
3.62720454545455e-01 1.96795043690024e+00 2.34661220863399e-02
3.65543181818182e-01 1.93728662011258e+00 2.31901953234956e-02
3.68365909090909e-01 1.90710059467548e+00 2.29168297259156e-02
3.71188636363636e-01 1.87738491576620e+00 2.26460216075508e-02
3.74011363636364e-01 1.84813225470227e+00 2.23777665008383e-02
3.76834090909091e-01 1.81933539692370e+00 2.21120592238159e-02
3.79656818181818e-01 1.79098724022152e+00 2.18488938488050e-02
3.82479545454545e-01 1.76308079317946e+00 2.15882637665866e-02
3.85302272727273e-01 1.73560917325338e+00 2.13301617386720e-02
3.88125000000000e-01 1.70856560514014e+00 2.10745799041533e-02
3.90947727272727e-01 1.68194341904885e+00 2.08215097911577e-02
3.93770454545455e-01 1.65573604923209e+00 2.05709423635424e-02
3.96593181818182e-01 1.62993703218772e+00 2.03228680673241e-02
3.99415909090909e-01 1.60454000512539e+00 2.00772768352271e-02
4.02238636363636e-01 1.57953870434442e+00 1.98341580955328e-02
4.05061363636364e-01 1.55492696384969e+00 1.95935008135488e-02
4.07884090909091e-01 1.53069871366781e+00 1.93552935410337e-02
4.10706818181818e-01 1.50684797835596e+00 1.91195243862203e-02
4.13529545454545e-01 1.48336887567854e+00 1.88861810611860e-02
4.16352272727273e-01 1.46025561500377e+00 1.86552509197960e-02
4.19175000000000e-01 1.43750249592720e+00 1.84267209590759e-02
4.21997727272727e-01 1.41510390682072e+00 1.82005778244124e-02
4.24820454545455e-01 1.39305432358585e+00 1.79768078434304e-02
4.27643181818182e-01 1.37134830815205e+00 1.77553970598147e-02
4.30465909090909e-01 1.34998050718265e+00 1.75363312333573e-02
4.33288636363636e-01 1.32894565071333e+00 1.73195958435751e-02
4.36111363636364e-01 1.30823855097782e+00 1.71051761198907e-02
4.38934090909091e-01 1.28785410100117e+00 1.68930570784005e-02
4.41756818181818e-01 1.26778727334468e+00 1.66832234943740e-02
4.44579545454545e-01 1.24803311898355e+00 1.64756599375586e-02
4.47402272727273e-01 1.22858676596702e+00 1.62703507999652e-02
4.50225000000000e-01 1.20944341825711e+00 1.60672802940937e-02
4.53047727272727e-01 1.19059835451047e+00 1.58664324543285e-02
4.55870454545455e-01 1.17204692702151e+00 1.56677911617081e-02
4.58693181818182e-01 1.15378456046698e+00 1.54713401687525e-02
4.61515909090909e-01 1.13580675081458e+00 1.52770630969537e-02
4.64338636363636e-01 1.11810906417963e+00 1.50849434372214e-02
4.67161363636364e-01 1.10068713583011e+00 1.48949645719952e-02
4.69984090909091e-01 1.08353666901021e+00 1.47071098028010e-02
4.72806818181818e-01 1.06665343388416e+00 1.45213623256354e-02
4.75629545454545e-01 1.05003326658535e+00 1.43377052574629e-02
4.78452272727273e-01 1.03367206809570e+00 1.41561216566816e-02
4.81275000000000e-01 1.01756580326639e+00 1.39765945196221e-02
4.84097727272727e-01 1.00171049979487e+00 1.37991067796656e-02
4.86920454545455e-01 9.86102247329816e-01 1.36236413254433e-02
4.89743181818182e-01 9.70737196420869e-01 1.34501810191517e-02
4.92565909090909e-01 9.55611557598299e-01 1.32787086926779e-02
4.95388636363636e-01 9.40721600412850e-01 1.31092071461645e-02
4.98211363636364e-01 9.26063652593361e-01 1.29416591642757e-02
5.01034090909091e-01 9.11634099062312e-01 1.27760475369604e-02
5.03856818181818e-01 8.97429381046939e-01 1.26123550377569e-02
5.06679545454545e-01 8.83445995274435e-01 1.24505644437783e-02
5.09502272727273e-01 8.69680493033999e-01 1.22906585508415e-02
5.12325000000000e-01 8.56129479351258e-01 1.21326201691109e-02
5.15147727272727e-01 8.42789612128982e-01 1.19764321209031e-02
5.17970454545455e-01 8.29657601389750e-01 1.18220772540940e-02
5.20793181818182e-01 8.16730208396674e-01 1.16695384556679e-02
5.23615909090909e-01 8.04004244877596e-01 1.15187986472090e-02
5.26438636363636e-01 7.91476572218529e-01 1.13698407824055e-02
5.29261363636364e-01 7.79144100751055e-01 1.12226478590379e-02
5.32084090909091e-01 7.67003788927989e-01 1.10772029346788e-02
5.34906818181818e-01 7.55052642575345e-01 1.09334891077685e-02
5.37729545454545e-01 7.43287714211650e-01 1.07914895327404e-02
5.40552272727273e-01 7.31706102262434e-01 1.06511874312214e-02
5.43375000000000e-01 7.20304950364392e-01 1.05125660873547e-02
5.46197727272727e-01 7.09081446643485e-01 1.03756088449072e-02
5.49020454545455e-01 6.98032823074537e-01 1.02402991171508e-02
5.51843181818182e-01 6.87156354744728e-01 1.01066203968938e-02
5.54665909090909e-01 6.76449359199759e-01 9.97455625178664e-03
5.57488636363636e-01 6.65909195766207e-01 9.84409032128881e-03
5.60311363636364e-01 6.55533264949081e-01 9.71520632550152e-03
5.63134090909091e-01 6.45319007741212e-01 9.58788807706677e-03
5.65956818181818e-01 6.35263904993770e-01 9.46211946477643e-03
5.68779545454545e-01 6.25365476840890e-01 9.33788446504297e-03
5.71602272727273e-01 6.15621282041510e-01 9.21516715018936e-03
5.74425000000000e-01 6.06028917393005e-01 9.09395168377559e-03
5.77247727272727e-01 5.96586017124601e-01 8.97422231739805e-03
5.80070454545455e-01 5.87290252356168e-01 8.85596339796330e-03
5.82893181818182e-01 5.78139330481008e-01 8.73915937510698e-03
5.85715909090909e-01 5.69130994614917e-01 8.62379479658346e-03
5.88538636363636e-01 5.60263023026762e-01 8.50985430502653e-03
5.91361363636364e-01 5.51533228629448e-01 8.39732264444283e-03
5.94184090909091e-01 5.42939458401073e-01 8.28618466923935e-03
5.97006818181818e-01 5.34479592855229e-01 8.17642533010080e-03
5.99829545454545e-01 5.26151545554895e-01 8.06802968269616e-03
6.02652272727273e-01 5.17953262560737e-01 7.96098289380076e-03
6.05475000000000e-01 5.09882721937082e-01 7.85527023681879e-03
6.08297727272727e-01 5.01937933242157e-01 7.75087708851941e-03
6.11120454545455e-01 4.94116937070927e-01 7.64778893437218e-03
6.13943181818182e-01 4.86417804537652e-01 7.54599137402058e-03
6.16765909090909e-01 4.78838636811731e-01 7.44547011691033e-03
6.19588636363636e-01 4.71377564639153e-01 7.34621097904925e-03
6.22411363636364e-01 4.64032747912581e-01 7.24819988776301e-03
6.25234090909091e-01 4.56802375186011e-01 7.15142288854384e-03
6.28056818181818e-01 4.49684663229044e-01 7.05586613292616e-03
6.30879545454545e-01 4.42677856616368e-01 6.96151588509531e-03
6.33702272727273e-01 4.35780227265144e-01 6.86835852639129e-03
6.36525000000000e-01 4.28990074018829e-01 6.77638055113099e-03
6.39347727272727e-01 4.22305722218740e-01 6.68556856343298e-03
6.42170454545455e-01 4.15725523318037e-01 6.59590928110968e-03
6.44993181818182e-01 4.09247854447784e-01 6.50738953968626e-03
6.47815909090909e-01 4.02871118025946e-01 6.41999628835088e-03
6.50638636363636e-01 3.96593741355178e-01 6.33371658684057e-03
6.53461363636364e-01 3.90414176259862e-01 6.24853760890099e-03
6.56284090909091e-01 3.84330898679037e-01 6.16444664747706e-03
6.59106818181818e-01 3.78342408291338e-01 6.08143110433461e-03
6.61929545454545e-01 3.72447228168438e-01 5.99947849506976e-03
6.64752272727273e-01 3.66643904387015e-01 5.91857645240315e-03
6.67575000000000e-01 3.60931005678198e-01 5.83871272235289e-03
6.70397727272727e-01 3.55307123067448e-01 5.75987516123609e-03
6.73220454545455e-01 3.49770869548733e-01 5.68205173848611e-03
6.76043181818182e-01 3.44320879720495e-01 5.60523053958254e-03
6.78865909090909e-01 3.38955809456326e-01 5.52939976236100e-03
6.81688636363636e-01 3.33674335566877e-01 5.45454771409620e-03
6.84511363636364e-01 3.28475155493520e-01 5.38066281399618e-03
6.87334090909091e-01 3.23356986966839e-01 5.30773359712803e-03
6.90156818181818e-01 3.18318567691026e-01 5.23574870555308e-03
6.92979545454545e-01 3.13358655051423e-01 5.16469689211704e-03
6.95802272727273e-01 3.08476025788945e-01 5.09456702283775e-03
6.98625000000000e-01 3.03669475704843e-01 5.02534807344657e-03
7.01447727272727e-01 2.98937819357980e-01 4.95702912661491e-03
7.04270454545455e-01 2.94279889789889e-01 4.88959937396928e-03
7.07093181818182e-01 2.89694538219316e-01 4.82304811820744e-03
7.09915909090909e-01 2.85180633764864e-01 4.75736476977636e-03
7.12738636363636e-01 2.80737063160781e-01 4.69253884418891e-03
7.15561363636364e-01 2.76362730498491e-01 4.62855996379874e-03
7.18384090909091e-01 2.72056556940005e-01 4.56541786076113e-03
7.21206818181818e-01 2.67817480452368e-01 4.50310236947276e-03
7.24029545454545e-01 2.63644455560904e-01 4.44160342943034e-03
7.26852272727273e-01 2.59536453075999e-01 4.38091108694193e-03
7.29675000000000e-01 2.55492459844457e-01 4.32101549203132e-03
7.32497727272727e-01 2.51511478495016e-01 4.26190689591019e-03
7.35320454545455e-01 2.47592527206394e-01 4.20357565239770e-03
7.38143181818182e-01 2.43734639450934e-01 4.14601221942872e-03
7.40965909090909e-01 2.39936863761032e-01 4.08920715608922e-03
7.43788636363636e-01 2.36198263490198e-01 4.03315112018122e-03
7.46611363636364e-01 2.32517916595033e-01 3.97783486946392e-03
7.49434090909091e-01 2.28894915394679e-01 3.92324926387650e-03
7.52256818181818e-01 2.25328366347373e-01 3.86938525909980e-03
7.55079545454545e-01 2.21817389842315e-01 3.81623390870260e-03
7.57902272727273e-01 2.18361119970329e-01 3.76378636534830e-03
7.60725000000000e-01 2.14958704314488e-01 3.71203387804653e-03
7.63547727272727e-01 2.11609303736161e-01 3.66096778987404e-03
7.66370454545455e-01 2.08312092179376e-01 3.61057953895291e-03
7.69193181818182e-01 2.05066256455628e-01 3.56086065950618e-03
7.72015909090909e-01 2.01870996047189e-01 3.51180277923123e-03
7.74838636363636e-01 1.98725522906231e-01 3.46339761711198e-03
7.77661363636364e-01 1.95629061270948e-01 3.41563698426505e-03
7.80484090909091e-01 1.92580847463615e-01 3.36851278559926e-03
7.83306818181818e-01 1.89580129702575e-01 3.32201701433811e-03
7.86129545454545e-01 1.86626167926719e-01 3.27614175362257e-03
7.88952272727273e-01 1.83718233602948e-01 3.23087917734292e-03
7.91775000000000e-01 1.80855609549870e-01 3.18622154771267e-03
7.94597727272727e-01 1.78037589757919e-01 3.14216121323214e-03
7.97420454545455e-01 1.75263479224380e-01 3.09869060934104e-03
8.00243181818182e-01 1.72532593772711e-01 3.05580225913840e-03
8.03065909090909e-01 1.69844259886940e-01 3.01348877106850e-03
8.05888636363636e-01 1.67197814542760e-01 2.97174283697077e-03
8.08711363636364e-01 1.64592605052487e-01 2.93055723263558e-03
8.11534090909091e-01 1.62027988895500e-01 2.88992481903383e-03
8.14356818181818e-01 1.59503333560047e-01 2.84983853766124e-03
8.17179545454545e-01 1.57018016395249e-01 2.81029141172626e-03
8.20002272727273e-01 1.54571424449434e-01 2.77127654670486e-03
8.22825000000000e-01 1.52162954321693e-01 2.73278712820979e-03
8.25647727272727e-01 1.49792012010635e-01 2.69481642018327e-03
8.28470454545455e-01 1.47458012775293e-01 2.65735776531109e-03
8.31293181818182e-01 1.45160380983404e-01 2.62040458549502e-03
8.34115909090909e-01 1.42898549971982e-01 2.58395037982382e-03
8.36938636363636e-01 1.40671961905297e-01 2.54798872284585e-03
8.39761363636364e-01 1.38480067644159e-01 2.51251326491266e-03
8.42584090909091e-01 1.36322326603538e-01 2.47751773308183e-03
8.45406818181818e-01 1.34198206619447e-01 2.44299592716231e-03
8.48229545454545e-01 1.32107183824187e-01 2.40894172058632e-03
8.51052272727273e-01 1.30048742510572e-01 2.37534906076109e-03
8.53875000000000e-01 1.28022375006962e-01 2.34221196720524e-03
8.56697727272727e-01 1.26027581550072e-01 2.30952452995348e-03
8.59520454545455e-01 1.24063870167731e-01 2.27728090979775e-03
8.62343181818182e-01 1.22130756551461e-01 2.24547533857885e-03
8.65165909090909e-01 1.20227763939085e-01 2.21410211741396e-03
8.67988636363636e-01 1.18354422995312e-01 2.18315561517456e-03
8.70811363636364e-01 1.16510271701550e-01 2.15263026867683e-03
8.73634090909091e-01 1.14694855236324e-01 2.12252058333615e-03
8.76456818181818e-01 1.12907725863272e-01 2.09282112981024e-03
8.79279545454545e-01 1.11148442825988e-01 2.06352654463112e-03
8.82102272727273e-01 1.09416572233984e-01 2.03463153040943e-03
8.84925000000000e-01 1.07711686957479e-01 2.00613085420967e-03
8.87747727272727e-01 1.06033366520454e-01 1.97801934614854e-03
8.90570454545455e-01 1.04381197001826e-01 1.95029189951250e-03
