Energy (eV)          EEDF (eV^-(3/2))     First Anisotropy
2.45901639344262e-02 4.39798380586862e-02 2.11399509306138e-05
7.37704918032787e-02 4.37314238284799e-02 3.49268981787982e-05
1.22950819672131e-01 4.34844127332474e-02 4.61573758858985e-05
1.72131147540984e-01 4.32387968462109e-02 5.47197071365340e-05
2.21311475409836e-01 4.29945682890286e-02 6.18860490370798e-05
2.70491803278688e-01 4.27517192239731e-02 6.81365291478357e-05
3.19672131147541e-01 4.25102418592263e-02 7.37191932208841e-05
3.68852459016393e-01 4.22701284469586e-02 7.87835813889067e-05
4.18032786885246e-01 4.20313712830850e-02 8.34287092664873e-05
4.67213114754098e-01 4.17939627070294e-02 8.77244452762092e-05
5.16393442622951e-01 4.15578951014902e-02 9.17224257932375e-05
5.65573770491803e-01 4.13231608921861e-02 9.54621840380732e-05
6.14754098360656e-01 4.10897525480140e-02 9.89748430221893e-05
6.63934426229508e-01 4.08576625795820e-02 1.02285465313987e-04
7.13114754098361e-01 4.06268835402293e-02 1.05414614932195e-04
7.62295081967213e-01 4.03974080253550e-02 1.08379433532730e-04
8.11475409836066e-01 4.01692286721783e-02 1.11194404145406e-04
8.60655737704918e-01 3.99423381595077e-02 1.13871907221768e-04
9.09836065573771e-01 3.97167292075045e-02 1.16422634375632e-04
9.59016393442623e-01 3.94923945774483e-02 1.18855902100612e-04
1.00819672131148e+00 3.92693270717334e-02 1.21179893932345e-04
1.05737704918033e+00 3.90475195318383e-02 1.23401849007757e-04
1.10655737704918e+00 3.88269648438130e-02 1.25528213162323e-04
1.15573770491803e+00 3.86076559290009e-02 1.27564759181161e-04
1.20491803278689e+00 3.83895857508446e-02 1.29516683493597e-04
1.25409836065574e+00 3.81727473125318e-02 1.31388686859163e-04
1.30327868852459e+00 3.79571336584608e-02 1.33185040906623e-04
1.35245901639344e+00 3.77427378688969e-02 1.34909642630755e-04
1.40163934426229e+00 3.75295530649246e-02 1.36566060030234e-04
1.45081967213115e+00 3.73175724064658e-02 1.38157571883037e-04
1.50000000000000e+00 3.71067890920890e-02 1.39687200405834e-04
1.54918032786885e+00 3.68971963601541e-02 1.41157740299227e-04
1.59836065573770e+00 3.66887874844244e-02 1.42571782663956e-04
1.64754098360656e+00 3.64815557780648e-02 1.43931735609008e-04
1.69672131147541e+00 3.62754945920008e-02 1.45239843249306e-04
1.74590163934426e+00 3.60705973147237e-02 1.46498201230289e-04
1.79508196721311e+00 3.58668573732200e-02 1.47708771340021e-04
1.84426229508197e+00 3.56642682292679e-02 1.48873393392624e-04
1.89344262295082e+00 3.54628233827524e-02 1.49993795668555e-04
1.94262295081967e+00 3.52625163702724e-02 1.51071604978169e-04
1.99180327868852e+00 3.50633407659464e-02 1.52108355578615e-04
2.04098360655738e+00 3.48652901781489e-02 1.53105496418710e-04
2.09016393442623e+00 3.46683582523873e-02 1.54064397575351e-04
2.13934426229508e+00 3.44725386700551e-02 1.54986356955170e-04
2.18852459016393e+00 3.42778251482390e-02 1.55872605429224e-04
2.23770491803279e+00 3.40842114403876e-02 1.56724312326352e-04
2.28688524590164e+00 3.38916913334683e-02 1.57542589568259e-04
2.33606557377049e+00 3.37002586504319e-02 1.58328495381875e-04
2.38524590163934e+00 3.35099072491144e-02 1.59083038526281e-04
2.43442622950820e+00 3.33206310220498e-02 1.59807181314417e-04
2.48360655737705e+00 3.31324238970335e-02 1.60501843167786e-04
2.53278688524590e+00 3.29452798346144e-02 1.61167903092381e-04
2.58196721311475e+00 3.27591928302316e-02 1.61806201916261e-04
2.63114754098361e+00 3.25741569132393e-02 1.62417544985224e-04
2.68032786885246e+00 3.23901661474076e-02 1.63002704616191e-04
2.72950819672131e+00 3.22072146286453e-02 1.63562421783874e-04
2.77868852459016e+00 3.20252964869114e-02 1.64097407648820e-04
2.82786885245902e+00 3.18444058853178e-02 1.64608345714071e-04
2.87704918032787e+00 3.16645370199470e-02 1.65095893096317e-04
2.92622950819672e+00 3.14856841202787e-02 1.65560682402756e-04
2.97540983606557e+00 3.13078414471478e-02 1.66003322793401e-04
3.02459016393443e+00 3.11310032944306e-02 1.66424400945580e-04
3.07377049180328e+00 3.09551639882305e-02 1.66824482646198e-04
3.12295081967213e+00 3.07803178867018e-02 1.67204113598519e-04
3.17213114754098e+00 3.06064593804170e-02 1.67563820829169e-04
3.22131147540984e+00 3.04335828905214e-02 1.67904113364343e-04
3.27049180327869e+00 3.02616828702309e-02 1.68225482842602e-04
3.31967213114754e+00 3.00907538040904e-02 1.68528404740211e-04
3.36885245901639e+00 2.99207902078000e-02 1.68813338884593e-04
3.41803278688525e+00 2.97517866285341e-02 1.69080730549403e-04
3.46721311475410e+00 2.95837376432640e-02 1.69331010884283e-04
3.51639344262295e+00 2.94166378600960e-02 1.69564597300977e-04
3.56557377049180e+00 2.92504819175923e-02 1.69781894332883e-04
3.61475409836066e+00 2.90852644850571e-02 1.69983294425194e-04
3.66393442622951e+00 2.89209802609814e-02 1.70169178230771e-04
3.71311475409836e+00 2.87576239742655e-02 1.70339914873789e-04
3.76229508196721e+00 2.85951903835814e-02 1.70495862779066e-04
3.81147540983607e+00 2.84336742772074e-02 1.70637369888755e-04
3.86065573770492e+00 2.82730704732767e-02 1.70764774416474e-04
3.90983606557377e+00 2.81133738183509e-02 1.70878405024519e-04
3.95901639344262e+00 2.79545791885232e-02 1.70978580978207e-04
4.00819672131148e+00 2.77966814888274e-02 1.71065612839767e-04
4.05737704918033e+00 2.76396756530766e-02 1.71139802591563e-04
4.10655737704918e+00 2.74835566440812e-02 1.71201444271169e-04
4.15573770491803e+00 2.73283194523349e-02 1.71250824067919e-04
4.20491803278689e+00 2.71739590970130e-02 1.71288220402190e-04
4.25409836065574e+00 2.70204706254245e-02 1.71313904419938e-04
4.30327868852459e+00 2.68678491132082e-02 1.71328140447103e-04
4.35245901639344e+00 2.67160896631030e-02 1.71331186040804e-04
4.40163934426230e+00 2.65651874058691e-02 1.71323292026771e-04
4.45081967213115e+00 2.64151374997686e-02 1.71304703028154e-04
4.50000000000000e+00 2.62659351304124e-02 1.71275657487297e-04
4.54918032786885e+00 2.61175755109316e-02 1.71236388154481e-04
4.59836065573770e+00 2.59700538808377e-02 1.71187122096739e-04
4.64754098360656e+00 2.58233655068618e-02 1.71128080696309e-04
4.69672131147541e+00 2.56775056824697e-02 1.71059480116249e-04
4.74590163934426e+00 2.55324697277119e-02 1.70981531288492e-04
4.79508196721311e+00 2.53882529893745e-02 1.70894440345884e-04
4.84426229508197e+00 2.52448508399201e-02 1.70798408601400e-04
4.89344262295082e+00 2.51022586782539e-02 1.70693632518998e-04
4.94262295081967e+00 2.49604719292697e-02 1.70580304044506e-04
4.99180327868852e+00 2.48194860439860e-02 1.70458610908964e-04
5.04098360655738e+00 2.46792964985474e-02 1.70328736591327e-04
5.09016393442623e+00 2.45398987949367e-02 1.70190860274183e-04
5.13934426229508e+00 2.44012884605424e-02 1.70045157225052e-04
5.18852459016393e+00 2.42634610480165e-02 1.69891798746913e-04
5.23770491803279e+00 2.41264121353929e-02 1.69730952534007e-04
5.28688524590164e+00 2.39901373251560e-02 1.69562782618586e-04
5.33606557377049e+00 2.38546322448936e-02 1.69387449312128e-04
5.38524590163934e+00 2.37198925468898e-02 1.69205109551535e-04
5.43442622950820e+00 2.35859139079870e-02 1.69015916837277e-04
5.48360655737705e+00 2.34526920296894e-02 1.68820021557285e-04
5.53278688524590e+00 2.33202226372914e-02 1.68617570922661e-04
5.58196721311475e+00 2.31885014804783e-02 1.68408708898745e-04
5.63114754098361e+00 2.30575243329428e-02 1.68193576448872e-04
5.68032786885246e+00 2.29272869924782e-02 1.67972311757370e-04
5.72950819672131e+00 2.27977852801532e-02 1.67745050159757e-04
5.77868852459016e+00 2.26690150408720e-02 1.67511924068577e-04
5.82786885245902e+00 2.25409721430079e-02 1.67273063269598e-04
5.87704918032787e+00 2.24136524782714e-02 1.67028594846675e-04
5.92622950819672e+00 2.22870519617918e-02 1.66778643459554e-04
5.97540983606557e+00 2.21611665313418e-02 1.66523331268454e-04
6.02459016393443e+00 2.20359921478547e-02 1.66262777855183e-04
6.07377049180328e+00 2.19115247950778e-02 1.65997100497076e-04
6.12295081967213e+00 2.17877604794438e-02 1.65726414087920e-04
6.17213114754098e+00 2.16646952301421e-02 1.65450831395504e-04
6.22131147540984e+00 2.15423250983896e-02 1.65170462982635e-04
6.27049180327869e+00 2.14206461579088e-02 1.64885417125213e-04
6.31967213114754e+00 2.12996545045992e-02 1.64595800067089e-04
6.36885245901639e+00 2.11793462564121e-02 1.64301715938636e-04
6.41803278688525e+00 2.10597175534129e-02 1.64003266996373e-04
6.46721311475410e+00 2.09407645570939e-02 1.63700553542182e-04
6.51639344262295e+00 2.08224834508171e-02 1.63393673839659e-04
6.56557377049180e+00 2.07048704395025e-02 1.63082724291188e-04
6.61475409836066e+00 2.05879217496825e-02 1.62767799599577e-04
6.66393442622951e+00 2.04716336288487e-02 1.62448992686856e-04
6.71311475409836e+00 2.03560023458666e-02 1.62126394610577e-04
6.76229508196721e+00 2.02410241906759e-02 1.61800094789136e-04
6.81147540983607e+00 2.01266954741726e-02 1.61470180919064e-04
6.86065573770492e+00 2.00130125282558e-02 1.61136739187518e-04
6.90983606557377e+00 1.98999717052103e-02 1.60799854190725e-04
6.95901639344262e+00 1.97875693780917e-02 1.60459608850332e-04
7.00819672131148e+00 1.96758019404419e-02 1.60116084625121e-04
7.05737704918033e+00 1.95646658061736e-02 1.59769361428626e-04
7.10655737704918e+00 1.94541574096102e-02 1.59419517828816e-04
7.15573770491803e+00 1.93442732049033e-02 1.59066630967059e-04
7.20491803278689e+00 1.92350096663892e-02 1.58710776475030e-04
7.25409836065574e+00 1.91263632883187e-02 1.58352028620631e-04
7.30327868852459e+00 1.90183305848921e-02 1.57990460441063e-04
7.35245901639344e+00 1.89109080897018e-02 1.57626143662805e-04
7.40163934426229e+00 1.88040923560690e-02 1.57259148619739e-04
7.45081967213115e+00 1.86978799567828e-02 1.56889544443199e-04
7.50000000000000e+00 1.85922674839907e-02 1.56517398981478e-04
7.54918032786885e+00 1.84872515492276e-02 1.56142778979380e-04
7.59836065573770e+00 1.83828287828888e-02 1.55765749999331e-04
7.64754098360656e+00 1.82789958345424e-02 1.55386376340843e-04
7.69672131147541e+00 1.81757493726810e-02 1.55004721220255e-04
7.74590163934426e+00 1.80730860846148e-02 1.54620846691744e-04
7.79508196721311e+00 1.79710026764962e-02 1.54234813817188e-04
7.84426229508197e+00 1.78694958728194e-02 1.53846682588771e-04
7.89344262295082e+00 1.77685624167119e-02 1.53456511850034e-04
7.94262295081967e+00 1.76681990696972e-02 1.53064359418873e-04
7.99180327868852e+00 1.75684026117156e-02 1.52670282199731e-04
8.04098360655738e+00 1.74691698406451e-02 1.52274336107834e-04
8.09016393442623e+00 1.73704975725762e-02 1.51876575991889e-04
8.13934426229508e+00 1.72723826415832e-02 1.51477055797116e-04
8.18852459016393e+00 1.71748218996227e-02 1.51075828489450e-04
8.23770491803279e+00 1.70778122165502e-02 1.50672946209771e-04
8.28688524590164e+00 1.69813504796653e-02 1.50268460199837e-04
8.33606557377049e+00 1.68854335939678e-02 1.49862420726884e-04
8.38524590163934e+00 1.67900584819390e-02 1.49454877238508e-04
8.43442622950820e+00 1.66952220834435e-02 1.49045878288865e-04
8.48360655737705e+00 1.66009213557415e-02 1.48635471685219e-04
8.53278688524590e+00 1.65071532730567e-02 1.48223704415734e-04
8.58196721311475e+00 1.64139148268154e-02 1.47810622576107e-04
8.63114754098361e+00 1.63212030254374e-02 1.47396271474998e-04
8.68032786885246e+00 1.62290148943462e-02 1.46980695730064e-04
8.72950819672131e+00 1.61373474755538e-02 1.46563939197651e-04
8.77868852459016e+00 1.60461978278870e-02 1.46146044901195e-04
8.82786885245902e+00 1.59555630267852e-02 1.45727055172650e-04
8.87704918032787e+00 1.58654401642070e-02 1.45307011582402e-04
8.92622950819672e+00 1.57758263486367e-02 1.44885955073183e-04
8.97540983606557e+00 1.56867187046898e-02 1.44463925891667e-04
9.02459016393443e+00 1.55981143733241e-02 1.44040963518976e-04
9.07377049180328e+00 1.55100105116462e-02 1.43617106805413e-04
9.12295081967213e+00 1.54224042928204e-02 1.43192393902469e-04
9.17213114754098e+00 1.53352929060729e-02 1.42766862390557e-04
9.22131147540984e+00 1.52486735563158e-02 1.42340549212569e-04
9.27049180327869e+00 1.51625434643443e-02 1.41913490606414e-04
9.31967213114754e+00 1.50768998666516e-02 1.41485722233611e-04
9.36885245901639e+00 1.49917400153403e-02 1.41057279113393e-04
9.41803278688525e+00 1.49070611781239e-02 1.40628195744562e-04
9.46721311475410e+00 1.48228606379684e-02 1.40198506041058e-04
9.51639344262295e+00 1.47391356932773e-02 1.39768243266520e-04
9.56557377049180e+00 1.46558836577136e-02 1.39337440121414e-04
9.61475409836066e+00 1.45731018601996e-02 1.38906128822379e-04
9.66393442622951e+00 1.44907876445723e-02 1.38474341039592e-04
9.71311475409836e+00 1.44089383697585e-02 1.38042107833175e-04
9.76229508196721e+00 1.43275514096024e-02 1.37609459771395e-04
9.81147540983607e+00 1.42466241527819e-02 1.37176426868475e-04
9.86065573770492e+00 1.41661540028060e-02 1.36743038696742e-04
9.90983606557377e+00 1.40861383776861e-02 1.36309324325880e-04
9.95901639344262e+00 1.40065747100997e-02 1.35875312261338e-04
1.00081967213115e+01 1.39274604472255e-02 1.35441030590739e-04
1.00573770491803e+01 1.38487930505831e-02 1.35006506757344e-04
1.01065573770492e+01 1.37705699964195e-02 1.34571767835382e-04
1.01557377049180e+01 1.36927887749201e-02 1.34136840927361e-04
1.02049180327869e+01 1.36154468896937e-02 1.33701751891170e-04
1.02540983606557e+01 1.35385418599674e-02 1.33266526139040e-04
1.03032786885246e+01 1.34620712182158e-02 1.32831189618097e-04
1.03524590163934e+01 1.33860325101201e-02 1.32395766870857e-04
1.04016393442623e+01 1.33104232966976e-02 1.31960282015122e-04
1.04508196721311e+01 1.32352411520004e-02 1.31524759393927e-04
1.05000000000000e+01 1.31604836637830e-02 1.31089222917464e-04
1.05491803278689e+01 1.30861484327243e-02 1.30653695471989e-04
1.05983606557377e+01 1.30122330744676e-02 1.30218199545667e-04
1.06475409836066e+01 1.29387352174124e-02 1.29782757856474e-04
1.06967213114754e+01 1.28656525033548e-02 1.29347392715835e-04
1.07459016393443e+01 1.27929825867386e-02 1.28912125456768e-04
1.07950819672131e+01 1.27207231366097e-02 1.28476977038518e-04
1.08442622950820e+01 1.26488718344979e-02 1.28041968943529e-04
1.08934426229508e+01 1.25774263743772e-02 1.27607121401825e-04
1.09426229508197e+01 1.25063844645605e-02 1.27172454287143e-04
1.09918032786885e+01 1.24357438256437e-02 1.26737987710818e-04
1.10409836065574e+01 1.23655021910977e-02 1.26303741419288e-04
1.10901639344262e+01 1.22956573065693e-02 1.25869734252101e-04
1.11393442622951e+01 1.22262069317000e-02 1.25435984714133e-04
1.11885245901639e+01 1.21571488381501e-02 1.25002511824081e-04
1.12377049180328e+01 1.20884808095589e-02 1.24569333433393e-04
1.12868852459016e+01 1.20202006433092e-02 1.24136467074014e-04
1.13360655737705e+01 1.19523061486087e-02 1.23703930520506e-04
1.13852459016393e+01 1.18847951470392e-02 1.23271741219374e-04
1.14344262295082e+01 1.18176654719036e-02 1.22839915775272e-04
1.14836065573770e+01 1.17509149699184e-02 1.22408470492557e-04
1.15327868852459e+01 1.16845414993708e-02 1.21977421919006e-04
1.15819672131148e+01 1.16185429306459e-02 1.21546786293478e-04
1.16311475409836e+01 1.15529171455965e-02 1.21116579048539e-04
1.16803278688525e+01 1.14876620391685e-02 1.20686815334077e-04
1.17295081967213e+01 1.14227755176294e-02 1.20257510795296e-04
1.17786885245902e+01 1.13582554985284e-02 1.19828680030720e-04
1.18278688524590e+01 1.12940999122743e-02 1.19400337369074e-04
1.18770491803279e+01 1.12303067004132e-02 1.18972497384221e-04
1.19262295081967e+01 1.11668738161188e-02 1.18545174371674e-04
1.19754098360656e+01 1.11037992236021e-02 1.18118381876745e-04
1.20245901639344e+01 1.10410808996270e-02 1.17692133190807e-04
1.20737704918033e+01 1.09787168318548e-02 1.17266442088044e-04
1.21229508196721e+01 1.09167050188044e-02 1.16841321363985e-04
1.21721311475410e+01 1.08550434713248e-02 1.16416783571474e-04
1.22213114754098e+01 1.07937302109845e-02 1.15992841508587e-04
1.22704918032787e+01 1.07327632705271e-02 1.15569507722301e-04
1.23196721311475e+01 1.06721406933188e-02 1.15146794060766e-04
1.23688524590164e+01 1.06118605347625e-02 1.14724712143593e-04
1.24180327868852e+01 1.05519208607488e-02 1.14303274060206e-04
1.24672131147541e+01 1.04923197476177e-02 1.13882490984139e-04
1.25163934426230e+01 1.04330552835321e-02 1.13462373870207e-04
1.25655737704918e+01 1.03741255669724e-02 1.13042933917311e-04
1.26147540983607e+01 1.03155287071588e-02 1.12624182097612e-04
1.26639344262295e+01 1.02572628235342e-02 1.12206128731572e-04
1.27131147540984e+01 1.01993260470844e-02 1.11788783933805e-04
1.27622950819672e+01 1.01417165188888e-02 1.11372158060998e-04
1.28114754098361e+01 1.00844323905268e-02 1.10956261255862e-04
1.28606557377049e+01 1.00274718235780e-02 1.10541103035359e-04
1.29098360655738e+01 9.97083299089214e-03 1.10126692722408e-04
1.29590163934426e+01 9.91451407519342e-03 1.09713040087593e-04
1.30081967213115e+01 9.85851326904262e-03 1.09300154075194e-04
1.30573770491803e+01 9.80282877607162e-03 1.08888043443953e-04
1.31065573770492e+01 9.74745880962522e-03 1.08476717191934e-04
1.31557377049180e+01 9.69240159313987e-03 1.08066184123742e-04
1.32049180327869e+01 9.63765535967459e-03 1.07656452459488e-04
1.32540983606557e+01 9.58321835309828e-03 1.07247530244376e-04
1.33032786885246e+01 9.52908882678156e-03 1.06839425957472e-04
1.33524590163934e+01 9.47526504355969e-03 1.06432147302718e-04
1.34016393442623e+01 9.42174527688745e-03 1.06025701816611e-04
1.34508196721311e+01 9.36852780956578e-03 1.05620097271503e-04
1.35000000000000e+01 9.31561093409479e-03 1.05215341264729e-04
1.35491803278689e+01 9.26299295223313e-03 1.04811440847201e-04
1.35983606557377e+01 9.21067217610891e-03 1.04408402912069e-04
1.36475409836066e+01 9.15864692699292e-03 1.04006234585396e-04
1.36967213114754e+01 9.10691553563827e-03 1.03604942827961e-04
1.37459016393443e+01 9.05547634185461e-03 1.03204534075162e-04
1.37950819672131e+01 9.00432769557727e-03 1.02805014613540e-04
1.38442622950820e+01 8.95346795568518e-03 1.02406391141115e-04
1.38934426229508e+01 8.90289548996505e-03 1.02008669654320e-04
1.39426229508197e+01 8.85260867615155e-03 1.01611856007266e-04
1.39918032786885e+01 8.80260590077596e-03 1.01215956282635e-04
1.40409836065574e+01 8.75288555948313e-03 1.00820976413470e-04
1.40901639344262e+01 8.70344605663107e-03 1.00426921840995e-04
1.41393442622951e+01 8.65428580629245e-03 1.00033797872212e-04
1.41885245901639e+01 8.60540323114456e-03 9.96416102118438e-05
1.42377049180328e+01 8.55679676243456e-03 9.92503639052076e-05
1.42868852459016e+01 8.50846484095398e-03 9.88600638691546e-05
1.43360655737705e+01 8.46040591595765e-03 9.84707152443597e-05
1.43852459016393e+01 8.41261844545945e-03 9.80823230360319e-05
1.44344262295082e+01 8.36510089585574e-03 9.76948917886310e-05
1.44836065573770e+01 8.31785174286383e-03 9.73084259255273e-05
1.45327868852459e+01 8.27086947047940e-03 9.69229300905544e-05
1.45819672131148e+01 8.22415257126132e-03 9.65384087995503e-05
1.46311475409836e+01 8.17769954596742e-03 9.61548661248713e-05
1.46803278688525e+01 8.13150890445856e-03 9.57723060245833e-05
1.47295081967213e+01 8.08557916469309e-03 9.53907328327775e-05
1.47786885245902e+01 8.03990885269331e-03 9.50101502850903e-05
1.48278688524590e+01 7.99449650342544e-03 9.46305620079410e-05
1.48770491803279e+01 7.94934065981972e-03 9.42519718430165e-05
1.49262295081967e+01 7.90443987303658e-03 9.38743835161009e-05
1.49754098360656e+01 7.85979270212363e-03 9.34978003370766e-05
1.50245901639344e+01 7.81539771486373e-03 9.31222255128470e-05
1.50737704918033e+01 7.77125348682939e-03 9.27476626131075e-05
1.51229508196721e+01 7.72735860135028e-03 9.23741146441736e-05
1.51721311475410e+01 7.68371165033884e-03 9.20015845138562e-05
1.52213114754098e+01 7.64031123336882e-03 9.16300753398731e-05
1.52704918032787e+01 7.59715595792405e-03 9.12595901350160e-05
1.53196721311475e+01 7.55424443907535e-03 9.08901315218208e-05
1.53688524590164e+01 7.51157530027638e-03 9.05217020299807e-05
1.54180327868852e+01 7.46914717247419e-03 9.01543045390795e-05
1.54672131147541e+01 7.42695869407741e-03 8.97879413981497e-05
1.55163934426230e+01 7.38500851173146e-03 8.94226148673376e-05
