Energy (eV)          EEDF (eV^-(3/2))     First Anisotropy
1.00000000000000e-01 4.65321781620443e-01 9.50793496569161e-04
3.00000000000000e-01 4.14627321301687e-01 1.48951432214165e-03
5.00000000000000e-01 3.69455766654908e-01 1.76396643770749e-03
7.00000000000000e-01 3.29205424973065e-01 1.87394790641106e-03
9.00000000000000e-01 2.93340154933689e-01 1.89920151968890e-03
1.10000000000000e+00 2.61382225106288e-01 1.87379830118014e-03
1.30000000000000e+00 2.32905950489316e-01 1.81671980004450e-03
1.50000000000000e+00 2.07532022314347e-01 1.73983329286780e-03
1.70000000000000e+00 1.84922455589464e-01 1.65101866997710e-03
1.90000000000000e+00 1.64776087082313e-01 1.55568488578160e-03
2.10000000000000e+00 1.46824563775179e-01 1.45760911597999e-03
2.30000000000000e+00 1.30828768357648e-01 1.35944440629629e-03
2.50000000000000e+00 1.16575634143806e-01 1.26304681974688e-03
2.70000000000000e+00 1.03875306988136e-01 1.16969624364022e-03
2.90000000000000e+00 9.25586163963653e-02 1.08025065593425e-03
3.10000000000000e+00 8.24748221460174e-02 9.95256747806551e-04
3.30000000000000e+00 7.34896064012936e-02 9.15030832144710e-04
3.50000000000000e+00 6.54832845769022e-02 8.39718908614211e-04
3.70000000000000e+00 5.83492111192485e-02 7.69341752031727e-04
3.90000000000000e+00 5.19923589697201e-02 7.03829028482474e-04
4.10000000000000e+00 4.63280537882796e-02 6.43045245809593e-04
4.30000000000000e+00 4.12808460770113e-02 5.86809549911007e-04
4.50000000000000e+00 3.67835061801153e-02 5.34910835732361e-04
4.70000000000000e+00 3.27761287735830e-02 4.87119262782807e-04
4.90000000000000e+00 2.92053349162032e-02 4.43194994638393e-04
5.10000000000000e+00 2.60235610330852e-02 4.02894785569621e-04
5.30000000000000e+00 2.31884253608399e-02 3.65976892615467e-04
5.50000000000000e+00 2.06621634153616e-02 3.32204683145896e-04
5.70000000000000e+00 1.84111249625466e-02 3.01349226028739e-04
5.90000000000000e+00 1.64053257915139e-02 2.73191091891912e-04
6.10000000000000e+00 1.46180483198721e-02 2.47521539674920e-04
6.30000000000000e+00 1.30254857110276e-02 2.24143229131285e-04
6.50000000000000e+00 1.16064247631156e-02 2.02870569585955e-04
6.70000000000000e+00 1.03419633455830e-02 1.83529792160956e-04
6.90000000000000e+00 9.21525861962955e-03 1.65958814436747e-04
7.10000000000000e+00 8.21130268876130e-03 1.50006952044295e-04
7.30000000000000e+00 7.31672269108483e-03 1.35534520168607e-04
7.50000000000000e+00 6.51960267053697e-03 1.22412358762338e-04
7.70000000000000e+00 5.80932485434550e-03 1.10521307933885e-04
7.90000000000000e+00 5.17642822250958e-03 9.97516541105730e-05
8.10000000000000e+00 4.61248248542171e-03 9.00025628879203e-05
8.30000000000000e+00 4.10997579099199e-03 8.11815107270220e-05
8.50000000000000e+00 3.66221466551451e-03 7.32037246684560e-05
8.70000000000000e+00 3.26323485547161e-03 6.59916368451819e-05
8.90000000000000e+00 2.90772188267363e-03 5.94743586806622e-05
9.10000000000000e+00 2.59094025451538e-03 5.35871781570797e-05
9.30000000000000e+00 2.30867038641801e-03 4.82710823557922e-05
9.50000000000000e+00 2.05715239625254e-03 4.34723065464760e-05
9.70000000000000e+00 1.83303602207740e-03 3.91419103829627e-05
9.90000000000000e+00 1.63333599608576e-03 3.52353812122096e-05
1.01000000000000e+01 1.45539228033610e-03 3.17122640854381e-05
1.03000000000000e+01 1.29683463459940e-03 2.85358177506196e-05
1.05000000000000e+01 1.15555104436048e-03 2.56726956816026e-05
1.07000000000000e+01 1.02965958842939e-03 2.30926510436868e-05
1.09000000000000e+01 9.17483371434560e-04 2.07682643941085e-05
1.11000000000000e+01 8.17528187294351e-04 1.86746928571211e-05
1.13000000000000e+01 7.28462616140676e-04 1.67894394877462e-05
1.15000000000000e+01 6.49100289582376e-04 1.50921415382324e-05
1.17000000000000e+01 5.78384088078665e-04 1.35643763606540e-05
1.19000000000000e+01 5.15372059929016e-04 1.21894837129491e-05
1.21000000000000e+01 4.59224874318036e-04 1.09524032800840e-05
1.23000000000000e+01 4.09194641287815e-04 9.83952627375039e-06
1.25000000000000e+01 3.64614949717865e-04 8.83856003053443e-06
1.27000000000000e+01 3.24891990616887e-04 7.93840458786388e-06
1.29000000000000e+01 2.89496647487111e-04 7.12904027766293e-06
1.31000000000000e+01 2.57957448403533e-04 6.40142543834055e-06
1.33000000000000e+01 2.29854285928558e-04 5.74740340557193e-06
1.35000000000000e+01 2.04812821210258e-04 5.15961800062318e-06
1.37000000000000e+01 1.82499497725891e-04 4.63143679121096e-06
1.39000000000000e+01 1.62617098252902e-04 4.15688145372846e-06
1.41000000000000e+01 1.44900785885518e-04 3.73056461687284e-06
1.43000000000000e+01 1.29114576362612e-04 3.34763261513581e-06
1.45000000000000e+01 1.15048194717645e-04 3.00371362620233e-06
1.47000000000000e+01 1.02514274380735e-04 2.69487070903480e-06
1.49000000000000e+01 9.13458614244273e-05 2.41755929933477e-06
1.51000000000000e+01 8.13941907092967e-05 2.16858875624229e-06
1.53000000000000e+01 7.25267043072597e-05 1.94508758864494e-06
1.55000000000000e+01 6.46252858076748e-05 1.74447202143686e-06
1.57000000000000e+01 5.75846869868814e-05 1.56441759161306e-06
1.59000000000000e+01 5.13111258841551e-05 1.40283349133561e-06
1.61000000000000e+01 4.57210376102141e-05 1.25783940019889e-06
1.63000000000000e+01 4.07399612488358e-05 1.12774457198379e-06
1.65000000000000e+01 3.63015480249262e-05 1.01102896235802e-06
1.67000000000000e+01 3.23466775276739e-05 9.06326203380788e-07
1.69000000000000e+01 2.88226702167324e-05 8.12408248429692e-07
1.71000000000000e+01 2.56825857218807e-05 7.28171527406206e-07
1.73000000000000e+01 2.28845975893945e-05 6.52624466907497e-07
1.75000000000000e+01 2.03914361466472e-05 5.84876243585595e-07
1.77000000000000e+01 1.81698920637997e-05 5.24126651251821e-07
1.79000000000000e+01 1.61903739999409e-05 4.69656973521411e-07
1.81000000000000e+01 1.44265144414482e-05 4.20821764020105e-07
1.83000000000000e+01 1.28548184822706e-05 3.77041445475061e-07
1.85000000000000e+01 1.14543508678274e-05 3.37795647464690e-07
1.87000000000000e+01 1.02064571338951e-05 3.02617210278403e-07
1.89000000000000e+01 9.09451512600619e-06 2.71086789304528e-07
1.91000000000000e+01 8.10371358955491e-06 2.42828000684748e-07
1.93000000000000e+01 7.22085488139440e-06 2.17503054703326e-07
1.95000000000000e+01 6.43417917500970e-06 1.94808828571461e-07
1.97000000000000e+01 5.73320781765027e-06 1.74473334969618e-07
1.99000000000000e+01 5.10860375291252e-06 1.56252546967750e-07
2.01000000000000e+01 4.55204714957777e-06 1.39927543795523e-07
2.03000000000000e+01 4.05612458006076e-06 1.25301945418940e-07
2.05000000000000e+01 3.61423027230706e-06 1.12199607030169e-07
2.07000000000000e+01 3.22047811979806e-06 1.00462547404653e-07
2.09000000000000e+01 2.86962327762189e-06 8.99490876521279e-08
2.11000000000000e+01 2.55699230025689e-06 8.05321792116293e-08
2.13000000000000e+01 2.27842089049101e-06 7.20979020383311e-08
2.15000000000000e+01 2.03019843028245e-06 6.45441158235786e-08
2.17000000000000e+01 1.80901855470307e-06 5.77792487979998e-08
2.19000000000000e+01 1.61193511060133e-06 5.17212102088360e-08
2.21000000000000e+01 1.43632291334668e-06 4.62964139525611e-08
2.23000000000000e+01 1.27984277892867e-06 4.14389020970235e-08
2.25000000000000e+01 1.14041036563238e-06 3.70895581568993e-08
2.27000000000000e+01 1.01616841025617e-06 3.31954010041452e-08
2.29000000000000e+01 9.05461989053350e-07 2.97089512122087e-08
2.31000000000000e+01 8.06816473869489e-07 2.65876624587941e-08
2.33000000000000e+01 7.18917889847325e-07 2.37934113558726e-08
2.35000000000000e+01 6.40595413060610e-07 2.12920397453903e-08
2.37000000000000e+01 5.70805774942451e-07 1.90529441020494e-08
2.39000000000000e+01 5.08619365772487e-07 1.70487072271629e-08
2.41000000000000e+01 4.53207852119030e-07 1.52547679058660e-08
2.43000000000000e+01 4.03833143298406e-07 1.36491246392700e-08
2.45000000000000e+01 3.59837559882875e-07 1.22120699583041e-08
2.47000000000000e+01 3.20635073300019e-07 1.09259521813920e-08
2.49000000000000e+01 2.85703499833569e-07 9.77496179770117e-09
2.51000000000000e+01 2.54577545048454e-07 8.74493994504026e-09
2.53000000000000e+01 2.26842605990657e-07 7.82320670978941e-09
2.55000000000000e+01 2.02129248606110e-07 6.99840720842134e-09
2.57000000000000e+01 1.80108286816955e-07 6.26037361882618e-09
2.59000000000000e+01 1.60486397707600e-07 5.60000151714552e-09
2.61000000000000e+01 1.43002214414141e-07 5.00913904427570e-09
2.63000000000000e+01 1.27422844673768e-07 4.48048757753036e-09
2.65000000000000e+01 1.13540768660640e-07 4.00751271888140e-09
2.67000000000000e+01 1.01171074786897e-07 3.58436453327853e-09
2.69000000000000e+01 9.01489966492027e-08 3.20580608017828e-09
2.71000000000000e+01 8.03277183125317e-08 2.86714937985260e-09
2.73000000000000e+01 7.15764186972180e-08 2.56419804442660e-09
2.75000000000000e+01 6.37785290201653e-08 2.29319588293542e-09
2.77000000000000e+01 5.68301800790455e-08 2.05078086090748e-09
2.79000000000000e+01 5.06388186970509e-08 1.83394385890111e-09
2.81000000000000e+01 4.51219748990078e-08 1.63999173178624e-09
2.83000000000000e+01 4.02061633974345e-08 1.46651422203824e-09
2.85000000000000e+01 3.58259047561491e-08 1.31135432649975e-09
2.87000000000000e+01 3.19228531931640e-08 1.17258175750477e-09
2.89000000000000e+01 2.84450194050547e-08 1.04846917643521e-09
2.91000000000000e+01 2.53460780606918e-08 9.37470911127277e-10
2.93000000000000e+01 2.25847507400372e-08 8.38203898455976e-10
2.95000000000000e+01 2.01242560986450e-08 7.49430620252675e-10
2.97000000000000e+01 1.79318199339660e-08 6.70043824768660e-10
2.99000000000000e+01 1.59782386274557e-08 5.99052847471347e-10
3.01000000000000e+01 1.42374901474627e-08 5.35571364304219e-10
3.03000000000000e+01 1.26863874313896e-08 4.78806427885659e-10
3.05000000000000e+01 1.13042695301182e-08 4.28048652671327e-10
3.07000000000000e+01 1.00727264006915e-08 3.82663429044397e-10
3.09000000000000e+01 8.97535368144444e-09 3.42083058793433e-10
3.11000000000000e+01 7.99753418314712e-09 3.05799715637937e-10
3.13000000000000e+01 7.12624318558477e-09 2.73359144500159e-10
3.15000000000000e+01 6.34987494609364e-09 2.44355022218543e-10
3.17000000000000e+01 5.65808810911623e-09 2.18423910460763e-10
3.19000000000000e+01 5.04166795760553e-09 1.95240738819239e-10
3.21000000000000e+01 4.49240367144381e-09 1.74514762545993e-10
3.23000000000000e+01 4.00297895793733e-09 1.55985945184294e-10
3.25000000000000e+01 3.56687459756686e-09 1.39421721551634e-10
3.27000000000000e+01 3.17828160688697e-09 1.24614101184560e-10
3.29000000000000e+01 2.83202386188926e-09 1.11377076526949e-10
3.31000000000000e+01 2.52348915115985e-09 9.95443038797104e-11
3.33000000000000e+01 2.24856774044740e-09 8.89670284767633e-11
3.35000000000000e+01 2.00359763031153e-09 7.95122280499056e-11
3.37000000000000e+01 1.78531577767421e-09 7.10609519301473e-11
3.39000000000000e+01 1.59081463153701e-09 6.35068351377392e-11
3.41000000000000e+01 1.41750340391269e-09 5.67547690666392e-11
3.43000000000000e+01 1.26307356009337e-09 5.07197122976600e-11
3.45000000000000e+01 1.12546806857982e-09 4.53256268014645e-11
3.47000000000000e+01 1.00285400107588e-09 4.05045263389078e-11
3.49000000000000e+01 8.93598117575175e-10 3.61956252507939e-11
3.51000000000000e+01 7.96245111329502e-10 3.23445770687844e-11
3.53000000000000e+01 7.09498223918085e-10 2.89027934890826e-11
3.55000000000000e+01 6.32201972207281e-10 2.58268352441537e-11
3.57000000000000e+01 5.63326757120847e-10 2.30778672972863e-11
3.59000000000000e+01 5.01955149207039e-10 2.06211715810995e-11
3.61000000000000e+01 4.47269668323973e-10 1.84257112139178e-11
3.63000000000000e+01 3.98541894666616e-10 1.64637407659893e-11
3.65000000000000e+01 3.55122766092436e-10 1.47104577186293e-11
3.67000000000000e+01 3.16433932504479e-10 1.31436907705387e-11
3.69000000000000e+01 2.81960052130777e-10 1.17436211030507e-11
3.71000000000000e+01 2.51241927085254e-10 1.04925331255061e-11
3.73000000000000e+01 2.23870386774631e-10 9.37459158839597e-12
3.75000000000000e+01 1.99480837677289e-10 8.37564227983861e-12
3.77000000000000e+01 1.77748406896228e-10 7.48303381440784e-12
3.79000000000000e+01 1.58383614797423e-10 6.68545828592954e-12
3.81000000000000e+01 1.41128519092402e-10 5.97280879083496e-12
3.83000000000000e+01 1.25753279003572e-10 5.33605203891194e-12
3.85000000000000e+01 1.12053093746390e-10 4.76711445641599e-12
3.87000000000000e+01 9.98454745484662e-11 4.25878035482180e-12
3.89000000000000e+01 8.89678138684107e-11 3.80460088908733e-12
3.91000000000000e+01 7.92752194360297e-11 3.39881266403189e-12
3.93000000000000e+01 7.06385842629104e-11 3.03626496796328e-12
3.95000000000000e+01 6.29428669156163e-11 2.71235472051939e-12
3.97000000000000e+01 5.60855591444402e-11 2.42296831815207e-12
3.99000000000000e+01 4.99753204562735e-11 2.16442964697192e-12
4.01000000000000e+01 4.45307614438718e-11 1.93345360986208e-12
4.03000000000000e+01 3.96793596652583e-11 1.72710458381464e-12
4.05000000000000e+01 3.53564936325965e-11 1.54275928520286e-12
4.07000000000000e+01 3.15045820431009e-11 1.37807357594297e-12
4.09000000000000e+01 2.80723167863969e-11 1.23095279290773e-12
4.11000000000000e+01 2.50139795118595e-11 1.09952522714448e-12
4.13000000000000e+01 2.22888326524914e-11 9.82118418973553e-13
4.15000000000000e+01 1.98605767936777e-11 8.77237970389825e-13
4.17000000000000e+01 1.76968671588766e-11 7.83548607802451e-13
4.19000000000000e+01 1.57688827717541e-11 6.99857256418014e-13
4.21000000000000e+01 1.40509425559314e-11 6.25097912854216e-13
4.23000000000000e+01 1.25201632587266e-11 5.58318125179420e-13
4.25000000000000e+01 1.11561546423800e-11 4.98666909790387e-13
4.27000000000000e+01 9.94074788265623e-12 4.45383952618829e-13
4.29000000000000e+01 8.85775355704936e-12 3.97789958322779e-13
4.31000000000000e+01 7.89274599895150e-12 3.55278025573288e-13
4.33000000000000e+01 7.03287114534674e-12 3.17305939471365e-13
4.35000000000000e+01 6.26667531852937e-12 2.83389283686190e-13
4.37000000000000e+01 5.58395266118998e-12 2.53095285237864e-13
4.39000000000000e+01 4.97560919267921e-12 2.26037314085937e-13
4.41000000000000e+01 4.43354167565562e-12 2.01869967944192e-13
4.43000000000000e+01 3.95052967960109e-12 1.80284680126354e-13
4.45000000000000e+01 3.52013940347165e-12 1.61005794828955e-13
4.47000000000000e+01 3.13663797638523e-12 1.43787060159465e-13
4.49000000000000e+01 2.79491709481706e-12 1.28408494493938e-13
4.51000000000000e+01 2.49042497913735e-12 1.14673586465135e-13
4.53000000000000e+01 2.21910574314092e-12 1.02406793098564e-13
4.55000000000000e+01 1.97734536896060e-12 9.14513043831054e-14
4.57000000000000e+01 1.76192356774123e-12 8.16670459322516e-14
4.59000000000000e+01 1.56997088485044e-12 7.29288944038089e-14
4.61000000000000e+01 1.39893047826016e-12 6.51250830381295e-14
4.63000000000000e+01 1.24652406098067e-12 5.81557770813716e-14
4.65000000000000e+01 1.11072155389468e-12 5.19318010112625e-14
4.67000000000000e+01 9.89714044761895e-13 4.63735014054260e-14
4.69000000000000e+01 8.81889693203734e-13 4.14097310107519e-14
4.71000000000000e+01 7.85812260718278e-13 3.69769411081858e-14
4.73000000000000e+01 7.00201979741832e-13 3.30183706400659e-14
4.75000000000000e+01 6.23918506929675e-13 2.94833217940317e-14
4.77000000000000e+01 5.55945733590874e-13 2.63265128340544e-14
4.79000000000000e+01 4.95378250949579e-13 2.35074999491364e-14
4.81000000000000e+01 4.41409289947813e-13 2.09901607660508e-14
4.83000000000000e+01 3.93319974945901e-13 1.87422329552147e-14
4.85000000000000e+01 3.50469748178010e-13 1.67349020582858e-14
4.87000000000000e+01 3.12287837414950e-13 1.49424332911890e-14
4.89000000000000e+01 2.78265653182061e-13 1.33418426349109e-14
4.91000000000000e+01 2.47950014261849e-13 1.19126030256115e-14
4.93000000000000e+01 2.20937111243935e-13 1.06363819017051e-14
4.95000000000000e+01 1.96867127715772e-13 9.49680676420362e-15
4.97000000000000e+01 1.75419447447500e-13 8.47925576283228e-15
4.99000000000000e+01 1.56308383729830e-13 7.57067063873838e-15
5.01000000000000e+01 1.39279373979011e-13 6.75938963903974e-15
5.03000000000000e+01 1.24105588920392e-13 6.03499827260910e-15
5.05000000000000e+01 1.10584911184325e-13 5.38819600358097e-15
5.07000000000000e+01 9.85372430687985e-14 4.81067718197684e-15
5.09000000000000e+01 8.78021076077491e-14 4.29502469214555e-15
5.11000000000000e+01 7.82365109908768e-14 3.83461496170586e-15
5.13000000000000e+01 6.97130378620363e-14 3.42353311841393e-15
5.15000000000000e+01 6.21181541252576e-14 3.05649721169394e-15
5.17000000000000e+01 5.53506946514890e-14 2.72879053110808e-15
5.19000000000000e+01 4.93205157420582e-14 2.43620115726807e-15
5.21000000000000e+01 4.39472943994422e-14 2.17496797291512e-15
5.23000000000000e+01 3.91594584114267e-14 1.94173244429069e-15
5.25000000000000e+01 3.48932329971994e-14 1.73349555653226e-15
5.27000000000000e+01 3.10917913165411e-14 1.54757935259272e-15
5.29000000000000e+01 2.77044975267533e-14 1.38159258393418e-15
5.31000000000000e+01 2.46862323047159e-14 1.23340003373482e-15
5.33000000000000e+01 2.19967918499121e-14 1.10109512023679e-15
5.35000000000000e+01 1.96003523630427e-14 9.82975429752314e-16
5.37000000000000e+01 1.74649928669925e-14 8.77520866265271e-16
5.39000000000000e+01 1.55622700140452e-14 7.83374137994399e-16
5.41000000000000e+01 1.38668392157068e-14 6.99323331145868e-16
5.43000000000000e+01 1.23561170485231e-14 6.24286347758717e-16
5.45000000000000e+01 1.10099804390802e-14 5.57297008375520e-16
5.47000000000000e+01 9.81049862128156e-15 4.97492641556430e-16
5.49000000000000e+01 8.74169429552663e-15 4.44103001268536e-16
5.51000000000000e+01 7.78933080839274e-15 3.96440370166634e-16
5.53000000000000e+01 6.94072251801629e-15 3.53890721952451e-16
5.55000000000000e+01 6.18456581920914e-15 3.15905829550573e-16
5.57000000000000e+01 5.51078857753584e-15 2.81996217943496e-16
5.59000000000000e+01 4.91041596678859e-15 2.51724871319838e-16
5.61000000000000e+01 4.37545092279228e-15 2.24701613846677e-16
5.63000000000000e+01 3.89876762116435e-15 2.00578092002461e-16
5.65000000000000e+01 3.47401656013527e-15 1.79043294111022e-16
5.67000000000000e+01 3.09553998411677e-15 1.59819549598326e-16
5.69000000000000e+01 2.75829652144564e-15 1.42658956639468e-16
5.71000000000000e+01 2.45779403246504e-15 1.27340192352646e-16
5.73000000000000e+01 2.19002977346858e-15 1.13665664599489e-16
5.75000000000000e+01 1.95143707948077e-15 1.01458968829814e-16
5.77000000000000e+01 1.73883785567953e-15 9.05626173195842e-17
5.79000000000000e+01 1.54940024463852e-15 8.08360116435547e-17
5.81000000000000e+01 1.38060090550981e-15 7.21536323434315e-17
5.83000000000000e+01 1.23019140269931e-15 6.44034225382171e-17
5.85000000000000e+01 1.09616825632637e-15 5.74853447114397e-17
5.87000000000000e+01 9.76746255534755e-16 5.13100921319280e-17
5.89000000000000e+01 8.70334679183695e-16 4.57979383491712e-17
5.91000000000000e+01 7.75516107174708e-16 4.08777099764568e-17
5.93000000000000e+01 6.91027540177420e-16 3.64858695575985e-17
5.95000000000000e+01 6.15743576266019e-16 3.25656967264092e-17
5.97000000000000e+01 5.48661420376275e-16 2.90665571302302e-17
5.99000000000000e+01 4.88887526906588e-16 2.74378578005614e-17
