Energy (eV)          EEDF (eV^-(3/2))     First Anisotropy
2.20652173913043e-02 7.88772195820124e-02 4.35780698859019e-05
6.61956521739130e-02 7.82872567258589e-02 7.19324906116730e-05
1.10326086956522e-01 7.77017065019618e-02 9.48867736203080e-05
1.54456521739130e-01 7.71205359076723e-02 1.12281401267417e-04
1.98586956521739e-01 7.65437121830706e-02 1.26752433975090e-04
2.42717391304348e-01 7.59712028159512e-02 1.39297411995750e-04
2.86847826086957e-01 7.54029755371850e-02 1.50432995775083e-04
3.30978260869565e-01 7.48389983208587e-02 1.60471436307837e-04
3.75108695652174e-01 7.42792393766611e-02 1.69619990805394e-04
4.19239130434783e-01 7.37236671540770e-02 1.78025261169139e-04
4.63369565217391e-01 7.31722503385166e-02 1.85795855974573e-04
5.07500000000000e-01 7.26249578496290e-02 1.93015127260678e-04
5.51630434782609e-01 7.20817588405581e-02 1.99748852505096e-04
5.95760869565217e-01 7.15426226930196e-02 2.06050127152376e-04
6.39891304347826e-01 7.10075190188339e-02 2.11962619748454e-04
6.84021739130435e-01 7.04764176570948e-02 2.17522816955221e-04
7.28152173913043e-01 6.99492886724974e-02 2.22761618177115e-04
7.72282608695652e-01 6.94261023543385e-02 2.27705497931561e-04
8.16413043478261e-01 6.89068292126889e-02 2.32377371229882e-04
8.60543478260870e-01 6.83914399789214e-02 2.36797250401692e-04
9.04673913043478e-01 6.78799056033247e-02 2.40982752318650e-04
9.48804347826087e-01 6.73721972540143e-02 2.44949495679596e-04
9.92934782608696e-01 6.68682863136373e-02 2.48711416094985e-04
1.03706521739130e+00 6.63681443794517e-02 2.52281018820302e-04
1.08119565217391e+00 6.58717432634073e-02 2.55669585589636e-04
1.12532608695652e+00 6.53790549815110e-02 2.58887341271873e-04
1.16945652173913e+00 6.48900517679270e-02 2.61943594227156e-04
1.21358695652174e+00 6.44047060560215e-02 2.64846852246225e-04
1.25771739130435e+00 6.39229904934618e-02 2.67604919928645e-04
1.30184782608696e+00 6.34448779247088e-02 2.70224981278324e-04
1.34597826086957e+00 6.29703414048114e-02 2.72713669759553e-04
1.39010869565217e+00 6.24993541831630e-02 2.75077128501763e-04
1.43423913043478e+00 6.20318897161565e-02 2.77321061902717e-04
1.47836956521739e+00 6.15679216520530e-02 2.79450780493192e-04
1.52250000000000e+00 6.11074238426359e-02 2.81471239734311e-04
1.56663043478261e+00 6.06503703290651e-02 2.83387074102635e-04
1.61076086956522e+00 6.01967353526449e-02 2.85202626787833e-04
1.65489130434783e+00 5.97464933415582e-02 2.86921976032733e-04
1.69902173913043e+00 5.92996189208443e-02 2.88548958228950e-04
1.74315217391304e+00 5.88560868999236e-02 2.90087188582012e-04
1.78728260869565e+00 5.84158722818681e-02 2.91540079327891e-04
1.83141304347826e+00 5.79789502516394e-02 2.92910856166812e-04
1.87554347826087e+00 5.75452961847224e-02 2.94202572814242e-04
1.91967391304348e+00 5.71148856360098e-02 2.95418124229908e-04
1.96380434782609e+00 5.66876943478617e-02 2.96560258373989e-04
2.00793478260870e+00 5.62636982395781e-02 2.97631586974527e-04
2.05206521739130e+00 5.58428734149365e-02 2.98634594770252e-04
2.09619565217391e+00 5.54251961542035e-02 2.99571649780913e-04
2.14032608695652e+00 5.50106429131808e-02 3.00445009099821e-04
2.18445652173913e+00 5.45991903276555e-02 3.01256827595351e-04
2.22858695652174e+00 5.41908152043835e-02 3.02009164243899e-04
2.27271739130435e+00 5.37854945272800e-02 3.02703988142703e-04
2.31684782608696e+00 5.33832054488182e-02 3.03343184144476e-04
2.36097826086957e+00 5.29839252958592e-02 3.03928557912824e-04
2.40510869565217e+00 5.25876315614360e-02 3.04461840690806e-04
2.44923913043478e+00 5.21943019102500e-02 3.04944693581010e-04
2.49336956521739e+00 5.18039141708132e-02 3.05378711609193e-04
2.53750000000000e+00 5.14164463406375e-02 3.05765427371165e-04
2.58163043478261e+00 5.10318765787099e-02 3.06106314518061e-04
2.62576086956522e+00 5.06501832103969e-02 3.06402790882254e-04
2.66989130434783e+00 5.02713447202317e-02 3.06656221484367e-04
2.71402173913043e+00 4.98953397565530e-02 3.06867921227579e-04
2.75815217391304e+00 4.95221471245848e-02 3.07039157506555e-04
2.80228260869565e+00 4.91517457908286e-02 3.07171152541634e-04
2.84641304347826e+00 4.87841148764164e-02 3.07265085654264e-04
2.89054347826087e+00 4.84192336612739e-02 3.07322095298909e-04
2.93467391304348e+00 4.80570815777306e-02 3.07343281057379e-04
2.97880434782609e+00 4.76976382144680e-02 3.07329705415670e-04
3.02293478260870e+00 4.73408833103726e-02 3.07282395519832e-04
3.06706521739130e+00 4.69867967582827e-02 3.07202344492511e-04
3.11119565217391e+00 4.66353586001999e-02 3.07090513962892e-04
3.15532608695652e+00 4.62865490263216e-02 3.06947833983638e-04
3.19945652173913e+00 4.59403483772251e-02 3.06775205349878e-04
3.24358695652174e+00 4.55967371383631e-02 3.06573500642224e-04
3.28771739130435e+00 4.52556959432712e-02 3.06343565374756e-04
3.33184782608696e+00 4.49172055682554e-02 3.06086219155571e-04
3.37597826086957e+00 4.45812469354453e-02 3.05802256707887e-04
3.42010869565217e+00 4.42478011076639e-02 3.05492448910066e-04
3.46423913043478e+00 4.39168492913355e-02 3.05157543706806e-04
3.50836956521739e+00 4.35883728315284e-02 3.04798267044326e-04
3.55250000000000e+00 4.32623532147264e-02 3.04415323685983e-04
3.59663043478261e+00 4.29387720640357e-02 3.04009398055858e-04
3.64076086956522e+00 4.26176111418267e-02 3.03581154970887e-04
3.68489130434783e+00 4.22988523450984e-02 3.03131240404091e-04
3.72902173913043e+00 4.19824777079982e-02 3.02660282143595e-04
3.77315217391304e+00 4.16684693973346e-02 3.02168890485214e-04
3.81728260869565e+00 4.13568097149826e-02 3.01657658827139e-04
3.86141304347826e+00 4.10474810935384e-02 3.01127164300143e-04
3.90554347826087e+00 4.07404660986154e-02 3.00577968305481e-04
3.94967391304348e+00 4.04357474246356e-02 3.00010617089884e-04
3.99380434782609e+00 4.01333078970215e-02 2.99425642233274e-04
4.03793478260870e+00 3.98331304681177e-02 2.98823561174624e-04
4.08206521739130e+00 3.95351982192846e-02 2.98204877477258e-04
4.12619565217391e+00 3.92394943576598e-02 2.97570082024022e-04
4.17032608695652e+00 3.89460022152928e-02 2.96919652355995e-04
4.21445652173913e+00 3.86547052503077e-02 2.96254053803544e-04
4.25858695652174e+00 3.83655870431715e-02 2.95573739723961e-04
4.30271739130435e+00 3.80786312985198e-02 2.94879151854163e-04
4.34684782608696e+00 3.77938218415339e-02 2.94170720701756e-04
4.39097826086957e+00 3.75111426196878e-02 2.93448865867771e-04
4.43510869565217e+00 3.72305776992298e-02 2.92713996407874e-04
4.47923913043478e+00 3.69521112668537e-02 2.91966511128216e-04
4.52336956521739e+00 3.66757276262812e-02 2.91206798919724e-04
4.56750000000000e+00 3.64014111998618e-02 2.90435239029737e-04
4.61163043478261e+00 3.61291465252510e-02 2.89652201371996e-04
4.65576086956522e+00 3.58589182569423e-02 2.88858046776444e-04
4.69989130434783e+00 3.55907111630383e-02 2.88053127277157e-04
4.74402173913044e+00 3.53245101267172e-02 2.87237786342458e-04
4.78815217391304e+00 3.50603001430937e-02 2.86412359142804e-04
4.83228260869565e+00 3.47980663206236e-02 2.85577172763061e-04
4.87641304347826e+00 3.45377938780499e-02 2.84732546452176e-04
4.92054347826087e+00 3.42794681457489e-02 2.83878791819278e-04
4.96467391304348e+00 3.40230745627587e-02 2.83016213066760e-04
5.00880434782609e+00 3.37685986780691e-02 2.82145107171612e-04
5.05293478260870e+00 3.35160261477303e-02 2.81265764103304e-04
5.09706521739130e+00 3.32653427360880e-02 2.80378466857792e-04
5.14119565217391e+00 3.30165343134516e-02 2.79483492198698e-04
5.18532608695652e+00 3.27695868553455e-02 2.78581110010628e-04
5.22945652173913e+00 3.25244864431415e-02 2.77671584009769e-04
5.27358695652174e+00 3.22812192613792e-02 2.76755171788469e-04
5.31771739130435e+00 3.20397715988534e-02 2.75832124954981e-04
5.36184782608696e+00 3.18001298460037e-02 2.74902689307190e-04
5.40597826086957e+00 3.15622804959569e-02 2.73967104962624e-04
5.45010869565217e+00 3.13262101419838e-02 2.73025606521803e-04
5.49423913043478e+00 3.10919054784984e-02 2.72078423189244e-04
5.53836956521739e+00 3.08593532985794e-02 2.71125778927377e-04
5.58250000000000e+00 3.06285404949288e-02 2.70167892569283e-04
5.62663043478261e+00 3.03994540574551e-02 2.69204977963740e-04
5.67076086956522e+00 3.01720810741931e-02 2.68237244080474e-04
5.71489130434783e+00 2.99464087289478e-02 2.67264895147070e-04
5.75902173913043e+00 2.97224243021761e-02 2.66288130747196e-04
5.80315217391304e+00 2.95001151686893e-02 2.65307145949976e-04
5.84728260869565e+00 2.92794687984991e-02 2.64322131401810e-04
5.89141304347826e+00 2.90604727545763e-02 2.63333273448732e-04
5.93554347826087e+00 2.88431146936627e-02 2.62340754222265e-04
5.97967391304348e+00 2.86273823640842e-02 2.61344751755300e-04
6.02380434782609e+00 2.84132636065300e-02 2.60345440062507e-04
6.06793478260870e+00 2.82007463519186e-02 2.59342989250113e-04
6.11206521739130e+00 2.79898186221454e-02 2.58337565488185e-04
6.15619565217391e+00 2.77804685283388e-02 2.57329331527722e-04
6.20032608695652e+00 2.75726842702199e-02 2.56318446154370e-04
6.24445652173913e+00 2.73664541364396e-02 2.55305064686938e-04
6.28858695652174e+00 2.71617665025838e-02 2.54289338965913e-04
6.33271739130435e+00 2.69586098318340e-02 2.53271417417831e-04
6.37684782608696e+00 2.67569726730201e-02 2.52251445146750e-04
6.42097826086956e+00 2.65568436612532e-02 2.51229563994672e-04
6.46510869565217e+00 2.63582115160251e-02 2.50205912628564e-04
6.50923913043478e+00 2.61610650418146e-02 2.49180626597226e-04
6.55336956521739e+00 2.59653931262317e-02 2.48153838414108e-04
6.59750000000000e+00 2.57711847405991e-02 2.47125677610740e-04
6.64163043478261e+00 2.55784289381391e-02 2.46096270815702e-04
6.68576086956522e+00 2.53871148545321e-02 2.45065741804917e-04
6.72989130434783e+00 2.51972317061446e-02 2.44034211576937e-04
6.77402173913043e+00 2.50087687905654e-02 2.43001798400254e-04
6.81815217391304e+00 2.48217154848734e-02 2.41968617885186e-04
6.86228260869565e+00 2.46360612461530e-02 2.40934783028442e-04
6.90641304347826e+00 2.44517956098006e-02 2.39900404281749e-04
6.95054347826087e+00 2.42689081900192e-02 2.38865589593875e-04
6.99467391304348e+00 2.40873886781632e-02 2.37830444476201e-04
7.03880434782609e+00 2.39072268432126e-02 2.36795072042315e-04
7.08293478260870e+00 2.37284125301555e-02 2.35759573070761e-04
7.12706521739130e+00 2.35509356604426e-02 2.34724045962093e-04
7.17119565217391e+00 2.33747862306502e-02 2.33688587120642e-04
7.21532608695652e+00 2.31999543119367e-02 2.32653290508994e-04
7.25945652173913e+00 2.30264300502065e-02 2.31618248017130e-04
7.30358695652174e+00 2.28542036645911e-02 2.30583549434639e-04
7.34771739130435e+00 2.26832654478486e-02 2.29549282483211e-04
7.39184782608696e+00 2.25136057648780e-02 2.28515532870373e-04
7.43597826086957e+00 2.23452150531027e-02 2.27482384320169e-04
7.48010869565217e+00 2.21780838210168e-02 2.26449918624695e-04
7.52423913043478e+00 2.20122026485529e-02 2.25418215673054e-04
7.56836956521739e+00 2.18475621856603e-02 2.24387353500803e-04
7.61250000000000e+00 2.16841531526571e-02 2.23357408317373e-04
7.65663043478261e+00 2.15219663388393e-02 2.22328454553446e-04
7.70076086956522e+00 2.13609926028187e-02 2.21300564886920e-04
7.74489130434783e+00 2.12012228711614e-02 2.20273810288467e-04
7.78902173913044e+00 2.10426481387116e-02 2.19248260045974e-04
7.83315217391304e+00 2.08852594672596e-02 2.18223981808336e-04
7.87728260869565e+00 2.07290479858521e-02 2.17201041608655e-04
7.92141304347826e+00 2.05740048894882e-02 2.16179503906269e-04
7.96554347826087e+00 2.04201214394171e-02 2.15159431608717e-04
8.00967391304348e+00 2.02673889618616e-02 2.14140886112159e-04
8.05380434782609e+00 2.01157988483029e-02 2.13123927322151e-04
8.09793478260870e+00 1.99653425542318e-02 2.12108613692546e-04
8.14206521739130e+00 1.98160115994210e-02 2.11095002181924e-04
8.18619565217391e+00 1.96677975668828e-02 2.10083148544385e-04
8.23032608695652e+00 1.95206921024078e-02 2.09073106969617e-04
8.27445652173913e+00 1.93746869146288e-02 2.08064930364445e-04
8.31858695652174e+00 1.92297737738417e-02 2.07058670322157e-04
8.36271739130435e+00 1.90859445122445e-02 2.06054377139746e-04
8.40684782608696e+00 1.89431910227825e-02 2.05052099851876e-04
8.45097826086957e+00 1.88015052593773e-02 2.04051886247265e-04
8.49510869565217e+00 1.86608792357962e-02 2.03053782901407e-04
8.53923913043478e+00 1.85213050258704e-02 2.02057835192060e-04
8.58336956521739e+00 1.83827747623880e-02 2.01064087330811e-04
8.62750000000000e+00 1.82452806373030e-02 2.00072582377749e-04
8.67163043478261e+00 1.81088149006507e-02 1.99083362271920e-04
8.71576086956522e+00 1.79733698607476e-02 1.98096467845228e-04
8.75989130434783e+00 1.78389378831288e-02 1.97111938851789e-04
8.80402173913044e+00 1.77055113907387e-02 1.96129813981150e-04
8.84815217391304e+00 1.75730828628912e-02 1.95150130886583e-04
8.89228260869565e+00 1.74416448354506e-02 1.94172926197591e-04
8.93641304347826e+00 1.73111898998135e-02 1.93198235547281e-04
8.98054347826087e+00 1.71817107030814e-02 1.92226093584200e-04
9.02467391304348e+00 1.70531999470632e-02 1.91256533998735e-04
9.06880434782609e+00 1.69256503884400e-02 1.90289589534353e-04
9.11293478260870e+00 1.67990548377873e-02 1.89325292013081e-04
9.15706521739130e+00 1.66734061597327e-02 1.88363672296026e-04
9.20119565217391e+00 1.65486972721323e-02 1.87404760509048e-04
9.24532608695652e+00 1.64249211456809e-02 1.86448585752411e-04
9.28945652173913e+00 1.63020708039161e-02 1.85495176319529e-04
9.33358695652174e+00 1.61801393222921e-02 1.84544559668028e-04
9.37771739130435e+00 1.60591198283161e-02 1.83596762429109e-04
9.42184782608696e+00 1.59390055006405e-02 1.82651810430092e-04
9.46597826086957e+00 1.58197895691926e-02 1.81709728703352e-04
9.51010869565217e+00 1.57014653142850e-02 1.80770541508115e-04
9.55423913043478e+00 1.55840260667388e-02 1.79834272338879e-04
9.59836956521739e+00 1.54674652070117e-02 1.78900943946552e-04
9.64250000000000e+00 1.53517761653149e-02 1.77970578346402e-04
9.68663043478261e+00 1.52369524207587e-02 1.77043196838508e-04
9.73076086956522e+00 1.51229875014635e-02 1.76118820015321e-04
9.77489130434783e+00 1.50098749837217e-02 1.75197467781425e-04
9.81902173913043e+00 1.48976084921036e-02 1.74279159360706e-04
9.86315217391304e+00 1.47861816986357e-02 1.73363913315494e-04
9.90728260869565e+00 1.46755883229009e-02 1.72451747553347e-04
9.95141304347826e+00 1.45658221312327e-02 1.71542679345557e-04
9.99554347826087e+00 1.44568769368106e-02 1.70636725333590e-04
1.00396739130435e+01 1.43487465988700e-02 1.69733901423791e-04
1.00838043478261e+01 1.42414250231084e-02 1.68834223410275e-04
1.01279347826087e+01 1.41349061593286e-02 1.67937705882705e-04
1.01720652173913e+01 1.40291840046899e-02 1.67044362681867e-04
1.02161956521739e+01 1.39242526001883e-02 1.66154208311272e-04
1.02603260869565e+01 1.38201060303854e-02 1.65267255494056e-04
1.03044565217391e+01 1.37167384261164e-02 1.64383516409902e-04
1.03485869565217e+01 1.36141439610916e-02 1.63503003897992e-04
1.03927173913043e+01 1.35123168516289e-02 1.62625729084578e-04
1.04368478260870e+01 1.34112513592631e-02 1.61751702583226e-04
1.04809782608696e+01 1.33109417874631e-02 1.60880935663247e-04
1.05251086956522e+01 1.32113824813682e-02 1.60013437945600e-04
1.05692391304348e+01 1.31125678303026e-02 1.59149218567676e-04
1.06133695652174e+01 1.30144922646037e-02 1.58288287318313e-04
1.06575000000000e+01 1.29171502553628e-02 1.57430652399842e-04
1.07016304347826e+01 1.28205363168479e-02 1.56576321915269e-04
1.07457608695652e+01 1.27246450025529e-02 1.55725303541425e-04
1.07898913043478e+01 1.26294709084952e-02 1.54877604141248e-04
1.08340217391304e+01 1.25350086702116e-02 1.54033231224018e-04
1.08781521739130e+01 1.24412529625067e-02 1.53192190806271e-04
1.09222826086957e+01 1.23481985017399e-02 1.52354488491966e-04
1.09664130434783e+01 1.22558400429204e-02 1.51520130525460e-04
1.10105434782609e+01 1.21641723794615e-02 1.50689121713451e-04
1.10546739130435e+01 1.20731903453849e-02 1.49861466474396e-04
1.10988043478261e+01 1.19828888125115e-02 1.49037169860854e-04
1.11429347826087e+01 1.18932626902212e-02 1.48216235540547e-04
1.11870652173913e+01 1.18043069275779e-02 1.47398666816014e-04
1.12311956521739e+01 1.17160165106127e-02 1.46584467617279e-04
1.12753260869565e+01 1.16283864620892e-02 1.45773640540301e-04
1.13194565217391e+01 1.15414118435513e-02 1.44966187837440e-04
1.13635869565217e+01 1.14550877526974e-02 1.44162112381833e-04
1.14077173913043e+01 1.13694093231486e-02 1.43361415761441e-04
1.14518478260870e+01 1.12843717264246e-02 1.42564099240811e-04
1.14959782608696e+01 1.11999701694037e-02 1.41770164698400e-04
1.15401086956522e+01 1.11161998940955e-02 1.40979612774407e-04
1.15842391304348e+01 1.10330561795466e-02 1.40192443804778e-04
1.16283695652174e+01 1.09505343393837e-02 1.39408658732264e-04
1.16725000000000e+01 1.08686297215903e-02 1.38628257306397e-04
1.17166304347826e+01 1.07873377103456e-02 1.37851239277501e-04
1.17607608695652e+01 1.07066537229657e-02 1.37077604132634e-04
1.18048913043478e+01 1.06265732124162e-02 1.36307350782597e-04
1.18490217391304e+01 1.05470916649806e-02 1.35540478735068e-04
1.18931521739130e+01 1.04682046000445e-02 1.34776986373006e-04
1.19372826086957e+01 1.03899075718334e-02 1.34016871822065e-04
1.19814130434783e+01 1.03121961671562e-02 1.33260133796913e-04
1.20255434782609e+01 1.02350660051944e-02 1.32506769927868e-04
1.20696739130435e+01 1.01585127391783e-02 1.31756777604099e-04
1.21138043478261e+01 1.00825320542037e-02 1.31010154795834e-04
1.21579347826087e+01 1.00071196670250e-02 1.30266898427743e-04
1.22020652173913e+01 9.93227132767273e-03 1.29527005198657e-04
1.22461956521739e+01 9.85798281734051e-03 1.28790472380420e-04
1.22903260869565e+01 9.78424994818210e-03 1.28057296236676e-04
1.23344565217391e+01 9.71106856487299e-03 1.27327472819579e-04
1.23785869565217e+01 9.63843454256441e-03 1.26600998746299e-04
1.24227173913043e+01 9.56634378668460e-03 1.25877869661831e-04
1.24668478260870e+01 9.49479223444622e-03 1.25158081013118e-04
1.25109782608696e+01 9.42377585286572e-03 1.24441628804127e-04
1.25551086956522e+01 9.35329063856818e-03 1.23728508101314e-04
1.25992391304348e+01 9.28333261924279e-03 1.23018713785820e-04
1.26433695652174e+01 9.21389785172526e-03 1.22312241287741e-04
1.26875000000000e+01 9.14498242180621e-03 1.21609085133013e-04
1.27316304347826e+01 9.07658244563661e-03 1.20909239905930e-04
1.27757608695652e+01 9.00869406734314e-03 1.20212700035197e-04
1.28198913043478e+01 8.94131346095565e-03 1.19519459540527e-04
1.28640217391304e+01 8.87443682858513e-03 1.18829512978845e-04
1.29081521739130e+01 8.80806040023848e-03 1.18142854053709e-04
1.29522826086957e+01 8.74218043514870e-03 1.17459476314678e-04
1.29964130434783e+01 8.67679322000996e-03 1.16779373840191e-04
1.30405434782609e+01 8.61189506879652e-03 1.16102539885320e-04
1.30846739130435e+01 8.54748232404715e-03 1.15428967561933e-04
1.31288043478261e+01 8.48355135515549e-03 1.14758650502473e-04
1.31729347826087e+01 8.42009855819283e-03 1.14091581544900e-04
1.32170652173913e+01 8.35712035714867e-03 1.13427753394214e-04
1.32611956521739e+01 8.29461320227427e-03 1.12767159267686e-04
1.33053260869565e+01 8.23257356990937e-03 1.12109791615956e-04
1.33494565217391e+01 8.17099796368030e-03 1.11455642766313e-04
1.33935869565217e+01 8.10988291289536e-03 1.10804705550140e-04
1.34377173913043e+01 8.04922497237476e-03 1.10156972059080e-04
1.34818478260870e+01 7.98902072360826e-03 1.09512434270393e-04
1.35259782608696e+01 7.92926677320052e-03 1.08871084657342e-04
1.35701086956522e+01 7.86995975270415e-03 1.08232914979367e-04
1.36142391304348e+01 7.81109631973846e-03 1.07597916890014e-04
1.36583695652174e+01 7.75267315648297e-03 1.06966082530789e-04
1.37025000000000e+01 7.69468696951360e-03 1.06337403354343e-04
1.37466304347826e+01 7.63713449088390e-03 1.05711870903012e-04
1.37907608695652e+01 7.58001247625363e-03 1.05089476635072e-04
1.38348913043478e+01 7.52331770637702e-03 1.04470211719025e-04
1.38790217391304e+01 7.46704698566974e-03 1.03854067799293e-04
1.39231521739130e+01 7.41119714205067e-03 1.03241035869537e-04
