Energy (eV)          EEDF (eV^-(3/2))     First Anisotropy
1.26923076923077e-02 4.24251991622245e-01 3.09449983347860e-04
3.80769230769231e-02 4.18653825752698e-01 5.09330795104406e-04
6.34615384615385e-02 4.13129529804349e-01 6.67993459601185e-04
8.88461538461538e-02 4.07678129036425e-01 7.85897754116606e-04
1.14230769230769e-01 4.02298661542996e-01 8.82076442679598e-04
1.39615384615385e-01 3.96990178188449e-01 9.63794970076172e-04
1.65000000000000e-01 3.91751742297176e-01 1.03484761957552e-03
1.90384615384615e-01 3.86582429534316e-01 1.09754600564169e-03
2.15769230769231e-01 3.81481327824628e-01 1.15343658190804e-03
2.41153846153846e-01 3.76447537093306e-01 1.20362170304498e-03
2.66538461538462e-01 3.71480169126602e-01 1.24892423887905e-03
2.91923076923077e-01 3.66578347470264e-01 1.28998039974106e-03
3.17307692307692e-01 3.61741207198860e-01 1.32729589141265e-03
3.42692307692308e-01 3.56967894833490e-01 1.36128179372834e-03
3.68076923076923e-01 3.52257568139091e-01 1.39227851219115e-03
3.93461538461538e-01 3.47609395983464e-01 1.42057233726367e-03
4.18846153846154e-01 3.43022558226091e-01 1.44640725481841e-03
4.44230769230769e-01 3.38496245525209e-01 1.46999357649138e-03
4.69615384615385e-01 3.34029659240539e-01 1.49151438779256e-03
4.95000000000000e-01 3.29622011258603e-01 1.51113046269862e-03
5.20384615384615e-01 3.25272523857395e-01 1.52898406194368e-03
5.45769230769231e-01 3.20980429594612e-01 1.54520192440188e-03
5.71153846153846e-01 3.16744971145493e-01 1.55989764941747e-03
5.96538461538462e-01 3.12565401171844e-01 1.57317361083251e-03
6.21923076923077e-01 3.08440982211075e-01 1.58512252223846e-03
6.47307692307692e-01 3.04370986518088e-01 1.59582872167823e-03
6.72692307692308e-01 3.00354695963700e-01 1.60536923753285e-03
6.98076923076923e-01 2.96391401887877e-01 1.61381468337869e-03
7.23461538461538e-01 2.92480404976473e-01 1.62123000671686e-03
7.48846153846154e-01 2.88621015154027e-01 1.62767512984589e-03
7.74230769230769e-01 2.84812551440295e-01 1.63320549489151e-03
7.99615384615385e-01 2.81054341851009e-01 1.63787253196654e-03
8.25000000000000e-01 2.77345723263707e-01 1.64172406638231e-03
8.50384615384615e-01 2.73686041301913e-01 1.64480466747151e-03
8.75769230769231e-01 2.70074650232649e-01 1.64715595727581e-03
9.01153846153846e-01 2.66510912839093e-01 1.64881688122180e-03
9.26538461538462e-01 2.62994200309091e-01 1.64982394248228e-03
9.51923076923077e-01 2.59523892135524e-01 1.65021141343234e-03
9.77307692307692e-01 2.56099375991719e-01 1.65001152133622e-03
1.00269230769231e+00 2.52720047638033e-01 1.64925461552613e-03
1.02807692307692e+00 2.49385310787942e-01 1.64796930888678e-03
1.05346153846154e+00 2.46094577072268e-01 1.64618262103583e-03
1.07884615384615e+00 2.42847265821463e-01 1.64392009086336e-03
1.10423076923077e+00 2.39642804089710e-01 1.64120588505324e-03
1.12961538461538e+00 2.36480626432286e-01 1.63806289670736e-03
1.15500000000000e+00 2.33360174922597e-01 1.63451283241111e-03
1.18038461538462e+00 2.30280898941405e-01 1.63057629364417e-03
1.20576923076923e+00 2.27242255187763e-01 1.62627284876097e-03
1.23115384615385e+00 2.24243707479074e-01 1.62162110084100e-03
1.25653846153846e+00 2.21284726756753e-01 1.61663874773418e-03
1.28192307692308e+00 2.18364790896224e-01 1.61134263910785e-03
1.30730769230769e+00 2.15483384708005e-01 1.60574882694808e-03
1.33269230769231e+00 2.12639999756863e-01 1.59987261673652e-03
1.35807692307692e+00 2.09834134338512e-01 1.59372859890547e-03
1.38346153846154e+00 2.07065293389132e-01 1.58733070696619e-03
1.40884615384615e+00 2.04332988336768e-01 1.58069224347229e-03
1.43423076923077e+00 2.01636737095690e-01 1.57382591688436e-03
1.45961538461538e+00 1.98976063903448e-01 1.56674387458504e-03
1.48500000000000e+00 1.96350499312242e-01 1.55945773196816e-03
1.51038461538462e+00 1.93759580033226e-01 1.55197860108439e-03
1.53576923076923e+00 1.91202848925277e-01 1.54431711583473e-03
1.56115384615385e+00 1.88679854846071e-01 1.53648345696449e-03
1.58653846153846e+00 1.86190152638587e-01 1.52848737399726e-03
1.61192307692308e+00 1.83733302988516e-01 1.52033820715533e-03
1.63730769230769e+00 1.81308872408815e-01 1.51204490654848e-03
1.66269230769231e+00 1.78916433103045e-01 1.50361605362353e-03
1.68807692307692e+00 1.76555562934443e-01 1.49505986947520e-03
1.71346153846154e+00 1.74225845350192e-01 1.48638424466085e-03
1.73884615384615e+00 1.71926869266565e-01 1.47759674608717e-03
1.76423076923077e+00 1.69658229050914e-01 1.46870463330944e-03
1.78961538461538e+00 1.67419524397179e-01 1.45971487290296e-03
1.81500000000000e+00 1.65210360306628e-01 1.45063415087075e-03
1.84038461538462e+00 1.63030346968279e-01 1.44146888549268e-03
1.86576923076923e+00 1.60879099738564e-01 1.43222523837604e-03
1.89115384615385e+00 1.58756239026400e-01 1.42290912598379e-03
1.91653846153846e+00 1.56661390271938e-01 1.41352622950899e-03
1.94192307692308e+00 1.54594183836028e-01 1.40408200525206e-03
1.96730769230769e+00 1.52554254978209e-01 1.39458169347082e-03
1.99269230769231e+00 1.50541243750334e-01 1.38503032939011e-03
2.01807692307692e+00 1.48554794964221e-01 1.37543274457914e-03
2.04346153846154e+00 1.46594558128150e-01 1.36579358522060e-03
2.06884615384615e+00 1.44660187355958e-01 1.35611731311274e-03
2.09423076923077e+00 1.42751341344376e-01 1.34640821424944e-03
2.11961538461538e+00 1.40867683275471e-01 1.33667040617926e-03
2.14500000000000e+00 1.39008880793556e-01 1.32690784415828e-03
2.17038461538462e+00 1.37174605911169e-01 1.31712432785722e-03
2.19576923076923e+00 1.35364534985649e-01 1.30732350694006e-03
2.22115384615385e+00 1.33578348628482e-01 1.29750888719082e-03
2.24653846153846e+00 1.31815731681621e-01 1.28768383558247e-03
2.27192307692308e+00 1.30076373130050e-01 1.27785158588604e-03
2.29730769230769e+00 1.28359966077914e-01 1.26801524328525e-03
2.32269230769231e+00 1.26666207664152e-01 1.25817779080053e-03
2.34807692307692e+00 1.24994799031501e-01 1.24834208836923e-03
2.37346153846154e+00 1.23345445273176e-01 1.23851088520736e-03
2.39884615384615e+00 1.21717855359850e-01 1.22868681883565e-03
2.42423076923077e+00 1.20111742116038e-01 1.21887242013528e-03
2.44961538461538e+00 1.18526822142385e-01 1.20907011753621e-03
2.47500000000000e+00 1.16962815792030e-01 1.19928224038034e-03
2.50038461538462e+00 1.15419447095545e-01 1.18951102278786e-03
2.52576923076923e+00 1.13896443737330e-01 1.17975860674250e-03
2.55115384615385e+00 1.12393536983085e-01 1.17002704566612e-03
2.57653846153846e+00 1.10910461656279e-01 1.16031830725302e-03
2.60192307692308e+00 1.09446956068052e-01 1.15063427677956e-03
2.62730769230769e+00 1.08002761993787e-01 1.14097675971145e-03
2.65269230769231e+00 1.06577624605347e-01 1.13134748577930e-03
2.67807692307692e+00 1.05171292442615e-01 1.12174810733995e-03
2.70346153846154e+00 1.03783517368701e-01 1.11218020823870e-03
2.72884615384615e+00 1.02414054510694e-01 1.10264530222063e-03
2.75423076923077e+00 1.01062662236915e-01 1.09314483614138e-03
2.77961538461538e+00 9.97291020943006e-02 1.08368019252593e-03
2.80500000000000e+00 9.84131387858438e-02 1.07425269152877e-03
2.83038461538462e+00 9.71145401100169e-02 1.06486359331655e-03
2.85576923076923e+00 9.58330769384168e-02 1.05551409988022e-03
2.88115384615385e+00 9.45685231571505e-02 1.04620535725593e-03
2.90653846153846e+00 9.33206556447051e-02 1.03693845720188e-03
2.93192307692308e+00 9.20892542152193e-02 1.02771443927054e-03
2.95730769230769e+00 9.08741015965954e-02 1.01853429236163e-03
2.98269230769231e+00 8.96749833755850e-02 1.00939895745666e-03
3.00807692307692e+00 8.84916879722894e-02 1.00030932585169e-03
3.03346153846154e+00 8.73240066025161e-02 9.91266245740606e-04
3.05884615384615e+00 8.61717332293617e-02 9.82270520527677e-04
3.08423076923077e+00 8.50346645421832e-02 9.73322910973410e-04
3.10961538461538e+00 8.39125999057417e-02 9.64424136835312e-04
3.13500000000000e+00 8.28053413394500e-02 9.55574878059098e-04
3.16038461538462e+00 8.17126934681162e-02 9.46775776315674e-04
3.18576923076923e+00 8.06344635014766e-02 9.38027436107787e-04
3.21115384615385e+00 7.95704611864816e-02 9.29330426210754e-04
3.23653846153846e+00 7.85204987871219e-02 9.20685280701217e-04
3.26192307692308e+00 7.74843910382013e-02 9.12092500308580e-04
3.28730769230769e+00 7.64619551254627e-02 9.03552553371731e-04
3.31269230769231e+00 7.54530106407949e-02 8.95065877745784e-04
3.33807692307692e+00 7.44573795597320e-02 8.86632879131516e-04
3.36346153846154e+00 7.34748862098099e-02 8.78253936080015e-04
3.38884615384615e+00 7.25053572307958e-02 8.69929398405101e-04
3.41423076923077e+00 7.15486215557192e-02 8.61659588669070e-04
3.43961538461538e+00 7.06045103693174e-02 8.53444803270507e-04
3.46500000000000e+00 6.96728570893758e-02 8.45285313186963e-04
3.49038461538462e+00 6.87534973264454e-02 8.37181364998103e-04
3.51576923076923e+00 6.78462688654947e-02 8.29133181577569e-04
3.54115384615385e+00 6.69510116268560e-02 8.21140963055765e-04
3.56653846153846e+00 6.60675676481904e-02 8.13204887464632e-04
3.59192307692308e+00 6.51957810466211e-02 8.05325111644016e-04
3.61730769230769e+00 6.43354980010129e-02 7.97501771842687e-04
3.64269230769231e+00 6.34865667152517e-02 7.89734985084223e-04
3.66807692307692e+00 6.26488373985947e-02 7.82024847672062e-04
3.69346153846154e+00 6.18221622390652e-02 7.74371439054696e-04
3.71884615384615e+00 6.10063953706566e-02 7.66774820407180e-04
3.74423076923077e+00 6.02013928564920e-02 7.59235035686031e-04
3.76961538461538e+00 5.94070126547145e-02 7.51752112366957e-04
3.79500000000000e+00 5.86231146019567e-02 7.44326061913831e-04
3.82038461538462e+00 5.78495603802533e-02 7.36956880474574e-04
3.84576923076923e+00 5.70862135008195e-02 7.29644549318375e-04
3.87115384615385e+00 5.63329392719520e-02 7.22389035492188e-04
3.89653846153846e+00 5.55896047831148e-02 7.15190292228529e-04
3.92192307692308e+00 5.48560788737966e-02 7.08048259564989e-04
3.94730769230769e+00 5.41322321179022e-02 7.00962864724484e-04
3.97269230769231e+00 5.34179367935347e-02 6.93934023112860e-04
3.99807692307692e+00 5.27130668659583e-02 6.86961637017156e-04
4.02346153846154e+00 5.20174979652270e-02 6.80045598624778e-04
4.04884615384615e+00 5.13311073590574e-02 6.73185788788753e-04
4.07423076923077e+00 5.06537739380417e-02 6.66382077790177e-04
4.09961538461538e+00 4.99853781875483e-02 6.59634325846308e-04
4.12500000000000e+00 4.93258021732284e-02 6.52942383406844e-04
4.15038461538462e+00 4.86749295137448e-02 6.46306091633861e-04
4.17576923076923e+00 4.80326453665699e-02 6.39725282677947e-04
4.20115384615385e+00 4.73988364015152e-02 6.33199780131755e-04
4.22653846153846e+00 4.67733907868179e-02 6.26729399287079e-04
4.25192307692308e+00 4.61561981634463e-02 6.20313947563556e-04
4.27730769230769e+00 4.55471496314716e-02 6.13953224748055e-04
4.30269230769231e+00 4.49461377251240e-02 6.07647023733640e-04
4.32807692307692e+00 4.43530563981004e-02 6.01395129403180e-04
4.35346153846154e+00 4.37678010047501e-02 5.95197321007338e-04
4.37884615384615e+00 4.31902682775838e-02 5.89053371105400e-04
4.40423076923077e+00 4.26203563143912e-02 5.82963046123599e-04
4.42961538461538e+00 4.20579645550265e-02 5.76926106708123e-04
4.45500000000000e+00 4.15029937687967e-02 5.70942307910107e-04
4.48038461538462e+00 4.09553460319214e-02 5.65011399519457e-04
4.50576923076923e+00 4.04149247151874e-02 5.59133126236683e-04
4.53115384615385e+00 3.98816344620620e-02 5.53307227988602e-04
4.55653846153846e+00 3.93553811766107e-02 5.47533440087749e-04
4.58192307692308e+00 3.88360720022433e-02 5.41811493531025e-04
4.60730769230769e+00 3.83236153098906e-02 5.36141115147629e-04
4.63269230769231e+00 3.78179206773638e-02 5.30522028152022e-04
4.65807692307692e+00 3.73188988767346e-02 5.24953951194925e-04
4.68346153846154e+00 3.68264618585113e-02 5.19436600248501e-04
4.70884615384615e+00 3.63405227329559e-02 5.13969687705498e-04
4.73423076923077e+00 3.58609957589263e-02 5.08552922791903e-04
4.75961538461538e+00 3.53877963246537e-02 5.03186011813279e-04
4.78500000000000e+00 3.49208409368289e-02 4.97868658266863e-04
4.81038461538462e+00 3.44600472019311e-02 4.92600563074550e-04
4.83576923076923e+00 3.40053338155537e-02 4.87381424686422e-04
4.86115384615385e+00 3.35566205442686e-02 4.82210939301076e-04
4.88653846153846e+00 3.31138282151868e-02 4.77088800960992e-04
4.91192307692308e+00 3.26768786983416e-02 4.72014701760929e-04
4.93730769230769e+00 3.22456948964810e-02 4.66988331935689e-04
4.96269230769231e+00 3.18202007279535e-02 4.62009380277280e-04
4.98807692307692e+00 3.14003211159019e-02 4.57077533332450e-04
5.01346153846154e+00 3.09859819749533e-02 4.52192476904682e-04
5.03884615384615e+00 3.05771101956758e-02 4.47353895292208e-04
5.06423076923077e+00 3.01736336349573e-02 4.42561471594914e-04
5.08961538461538e+00 2.97754811000584e-02 4.37814887886143e-04
5.11500000000000e+00 2.93825823392083e-02 4.33113825276833e-04
5.14038461538462e+00 2.89948680261107e-02 4.28457964077924e-04
5.16576923076923e+00 2.86122697507519e-02 4.23846983858796e-04
5.19115384615385e+00 2.82347200043464e-02 4.19280563600799e-04
5.21653846153846e+00 2.78621521703534e-02 4.14758381750346e-04
5.24192307692308e+00 2.74945005098485e-02 4.10280116363986e-04
5.26730769230769e+00 2.71317001527454e-02 4.05845445156474e-04
5.29269230769231e+00 2.67736870835811e-02 4.01454045817178e-04
5.31807692307692e+00 2.64203981322851e-02 3.97105595333913e-04
5.34346153846154e+00 2.60717709629850e-02 3.92799771194562e-04
5.36884615384615e+00 2.57277440610566e-02 3.88536250744618e-04
5.39423076923077e+00 2.53882567248577e-02 3.84314711416457e-04
5.41961538461538e+00 2.50532490524776e-02 3.80134830848589e-04
5.44500000000000e+00 2.47226619336609e-02 3.75996286918134e-04
5.47038461538462e+00 2.43964370369300e-02 3.71898757853385e-04
5.49576923076923e+00 2.40745168016957e-02 3.67841922262565e-04
5.52115384615385e+00 2.37568444257418e-02 3.63825459240076e-04
5.54653846153846e+00 2.34433638575185e-02 3.59849048391765e-04
5.57192307692308e+00 2.31340197839788e-02 3.55912369935194e-04
5.59730769230769e+00 2.28287576230505e-02 3.52015104721562e-04
5.62269230769231e+00 2.25275235118144e-02 3.48156934476713e-04
5.64807692307692e+00 2.22302642986347e-02 3.44337541232609e-04
5.67346153846154e+00 2.19369275337425e-02 3.40556608291804e-04
5.69884615384615e+00 2.16474614584357e-02 3.36813819687003e-04
5.72423076923077e+00 2.13618149979972e-02 3.33108860352780e-04
5.74961538461538e+00 2.10799377506691e-02 3.29441416207450e-04
5.77500000000000e+00 2.08017799807369e-02 3.25811174164868e-04
5.80038461538462e+00 2.05272926078123e-02 3.22217822211556e-04
5.82576923076923e+00 2.02564272000795e-02 3.18661049416070e-04
5.85115384615385e+00 1.99891359638777e-02 3.15140546001658e-04
5.87653846153846e+00 1.97253717371062e-02 3.11656003353355e-04
5.90192307692308e+00 1.94650879790977e-02 3.08207114086348e-04
5.92730769230769e+00 1.92082387641792e-02 3.04793572050971e-04
5.95269230769231e+00 1.89547787718274e-02 3.01415072516755e-04
5.97807692307692e+00 1.87046632799714e-02 2.98071311695034e-04
6.00346153846154e+00 1.84578481570706e-02 2.94761987515296e-04
6.02884615384615e+00 1.82142898531002e-02 2.91486799171140e-04
6.05423076923077e+00 1.79739453934968e-02 2.88245447249024e-04
6.07961538461538e+00 1.77367723699745e-02 2.85037633783533e-04
6.10500000000000e+00 1.75027289346150e-02 2.81863062255837e-04
6.13038461538462e+00 1.72717737909388e-02 2.78721437645589e-04
6.15576923076923e+00 1.70438661881358e-02 2.75612466427879e-04
6.18115384615385e+00 1.68189659123852e-02 2.72535856621890e-04
6.20653846153846e+00 1.65970332812227e-02 2.69491317786435e-04
6.23192307692308e+00 1.63780291351020e-02 2.66478561065595e-04
6.25730769230769e+00 1.61619148318966e-02 2.63497299182911e-04
6.28269230769231e+00 1.59486522386952e-02 2.60547246582192e-04
6.30807692307692e+00 1.57382037261073e-02 2.57628119027002e-04
6.33346153846154e+00 1.55305321616006e-02 2.54739634227064e-04
6.35884615384615e+00 1.53256009019693e-02 2.51881511457124e-04
6.38423076923077e+00 1.51233737881682e-02 2.49053471653437e-04
6.40961538461538e+00 1.49238151376560e-02 2.46255237450084e-04
6.43500000000000e+00 1.47268897393538e-02 2.43486533169129e-04
6.46038461538462e+00 1.45325628461991e-02 2.40747084854520e-04
6.48576923076923e+00 1.43408001702266e-02 2.38036620261317e-04
6.51115384615385e+00 1.41515678753278e-02 2.35354868887322e-04
6.53653846153846e+00 1.39648325724499e-02 2.32701561961465e-04
6.56192307692308e+00 1.37805613125562e-02 2.30076432473239e-04
6.58730769230769e+00 1.35987215819401e-02 2.27479215160339e-04
6.61269230769231e+00 1.34192812953804e-02 2.24909646616466e-04
6.63807692307692e+00 1.32422087913065e-02 2.22367464955463e-04
6.66346153846154e+00 1.30674728261932e-02 2.19852410317777e-04
6.68884615384615e+00 1.28950425682647e-02 2.17364224550682e-04
6.71423076923077e+00 1.27248875930939e-02 2.14902651280479e-04
6.73961538461538e+00 1.25569778772126e-02 2.12467435935333e-04
6.76500000000000e+00 1.23912837938180e-02 2.10058325730518e-04
6.79038461538461e+00 1.22277761065584e-02 2.07675069689556e-04
6.81576923076923e+00 1.20664259653441e-02 2.05317418628937e-04
6.84115384615385e+00 1.19072049003046e-02 2.02985125177648e-04
6.86653846153846e+00 1.17500848177005e-02 2.00677943761461e-04
6.89192307692308e+00 1.15950379940475e-02 1.98395630620873e-04
6.91730769230769e+00 1.14420370721280e-02 1.96137943795005e-04
6.94269230769231e+00 1.12910550552760e-02 1.93904643204172e-04
6.96807692307692e+00 1.11420653032766e-02 1.91695490368322e-04
6.99346153846154e+00 1.09950415276500e-02 1.89510248817193e-04
7.01884615384615e+00 1.08499577863855e-02 1.87348683822141e-04
7.04423076923077e+00 1.07067884801973e-02 1.85210562449974e-04
7.06961538461538e+00 1.05655083471886e-02 1.83095653576270e-04
7.09500000000000e+00 1.04260924591993e-02 1.81003727868039e-04
7.12038461538461e+00 1.02885162166165e-02 1.78934557795817e-04
7.14576923076923e+00 1.01527553448108e-02 1.76887917616103e-04
7.17115384615385e+00 1.00187858890902e-02 1.74863583382332e-04
7.19653846153846e+00 9.88658421122326e-03 1.72861332927089e-04
7.22192307692308e+00 9.75612698453064e-03 1.70880945872017e-04
7.24730769230769e+00 9.62739119049462e-03 1.68922203609853e-04
7.27269230769231e+00 9.50035411398447e-03 1.66984889367629e-04
7.29807692307692e+00 9.37499333978069e-03 1.65068787970675e-04
7.32346153846154e+00 9.25128674860765e-03 1.63173686175295e-04
7.34884615384615e+00 9.12921251272680e-03 1.61299372443890e-04
7.37423076923077e+00 9.00874909275433e-03 1.59445636984926e-04
7.39961538461538e+00 8.88987523320292e-03 1.57612271759580e-04
7.42500000000000e+00 8.77256995937780e-03 1.55799070463350e-04
7.45038461538461e+00 8.65681257304035e-03 1.54005828531869e-04
7.47576923076923e+00 8.54258264938066e-03 1.52232343122459e-04
7.50115384615385e+00 8.42986003279953e-03 1.50478413119167e-04
7.52653846153846e+00 8.31862483395583e-03 1.48743839114280e-04
7.55192307692308e+00 8.20885742566356e-03 1.47028423412621e-04
7.57730769230769e+00 8.10053844001223e-03 1.45331970013054e-04
7.60269230769231e+00 7.99364876437578e-03 1.43654284656759e-04
7.62807692307692e+00 7.88816953846850e-03 1.41995174629441e-04
7.65346153846154e+00 7.78408215100738e-03 1.40354449031526e-04
7.67884615384615e+00 7.68136823602255e-03 1.38731918589586e-04
7.70423076923077e+00 7.58000967015531e-03 1.37127395685821e-04
7.72961538461538e+00 7.47998856893081e-03 1.35540694360127e-04
7.75500000000000e+00 7.38128728412298e-03 1.33971630291657e-04
7.78038461538462e+00 7.28388840012874e-03 1.32420020800324e-04
7.80576923076923e+00 7.18777473139832e-03 1.30885684828425e-04
7.83115384615385e+00 7.09292931890813e-03 1.29368442941614e-04
7.85653846153846e+00 6.99933542765491e-03 1.27868117310622e-04
7.88192307692308e+00 6.90697654322457e-03 1.26384531711707e-04
7.90730769230769e+00 6.81583636934858e-03 1.24917511508462e-04
7.93269230769231e+00 6.72589882456610e-03 1.23466883688630e-04
7.95807692307692e+00 6.63714803973178e-03 1.22032476698282e-04
7.98346153846154e+00 6.54956835520775e-03 1.20614120661545e-04
8.00884615384615e+00 6.46314431777344e-03 1.19211647222471e-04
