Energy (eV)          EEDF (eV^-(3/2))     First Anisotropy
9.25000000000000e-04 6.81607564577451e+01 5.65285462249772e-02
2.77500000000000e-03 6.62282465665099e+01 9.23318330009533e-02
4.62500000000000e-03 6.43505276528708e+01 1.19234356810865e-01
6.47500000000000e-03 6.25260462700663e+01 1.38125203562253e-01
8.32500000000000e-03 6.07532930150278e+01 1.52647883824922e-01
1.01750000000000e-02 5.90308012796396e+01 1.64227885574132e-01
1.20250000000000e-02 5.73571460374066e+01 1.73626628306171e-01
1.38750000000000e-02 5.57309426645222e+01 1.81317758233094e-01
1.57250000000000e-02 5.41508457943613e+01 1.87624267535072e-01
1.75750000000000e-02 5.26155482044516e+01 1.92780445454606e-01
1.94250000000000e-02 5.11237797350017e+01 1.96963949674256e-01
2.12750000000000e-02 4.96743062380910e+01 2.00314064174017e-01
2.31250000000000e-02 4.82659285566530e+01 2.02942853113415e-01
2.49750000000000e-02 4.68974815324055e+01 2.04942358066413e-01
2.68250000000000e-02 4.55678330419099e+01 2.06389450140012e-01
2.86750000000000e-02 4.42758830599590e+01 2.07349220831133e-01
3.05250000000000e-02 4.30205627495207e+01 2.07877424053977e-01
3.23750000000000e-02 4.18008335774831e+01 2.08022280384888e-01
3.42250000000000e-02 4.06156864554708e+01 2.07825839769910e-01
3.60750000000000e-02 3.94641409050207e+01 2.07325030667670e-01
3.79250000000000e-02 3.83452442464270e+01 2.06552481499395e-01
3.97750000000000e-02 3.72580708105845e+01 2.05537173486632e-01
4.16250000000000e-02 3.62017211731772e+01 2.04304966431969e-01
4.34750000000000e-02 3.51753214105803e+01 2.02879027251290e-01
4.53250000000000e-02 3.41780223768581e+01 2.01280183019628e-01
4.71750000000000e-02 3.32089990012614e+01 1.99527214672456e-01
4.90250000000000e-02 3.22674496056423e+01 1.97637103509131e-01
5.08750000000000e-02 3.13525952412211e+01 1.95625239759553e-01
5.27250000000000e-02 3.04636790441584e+01 1.93505600360167e-01
5.45750000000000e-02 2.95999656093971e+01 1.91290901514758e-01
5.64250000000000e-02 2.87607403822586e+01 1.88992730434530e-01
5.82750000000000e-02 2.79453090672875e+01 1.86621659753846e-01
6.01250000000000e-02 2.71529970538572e+01 1.84187347427954e-01
6.19750000000000e-02 2.63831488580614e+01 1.81698624383564e-01
6.38250000000000e-02 2.56351275804284e+01 1.79163571773849e-01
6.56750000000000e-02 2.49083143790111e+01 1.76589589358359e-01
6.75250000000000e-02 2.42021079574156e+01 1.73983456264832e-01
6.93750000000000e-02 2.35159240673457e+01 1.71351385178544e-01
7.12250000000000e-02 2.28491950252510e+01 1.68699070834225e-01
7.30750000000000e-02 2.22013692426795e+01 1.66031733546855e-01
7.49250000000000e-02 2.15719107699455e+01 1.63354158404189e-01
7.67750000000000e-02 2.09602988527353e+01 1.60670730650551e-01
7.86250000000000e-02 2.03660275012851e+01 1.57985467714209e-01
8.04750000000000e-02 1.97886050717723e+01 1.55302048266368e-01
8.23250000000000e-02 1.92275538595764e+01 1.52623838646198e-01
8.41750000000000e-02 1.86824097040711e+01 1.49953916941176e-01
8.60250000000000e-02 1.81527216046223e+01 1.47295094973983e-01
8.78750000000000e-02 1.76380513474723e+01 1.44649938414931e-01
8.97250000000000e-02 1.71379731432036e+01 1.42020785211527e-01
9.15750000000000e-02 1.66520732744811e+01 1.39409762503238e-01
9.34250000000000e-02 1.61799497537813e+01 1.36818802169514e-01
9.52750000000000e-02 1.57212119908261e+01 1.34249655141778e-01
9.71250000000000e-02 1.52754804694454e+01 1.31703904595149e-01
9.89750000000000e-02 1.48423864336014e+01 1.29182978122730e-01
1.00825000000000e-01 1.44215715823145e+01 1.26688158984031e-01
1.02675000000000e-01 1.40126877732394e+01 1.24220596509291e-01
1.04525000000000e-01 1.36153967346450e+01 1.21781315732854e-01
1.06375000000000e-01 1.32293697855601e+01 1.19371226321234e-01
1.08225000000000e-01 1.28542875638545e+01 1.16991130854903e-01
1.10075000000000e-01 1.24898397620282e+01 1.14641732516964e-01
1.11925000000000e-01 1.21357248704932e+01 1.12323642236714e-01
1.13775000000000e-01 1.17916499281326e+01 1.10037385331544e-01
1.15625000000000e-01 1.14573302799324e+01 1.07783407686543e-01
1.17475000000000e-01 1.11324893414847e+01 1.05562081507549e-01
1.19325000000000e-01 1.08168583701684e+01 1.03373710680170e-01
1.21175000000000e-01 1.05101762428166e+01 1.01218535764410e-01
1.23025000000000e-01 1.02121892396884e+01 9.90967386519330e-02
1.24875000000000e-01 9.92265083456482e+00 9.70084469106962e-02
1.26725000000000e-01 9.64132149079663e+00 9.49537378395596e-02
1.28575000000000e-01 9.36796846313434e+00 9.29326422536413e-02
1.30425000000000e-01 9.10236560517685e+00 9.09451480194430e-02
1.32275000000000e-01 8.84429318227929e+00 8.89912033572490e-02
1.34125000000000e-01 8.59353768976545e+00 8.70707199269170e-02
1.35975000000000e-01 8.34989167629419e+00 8.51835757118961e-02
1.37825000000000e-01 8.11315357223387e+00 8.33296177151665e-02
1.39675000000000e-01 7.88312752290274e+00 8.15086644797616e-02
1.41525000000000e-01 7.65962322653731e+00 7.97205084455529e-02
1.43375000000000e-01 7.44245577685471e+00 7.79649181531177e-02
1.45225000000000e-01 7.23144551007874e+00 7.62416403047277e-02
1.47075000000000e-01 7.02641785630308e+00 7.45504016917588e-02
1.48925000000000e-01 6.82720319506870e+00 7.28909109971365e-02
1.50775000000000e-01 6.63363671503594e+00 7.12628604808460e-02
1.52625000000000e-01 6.44555827763524e+00 6.96659275559638e-02
1.54475000000000e-01 6.26281228458365e+00 6.80997762621408e-02
1.56325000000000e-01 6.08524754915752e+00 6.65640586429980e-02
1.58175000000000e-01 5.91271717111499e+00 6.50584160334549e-02
1.60025000000000e-01 5.74507841516458e+00 6.35824802626066e-02
1.61875000000000e-01 5.58219259287958e+00 6.21358747773885e-02
1.63725000000000e-01 5.42392494796034e+00 6.07182156919206e-02
1.65575000000000e-01 5.27014454474971e+00 5.93291127671006e-02
1.67425000000000e-01 5.12072415990927e+00 5.79681703247291e-02
1.69275000000000e-01 4.97554017716678e+00 5.66349881001576e-02
1.71125000000000e-01 4.83447248504779e+00 5.53291620372024e-02
1.72975000000000e-01 4.69740437750679e+00 5.40502850288398e-02
1.74825000000000e-01 4.56422245737569e+00 5.27979476069566e-02
1.76675000000000e-01 4.43481654254971e+00 5.15717385842407e-02
1.78525000000000e-01 4.30907957483320e+00 5.03712456511045e-02
1.80375000000000e-01 4.18690753136979e+00 4.91960559303394e-02
1.82225000000000e-01 4.06819933858371e+00 4.80457564920550e-02
1.84075000000000e-01 3.95285678856118e+00 4.69199348312896e-02
1.85925000000000e-01 3.84078445780236e+00 4.58181793105341e-02
1.87775000000000e-01 3.73188962827710e+00 4.47400795692813e-02
1.89625000000000e-01 3.62608221071874e+00 4.36852269025801e-02
1.91475000000000e-01 3.52327467009285e+00 4.26532146104585e-02
1.93325000000000e-01 3.42338195317898e+00 4.16436383199749e-02
1.95175000000000e-01 3.32632141820572e+00 4.06560962815392e-02
1.97025000000000e-01 3.23201276648070e+00 3.96901896410631e-02
1.98875000000000e-01 3.14037797595909e+00 3.87455226893996e-02
2.00725000000000e-01 3.05134123669551e+00 3.78217030904472e-02
2.02575000000000e-01 2.96482888812610e+00 3.69183420892174e-02
2.04425000000000e-01 2.88076935812874e+00 3.60350547010845e-02
2.06275000000000e-01 2.79909310381101e+00 3.51714598833726e-02
2.08125000000000e-01 2.71973255397707e+00 3.43271806903580e-02
2.09975000000000e-01 2.64262205322559e+00 3.35018444127172e-02
2.11825000000000e-01 2.56769780763271e+00 3.26950827023784e-02
2.13675000000000e-01 2.49489783197499e+00 3.19065316836838e-02
2.15525000000000e-01 2.42416189844871e+00 3.11358320517268e-02
2.17375000000000e-01 2.35543148684310e+00 3.03826291586634e-02
2.19225000000000e-01 2.28864973612622e+00 2.96465730887659e-02
2.21075000000000e-01 2.22376139740358e+00 2.89273187229350e-02
2.22925000000000e-01 2.16071278821043e+00 2.82245257933461e-02
2.24775000000000e-01 2.09945174809992e+00 2.75378589288720e-02
2.26625000000000e-01 2.03992759549057e+00 2.68669876918854e-02
2.28475000000000e-01 1.98209108573706e+00 2.62115866070068e-02
2.30325000000000e-01 1.92589437038991e+00 2.55713351823376e-02
2.32175000000000e-01 1.87129095761020e+00 2.49459179236824e-02
2.34025000000000e-01 1.81823567370663e+00 2.43350243422399e-02
2.35875000000000e-01 1.76668462576307e+00 2.37383489562099e-02
2.37725000000000e-01 1.71659516532575e+00 2.31555912867449e-02
2.39575000000000e-01 1.66792585311993e+00 2.25864558486436e-02
2.41425000000000e-01 1.62063642476701e+00 2.20306521361659e-02
2.43275000000000e-01 1.57468775747355e+00 2.14878946043253e-02
2.45125000000000e-01 1.53004183766484e+00 2.09579026459942e-02
2.46975000000000e-01 1.48666172953600e+00 2.04404005651393e-02
2.48825000000000e-01 1.44451154449485e+00 1.99351175464842e-02
2.50675000000000e-01 1.40355641147105e+00 1.94417876218821e-02
2.52525000000000e-01 1.36376244806711e+00 1.89601496336642e-02
2.54375000000000e-01 1.32509673252727e+00 1.84899471952093e-02
2.56225000000000e-01 1.28752727650119e+00 1.80309286489741e-02
2.58075000000000e-01 1.25102299857981e+00 1.75828470222049e-02
2.59925000000000e-01 1.21555369858153e+00 1.71454599805375e-02
2.61775000000000e-01 1.18109003256744e+00 1.67185297796813e-02
2.63625000000000e-01 1.14760348856491e+00 1.63018232153731e-02
2.65475000000000e-01 1.11506636297953e+00 1.58951115717756e-02
2.67325000000000e-01 1.08345173767575e+00 1.54981705684798e-02
2.69175000000000e-01 1.05273345770735e+00 1.51107803062679e-02
2.71025000000000e-01 1.02288610967935e+00 1.47327252117805e-02
2.72875000000000e-01 9.93885000723333e-01 1.43637939812198e-02
2.74725000000000e-01 9.65706138068956e-01 1.40037795232199e-02
2.76575000000000e-01 9.38326209194559e-01 1.36524789010019e-02
2.78425000000000e-01 9.11722562540617e-01 1.33096932739240e-02
2.80275000000000e-01 8.85873188769977e-01 1.29752278385321e-02
2.82125000000000e-01 8.60756702559423e-01 1.26488917692092e-02
2.83975000000000e-01 8.36352324907476e-01 1.23304981585144e-02
2.85825000000000e-01 8.12639865943828e-01 1.20198639572966e-02
2.87675000000000e-01 7.89599708226147e-01 1.17168099146653e-02
2.89525000000000e-01 7.67212790510467e-01 1.14211605178897e-02
2.91375000000000e-01 7.45460591981721e-01 1.11327439322984e-02
2.93225000000000e-01 7.24325116931372e-01 1.08513919412426e-02
2.95075000000000e-01 7.03788879869467e-01 1.05769398861860e-02
2.96925000000000e-01 6.83834891058802e-01 1.03092266069731e-02
2.98775000000000e-01 6.64446642459222e-01 1.00480943823323e-02
3.00625000000000e-01 6.45608094070429e-01 9.79338887065994e-03
3.02475000000000e-01 6.27303660662011e-01 9.54495905112925e-03
3.04325000000000e-01 6.09518198879693e-01 9.30265716516776e-03
3.06175000000000e-01 5.92236994717165e-01 9.06633865833944e-03
3.08025000000000e-01 5.75445751343101e-01 8.83586212266718e-03
3.09875000000000e-01 5.59130577273323e-01 8.61108923942829e-03
3.11725000000000e-01 5.43277974878296e-01 8.39188472245191e-03
3.13575000000000e-01 5.27874829216471e-01 8.17811626194615e-03
3.15425000000000e-01 5.12908397184225e-01 7.96965446887845e-03
3.17275000000000e-01 4.98366296973423e-01 7.76637281993244e-03
3.19125000000000e-01 4.84236497827883e-01 7.56814760306151e-03
3.20975000000000e-01 4.70507310090269e-01 7.37485786365708e-03
3.22825000000000e-01 4.57167375531175e-01 7.18638535134777e-03
3.24675000000000e-01 4.44205657952400e-01 7.00261446744426e-03
3.26525000000000e-01 4.31611434056649e-01 6.82343221304321e-03
3.28375000000000e-01 4.19374284576085e-01 6.64872813780090e-03
3.30225000000000e-01 4.07484085652420e-01 6.47839428938657e-03
3.32075000000000e-01 3.95931000461388e-01 6.31232516362451e-03
3.33925000000000e-01 3.84705471074696e-01 6.15041765533165e-03
3.35775000000000e-01 3.73798210552692e-01 5.99257100985680e-03
3.37625000000000e-01 3.63200195261234e-01 5.83868677532593e-03
3.39475000000000e-01 3.52902657406390e-01 5.68866875559818e-03
3.41325000000000e-01 3.42897077780797e-01 5.54242296393440e-03
3.43175000000000e-01 3.33175178715673e-01 5.39985757738060e-03
3.45025000000000e-01 3.23728917232660e-01 5.26088289186743e-03
3.46875000000000e-01 3.14550478389825e-01 5.12541127802497e-03
3.48725000000000e-01 3.05632268816318e-01 4.99335713771316e-03
3.50575000000000e-01 2.96966910430334e-01 4.86463686126590e-03
3.52425000000000e-01 2.88547234335191e-01 4.73916878544696e-03
3.54275000000000e-01 2.80366274888459e-01 4.61687315211530e-03
3.56125000000000e-01 2.72417263939253e-01 4.49767206759630e-03
3.57975000000000e-01 2.64693625228900e-01 4.38148946275536e-03
3.59825000000000e-01 2.57188968950370e-01 4.26825105376944e-03
3.61675000000000e-01 2.49897086461954e-01 4.15788430359191e-03
3.63525000000000e-01 2.42811945150821e-01 4.05031838410597e-03
3.65375000000000e-01 2.35927683442205e-01 3.94548413896073e-03
3.67225000000000e-01 2.29238605950095e-01 3.84331404708412e-03
3.69075000000000e-01 2.22739178765413e-01 3.74374218686660e-03
3.70925000000000e-01 2.16424024877779e-01 3.64670420100960e-03
3.72775000000000e-01 2.10287919727082e-01 3.55213726203099e-03
3.74625000000000e-01 2.04325786881178e-01 3.45998003842142e-03
3.76475000000000e-01 1.98532693836125e-01 3.37017266144422e-03
3.78325000000000e-01 1.92903847935502e-01 3.28265669257115e-03
3.80175000000000e-01 1.87434592405416e-01 3.19737509154654e-03
3.82025000000000e-01 1.82120402501929e-01 3.11427218507225e-03
3.83875000000000e-01 1.76956881767712e-01 3.03329363610561e-03
3.85725000000000e-01 1.71939758394837e-01 2.95438641376179e-03
3.87575000000000e-01 1.67064881690682e-01 2.87749876381324e-03
3.89425000000000e-01 1.62328218644046e-01 2.80258017977753e-03
3.91275000000000e-01 1.57725850588616e-01 2.72958137458542e-03
3.93125000000000e-01 1.53253969961032e-01 2.65845425282109e-03
3.94975000000000e-01 1.48908877150870e-01 2.58915188352549e-03
3.96825000000000e-01 1.44686977439940e-01 2.52162847355512e-03
3.98675000000000e-01 1.40584778028348e-01 2.45583934148747e-03
4.00525000000000e-01 1.36598885144892e-01 2.39174089206453e-03
4.02375000000000e-01 1.32726001239372e-01 2.32929059116611e-03
4.04225000000000e-01 1.28962922254513e-01 2.26844694130437e-03
4.06075000000000e-01 1.25306534975228e-01 2.20916945763129e-03
4.07925000000000e-01 1.21753814453041e-01 2.15141864445033e-03
4.09775000000000e-01 1.18301821503533e-01 2.09515597222418e-03
4.11625000000000e-01 1.14947700274735e-01 2.04034385507004e-03
4.13475000000000e-01 1.11688675884467e-01 1.98694562873417e-03
4.15325000000000e-01 1.08522052124669e-01 1.93492552903748e-03
4.17175000000000e-01 1.05445209230806e-01 1.88424867078363e-03
4.19025000000000e-01 1.02455601714529e-01 1.83488102712186e-03
4.20875000000000e-01 9.95507562577773e-02 1.78678940935630e-03
4.22725000000000e-01 9.67282696665865e-02 1.73994144719345e-03
4.24575000000000e-01 9.39858068829178e-02 1.69430556942016e-03
4.26425000000000e-01 9.13210990528499e-02 1.64985098500419e-03
4.28275000000000e-01 8.87319416495445e-02 1.60654766460927e-03
4.30125000000000e-01 8.62161926494300e-02 1.56436632251720e-03
4.31975000000000e-01 8.37717707600933e-02 1.52327839894908e-03
4.33825000000000e-01 8.13966536984166e-02 1.48325604277826e-03
4.35675000000000e-01 7.90888765175312e-02 1.44427209462752e-03
4.37525000000000e-01 7.68465299812072e-02 1.40630007034293e-03
4.39375000000000e-01 7.46677589843314e-02 1.36931414483716e-03
4.41225000000000e-01 7.25507610181700e-02 1.33328913629503e-03
4.43075000000000e-01 7.04937846791432e-02 1.29820049073424e-03
4.44925000000000e-01 6.84951282198798e-02 1.26402426691412e-03
4.46775000000000e-01 6.65531381413524e-02 1.23073712158553e-03
4.48625000000000e-01 6.46662078249294e-02 1.19831629507508e-03
4.50475000000000e-01 6.28327762032108e-02 1.16673959719692e-03
4.52325000000000e-01 6.10513264685484e-02 1.13598539348550e-03
4.54175000000000e-01 5.93203848181838e-02 1.10603259174272e-03
4.56025000000000e-01 5.76385192349626e-02 1.07686062889306e-03
4.57875000000000e-01 5.60043383026197e-02 1.04844945814025e-03
4.59725000000000e-01 5.44164900546533e-02 1.02077953641946e-03
4.61575000000000e-01 5.28736608558351e-02 9.93831812138673e-04
4.63425000000000e-01 5.13745743154343e-02 9.67587713203172e-04
4.65275000000000e-01 4.99179902312514e-02 9.42029135317483e-04
4.67125000000000e-01 4.85027035635934e-02 9.17138430558604e-04
4.68975000000000e-01 4.71275434383377e-02 8.92898396214940e-04
4.70825000000000e-01 4.57913721782618e-02 8.69292263885293e-04
4.72675000000000e-01 4.44930843618368e-02 8.46303688832336e-04
4.74525000000000e-01 4.32316059087066e-02 8.23916739585103e-04
4.76375000000000e-01 4.20058931910954e-02 8.02115887785163e-04
4.78225000000000e-01 4.08149321704091e-02 7.80885998271222e-04
4.80075000000000e-01 3.96577375583154e-02 7.60212319396996e-04
4.81925000000000e-01 3.85333520016104e-02 7.40080473577240e-04
4.83775000000000e-01 3.74408452901942e-02 7.20476448057012e-04
4.85625000000000e-01 3.63793135875039e-02 7.01386585899207e-04
4.87475000000000e-01 3.53478786827647e-02 6.82797577185651e-04
4.89325000000000e-01 3.43456872644414e-02 6.64696450427031e-04
4.91175000000000e-01 3.33719102142892e-02 6.47070564176987e-04
4.93025000000000e-01 3.24257419214200e-02 6.29907598845890e-04
4.94875000000000e-01 3.15063996158162e-02 6.13195548709874e-04
4.96725000000000e-01 3.06131227207409e-02 5.96922714110733e-04
4.98575000000000e-01 2.97451722235088e-02 5.81077693842425e-04
5.00425000000000e-01 2.89018300640969e-02 5.65649377719991e-04
5.02275000000000e-01 2.80823985410901e-02 5.50626939326811e-04
5.04125000000000e-01 2.72861997344687e-02 5.35999828936153e-04
5.05975000000000e-01 2.65125749447617e-02 5.21757766603061e-04
5.07825000000000e-01 2.57608841481015e-02 5.07890735422752e-04
5.09675000000000e-01 2.50305054667285e-02 4.94388974951697e-04
5.11525000000000e-01 2.43208346545085e-02 4.81242974787731e-04
5.13375000000000e-01 2.36312845970366e-02 4.68443468305520e-04
5.15225000000000e-01 2.29612848259144e-02 4.55981426543826e-04
5.17075000000000e-01 2.23102810467986e-02 4.43848052241110e-04
5.18925000000000e-01 2.16777346808299e-02 4.32034774016043e-04
5.20775000000000e-01 2.10631224190646e-02 4.20533240689589e-04
5.22625000000000e-01 2.04659357895379e-02 4.09335315745393e-04
5.24475000000000e-01 1.98856807366022e-02 3.98433071925271e-04
5.26325000000000e-01 1.93218772121927e-02 3.87818785956661e-04
5.28175000000000e-01 1.87740587786809e-02 3.77484933408974e-04
5.30025000000000e-01 1.82417722229882e-02 3.67424183675828e-04
5.31875000000000e-01 1.77245771816404e-02 3.57629395080256e-04
5.33725000000000e-01 1.72220457764528e-02 3.48093610099970e-04
5.35575000000000e-01 1.67337622605442e-02 3.38810050709911e-04
5.37425000000000e-01 1.62593226743871e-02 3.29772113839300e-04
5.39275000000000e-01 1.57983345116104e-02 3.20973366940507e-04
5.41125000000000e-01 1.53504163942763e-02 3.12407543667112e-04
5.42975000000000e-01 1.49151977573645e-02 3.04068539658565e-04
5.44825000000000e-01 1.44923185422020e-02 2.95950408428935e-04
5.46675000000000e-01 1.40814288985843e-02 2.88047357357271e-04
5.48525000000000e-01 1.36821888953427e-02 2.80353743777188e-04
5.50375000000000e-01 1.32942682391173e-02 2.72864071163291e-04
5.52225000000000e-01 1.29173460011039e-02 2.65572985412149e-04
5.54075000000000e-01 1.25511103515476e-02 2.58475271215563e-04
5.55925000000000e-01 1.21952583017644e-02 2.51565848523925e-04
5.57775000000000e-01 1.18494954534771e-02 2.44839769097497e-04
5.59625000000000e-01 1.15135357552583e-02 2.38292213143528e-04
5.61475000000000e-01 1.11871012658781e-02 2.31918486037151e-04
5.63325000000000e-01 1.08699219243624e-02 2.25714015124005e-04
5.65175000000000e-01 1.05617353265694e-02 2.19674346602670e-04
5.67025000000000e-01 1.02622865081018e-02 2.13795142484962e-04
5.68875000000000e-01 9.97132773337308e-03 2.08072177632221e-04
5.70725000000000e-01 9.68861829065483e-03 2.02501336865748e-04
5.72575000000000e-01 9.41392429293440e-03 1.97078612149590e-04
5.74425000000000e-01 9.14701848441907e-03 1.91800099843956e-04
5.76275000000000e-01 8.88768005252613e-03 1.86661998027508e-04
5.78125000000000e-01 8.63569444520343e-03 1.81660603886876e-04
5.79975000000000e-01 8.39085319342937e-03 1.76792311171759e-04
5.81825000000000e-01 8.15295373874537e-03 1.72053607714020e-04
5.83675000000000e-01 7.92179926567816e-03 1.67441073009200e-04
