Energy (eV)          EEDF (eV^-(3/2))     First Anisotropy
1.73333333333333e-04 2.14534209805042e+02 5.52863935584276e-02
5.20000000000000e-04 2.12079706604457e+02 9.10774860272454e-02
8.66666666666667e-04 2.09653285573838e+02 1.19661569301918e-01
1.21333333333333e-03 2.07254625421881e+02 1.41032730798383e-01
1.56000000000000e-03 2.04883408533235e+02 1.58573815399981e-01
1.90666666666667e-03 2.02539320929845e+02 1.73572649573332e-01
2.25333333333333e-03 2.00222052221262e+02 1.86700046697211e-01
2.60000000000000e-03 1.97931295570403e+02 1.98363672156995e-01
2.94666666666667e-03 1.95666747652022e+02 2.08835589262160e-01
3.29333333333333e-03 1.93428108608695e+02 2.18309273866407e-01
3.64000000000000e-03 1.91215082014919e+02 2.26928819426239e-01
3.98666666666667e-03 1.89027374837495e+02 2.34805386424765e-01
4.33333333333333e-03 1.86864697394107e+02 2.42027145152151e-01
4.68000000000000e-03 1.84726763317564e+02 2.48665622369125e-01
5.02666666666667e-03 1.82613289517680e+02 2.54779932162847e-01
5.37333333333333e-03 1.80523996141829e+02 2.60419700341772e-01
5.72000000000000e-03 1.78458606539840e+02 2.65627146734819e-01
6.06666666666667e-03 1.76416847227232e+02 2.70438605112460e-01
6.41333333333333e-03 1.74398447847463e+02 2.74885658318627e-01
6.76000000000000e-03 1.72403141137663e+02 2.78996001890274e-01
7.10666666666667e-03 1.70430662893158e+02 2.82794111411816e-01
7.45333333333333e-03 1.68480751931230e+02 2.86301767012263e-01
7.80000000000000e-03 1.66553150057784e+02 2.89538470662350e-01
8.14666666666667e-03 1.64647602033094e+02 2.92521781473957e-01
8.49333333333333e-03 1.62763855536956e+02 2.95267589051307e-01
8.84000000000000e-03 1.60901661136329e+02 2.97790338124873e-01
9.18666666666667e-03 1.59060772252250e+02 3.00103214198453e-01
9.53333333333333e-03 1.57240945126296e+02 3.02218299187168e-01
9.88000000000000e-03 1.55441938789197e+02 3.04146702653974e-01
1.02266666666667e-02 1.53663515029618e+02 3.05898671805900e-01
1.05733333333333e-02 1.51905438358917e+02 3.07483686943868e-01
1.09200000000000e-02 1.50167475984442e+02 3.08910543704980e-01
1.12666666666667e-02 1.48449397779176e+02 3.10187420715651e-01
1.16133333333333e-02 1.46750976244534e+02 3.11321941759038e-01
1.19600000000000e-02 1.45071986486988e+02 3.12321230365630e-01
1.23066666666667e-02 1.43412206188008e+02 3.13191953326882e-01
1.26533333333333e-02 1.41771415568685e+02 3.13940362928003e-01
1.30000000000000e-02 1.40149397366585e+02 3.14572334435605e-01
1.33466666666667e-02 1.38545936806743e+02 3.15093395350125e-01
1.36933333333333e-02 1.36960821567949e+02 3.15508755126157e-01
1.40400000000000e-02 1.35393841759922e+02 3.15823331858325e-01
1.43866666666667e-02 1.33844789895325e+02 3.16041772483499e-01
1.47333333333333e-02 1.32313460857561e+02 3.16168474385375e-01
1.50800000000000e-02 1.30799651878357e+02 3.16207604984851e-01
1.54266666666667e-02 1.29303162510735e+02 3.16163115994320e-01
1.57733333333333e-02 1.27823794598228e+02 3.16038759568795e-01
1.61200000000000e-02 1.26361352252902e+02 3.15838103075958e-01
1.64666666666667e-02 1.24915641829267e+02 3.15564539324339e-01
1.68133333333333e-02 1.23486471894795e+02 3.15221298936364e-01
1.71600000000000e-02 1.22073653208431e+02 3.14811461746766e-01
1.75066666666667e-02 1.20676998695392e+02 3.14337964236393e-01
1.78533333333333e-02 1.19296323418925e+02 3.13803609216943e-01
1.82000000000000e-02 1.17931444559307e+02 3.13211074809936e-01
1.85466666666667e-02 1.16582181389521e+02 3.12562919899074e-01
1.88933333333333e-02 1.15248355248158e+02 3.11861591856451e-01
1.92400000000000e-02 1.13929789518942e+02 3.11109433745581e-01
1.95866666666667e-02 1.12626309607237e+02 3.10308688342642e-01
1.99333333333333e-02 1.11337742914035e+02 3.09461504405471e-01
2.02800000000000e-02 1.10063918816011e+02 3.08569942546383e-01
2.06266666666667e-02 1.08804668642832e+02 3.07635978203334e-01
2.09733333333333e-02 1.07559825652177e+02 3.06661506804042e-01
2.13200000000000e-02 1.06329225010315e+02 3.05648348624053e-01
2.16666666666667e-02 1.05112703770203e+02 3.04598250976960e-01
2.20133333333333e-02 1.03910100847467e+02 3.03512892526333e-01
2.23600000000000e-02 1.02721257001522e+02 3.02393887356842e-01
2.27066666666667e-02 1.01546014814415e+02 3.01242786576903e-01
2.30533333333333e-02 1.00384218667728e+02 3.00061081963042e-01
2.34000000000000e-02 9.92357147242369e+01 2.98850209411521e-01
2.37466666666667e-02 9.81003509074662e+01 2.97611550094499e-01
2.40933333333333e-02 9.69779768794830e+01 2.96346433574007e-01
2.44400000000000e-02 9.58684440230728e+01 2.95056140759156e-01
2.47866666666667e-02 9.47716054219979e+01 2.93741904720274e-01
2.51333333333333e-02 9.36873158396268e+01 2.92404913375957e-01
2.54800000000000e-02 9.26154317016304e+01 2.91046312050640e-01
2.58266666666667e-02 9.15558110769138e+01 2.89667204025017e-01
2.61733333333333e-02 9.05083136570463e+01 2.88268652875301e-01
2.65200000000000e-02 8.94728007394692e+01 2.86851684704026e-01
2.68666666666667e-02 8.84491352090768e+01 2.85417288486072e-01
2.72133333333333e-02 8.74371815184130e+01 2.83966418121446e-01
2.75600000000000e-02 8.64368056713797e+01 2.82499994396045e-01
2.79066666666667e-02 8.54478752054471e+01 2.81018905168659e-01
2.82533333333333e-02 8.44702591725810e+01 2.79524007185374e-01
2.86000000000000e-02 8.35038281234448e+01 2.78016127814943e-01
2.89466666666667e-02 8.25484540902149e+01 2.76496065111837e-01
2.92933333333333e-02 8.16040105682096e+01 2.74964589430395e-01
2.96400000000000e-02 8.06703725005726e+01 2.73422444970354e-01
2.99866666666667e-02 7.97474162616739e+01 2.71870349743244e-01
3.03333333333333e-02 7.88350196394102e+01 2.70308997016814e-01
3.06800000000000e-02 7.79330618203600e+01 2.68739056699295e-01
3.10266666666667e-02 7.70414233737488e+01 2.67161175230511e-01
3.13733333333333e-02 7.61599862343944e+01 2.65575976881330e-01
3.17200000000000e-02 7.52886336883214e+01 2.63984064999872e-01
3.20666666666667e-02 7.44272503572725e+01 2.62386021844179e-01
3.24133333333333e-02 7.35757221822716e+01 2.60782409756895e-01
3.27600000000000e-02 7.27339364096868e+01 2.59173772292371e-01
3.31066666666667e-02 7.19017815762690e+01 2.57560634004279e-01
3.34533333333333e-02 7.10791474933081e+01 2.55943501512153e-01
3.38000000000000e-02 7.02659252331334e+01 2.54322864525066e-01
3.41466666666667e-02 6.94620071146609e+01 2.52699195594887e-01
3.44933333333333e-02 6.86672866881193e+01 2.51072951088418e-01
3.48400000000000e-02 6.78816587219764e+01 2.49444572120730e-01
3.51866666666667e-02 6.71050191889776e+01 2.47814484282556e-01
3.55333333333333e-02 6.63372652514198e+01 2.46183098529573e-01
3.58800000000000e-02 6.55782952484916e+01 2.44550812036358e-01
3.62266666666667e-02 6.48280086827871e+01 2.42918007904734e-01
3.65733333333333e-02 6.40863062061054e+01 2.41285055979939e-01
3.69200000000000e-02 6.33530896071942e+01 2.39652313634415e-01
3.72666666666667e-02 6.26282617987218e+01 2.38020125462600e-01
3.76133333333333e-02 6.19117268035830e+01 2.36388824032230e-01
3.79600000000000e-02 6.12033897430340e+01 2.34758730605826e-01
3.83066666666667e-02 6.05031568241072e+01 2.33130154826365e-01
3.86533333333333e-02 5.98109353264043e+01 2.31503395410738e-01
3.90000000000000e-02 5.91266335906111e+01 2.29878740815622e-01
3.93466666666667e-02 5.84501610063404e+01 2.28256468917632e-01
3.96933333333333e-02 5.77814279993931e+01 2.26636847654983e-01
4.00400000000000e-02 5.71203460206431e+01 2.25020135643509e-01
4.03866666666667e-02 5.64668275342925e+01 2.23406581854153e-01
4.07333333333333e-02 5.58207860055842e+01 2.21796426208061e-01
4.10800000000000e-02 5.51821358900449e+01 2.20189900147744e-01
4.14266666666667e-02 5.45507926221395e+01 2.18587226314238e-01
4.17733333333333e-02 5.39266726034178e+01 2.16988619100117e-01
4.21200000000000e-02 5.33096931921053e+01 2.15394285180178e-01
4.24666666666667e-02 5.26997726921432e+01 2.13804423190103e-01
4.28133333333333e-02 5.20968303417529e+01 2.12219224241372e-01
4.31600000000000e-02 5.15007863033640e+01 2.10638872415244e-01
4.35066666666667e-02 5.09115616530274e+01 2.09063544444415e-01
4.38533333333333e-02 5.03290783693813e+01 2.07493410193280e-01
4.42000000000000e-02 4.97532593239076e+01 2.05928633118549e-01
4.45466666666667e-02 4.91840282707033e+01 2.04369369955097e-01
4.48933333333333e-02 4.86213098358358e+01 2.02815771164635e-01
4.52400000000000e-02 4.80650295079147e+01 2.01267981365862e-01
4.55866666666667e-02 4.75151136282127e+01 1.99726139025447e-01
4.59333333333333e-02 4.69714893803925e+01 1.98190376877820e-01
4.62800000000000e-02 4.64340847813880e+01 1.96660822327470e-01
4.66266666666667e-02 4.59028286718589e+01 1.95137597145789e-01
4.69733333333333e-02 4.53776507062791e+01 1.93620817864363e-01
4.73200000000000e-02 4.48584813441148e+01 1.92110596151731e-01
4.76666666666667e-02 4.43452518406044e+01 1.90607038516655e-01
4.80133333333333e-02 4.38378942371927e+01 1.89110246677042e-01
4.83600000000000e-02 4.33363413529984e+01 1.87620317913238e-01
4.87066666666667e-02 4.28405267759068e+01 1.86137344778140e-01
4.90533333333333e-02 4.23503848533387e+01 1.84661415443674e-01
4.94000000000000e-02 4.18658506839975e+01 1.83192614032451e-01
4.97466666666667e-02 4.13868601092642e+01 1.81731020335023e-01
5.00933333333333e-02 4.09133497042890e+01 1.80276710135653e-01
5.04400000000000e-02 4.04452567700088e+01 1.78829755523997e-01
5.07866666666667e-02 3.99825193248351e+01 1.77390224619730e-01
5.11333333333333e-02 3.95250760960555e+01 1.75958181879123e-01
5.14800000000000e-02 3.90728665121143e+01 1.74533688388239e-01
5.18266666666667e-02 3.86258306945825e+01 1.73116801595082e-01
5.21733333333333e-02 3.81839094498587e+01 1.71707575598400e-01
5.25200000000000e-02 3.77470442617039e+01 1.70306061423734e-01
5.28666666666667e-02 3.73151772834842e+01 1.68912306763144e-01
5.32133333333333e-02 3.68882513301604e+01 1.67526356247507e-01
5.35600000000000e-02 3.64662098710691e+01 1.66148251706674e-01
5.39066666666667e-02 3.60489970224290e+01 1.64778031916780e-01
5.42533333333333e-02 3.56365575396082e+01 1.63415732857185e-01
5.46000000000000e-02 3.52288368101443e+01 1.62061387955829e-01
5.49466666666667e-02 3.48257808465048e+01 1.60715027844142e-01
5.52933333333333e-02 3.44273362786233e+01 1.59376680599648e-01
5.56400000000000e-02 3.40334503471498e+01 1.58046371977572e-01
5.59866666666667e-02 3.36440708964573e+01 1.56724125173239e-01
5.63333333333333e-02 3.32591463674368e+01 1.55409961051344e-01
5.66800000000000e-02 3.28786257909708e+01 1.54103898364709e-01
5.70266666666667e-02 3.25024587811776e+01 1.52805953524116e-01
5.73733333333333e-02 3.21305955284560e+01 1.51516140815094e-01
5.77200000000000e-02 3.17629867931749e+01 1.50234472604677e-01
5.80666666666667e-02 3.13995838991468e+01 1.48960959118568e-01
5.84133333333333e-02 3.10403387269137e+01 1.47695608646251e-01
5.87600000000000e-02 3.06852037076460e+01 1.46438427736527e-01
5.91066666666667e-02 3.03341318168371e+01 1.45189420981875e-01
5.94533333333333e-02 2.99870765678223e+01 1.43948591212640e-01
5.98000000000000e-02 2.96439920058794e+01 1.42715939682055e-01
6.01466666666667e-02 2.93048327021382e+01 1.41491465857669e-01
6.04933333333333e-02 2.89695537473229e+01 1.40275167605277e-01
6.08400000000000e-02 2.86381107460491e+01 1.39067041364103e-01
6.11866666666667e-02 2.83104598109396e+01 1.37867081945123e-01
6.15333333333333e-02 2.79865575565834e+01 1.36675282705377e-01
6.18800000000000e-02 2.76663610940224e+01 1.35491635713927e-01
6.22266666666667e-02 2.73498280250665e+01 1.34316131556903e-01
6.25733333333333e-02 2.70369164364618e+01 1.33148759502793e-01
6.29200000000000e-02 2.67275848945599e+01 1.31989507659728e-01
6.32666666666667e-02 2.64217924398272e+01 1.30838362787099e-01
6.36133333333333e-02 2.61194985812130e+01 1.29695310452340e-01
6.39600000000000e-02 2.58206632909976e+01 1.28560335180061e-01
6.43066666666667e-02 2.55252469994868e+01 1.27433420270072e-01
6.46533333333333e-02 2.52332105895753e+01 1.26314547946180e-01
6.50000000000000e-02 2.49445153917656e+01 1.25203699497637e-01
6.53466666666667e-02 2.46591231790431e+01 1.24100855103391e-01
6.56933333333333e-02 2.43769961616271e+01 1.23005993973353e-01
6.60400000000000e-02 2.40980969821550e+01 1.21919094482630e-01
6.63866666666667e-02 2.38223887107322e+01 1.20840134001818e-01
6.67333333333333e-02 2.35498348398631e+01 1.19769089031174e-01
6.70800000000000e-02 2.32803992797972e+01 1.18705935328037e-01
6.74266666666667e-02 2.30140463537455e+01 1.17650647743005e-01
6.77733333333333e-02 2.27507407929876e+01 1.16603200347398e-01
6.81200000000000e-02 2.24904477323717e+01 1.15563566554285e-01
6.84666666666667e-02 2.22331327056946e+01 1.14531718960335e-01
6.88133333333333e-02 2.19787616409763e+01 1.13507629466966e-01
6.91600000000000e-02 2.17273008561110e+01 1.12491269395327e-01
6.95066666666667e-02 2.14787170544034e+01 1.11482609333657e-01
6.98533333333333e-02 2.12329773200064e+01 1.10481619252473e-01
7.02000000000000e-02 2.09900491137168e+01 1.09488268613836e-01
7.05466666666667e-02 2.07499002686634e+01 1.08502526224065e-01
7.08933333333333e-02 2.05124989859019e+01 1.07524360343273e-01
7.12400000000000e-02 2.02778138303509e+01 1.06553738789236e-01
7.15866666666667e-02 2.00458137266261e+01 1.05590628795289e-01
7.19333333333333e-02 1.98164679547872e+01 1.04634997114527e-01
7.22800000000000e-02 1.95897461464091e+01 1.03686810118571e-01
7.26266666666667e-02 1.93656182805585e+01 1.02746033660466e-01
7.29733333333333e-02 1.91440546796858e+01 1.01812633173850e-01
7.33200000000000e-02 1.89250260058290e+01 1.00886573766881e-01
7.36666666666667e-02 1.87085032567256e+01 9.99678200899927e-02
7.40133333333333e-02 1.84944577618467e+01 9.90563364302725e-02
7.43600000000000e-02 1.82828611787273e+01 9.81520868008459e-02
7.47066666666667e-02 1.80736854892102e+01 9.72550348132898e-02
7.50533333333333e-02 1.78669029956170e+01 9.63651437674964e-02
7.54000000000000e-02 1.76624863172001e+01 9.54823767367385e-02
7.57466666666667e-02 1.74604083865157e+01 9.46066964446114e-02
7.60933333333333e-02 1.72606424457243e+01 9.37380653506164e-02
7.64400000000000e-02 1.70631620431633e+01 9.28764457311148e-02
7.67866666666667e-02 1.68679410298419e+01 9.20217995606556e-02
7.71333333333333e-02 1.66749535558695e+01 9.11740885934901e-02
7.74800000000000e-02 1.64841740671424e+01 9.03332744406550e-02
7.78266666666667e-02 1.62955773019581e+01 8.94993184555292e-02
7.81733333333333e-02 1.61091382875660e+01 8.86721818114838e-02
7.85200000000000e-02 1.59248323369656e+01 8.78518255752911e-02
7.88666666666667e-02 1.57426350456349e+01 8.70382105967623e-02
7.92133333333333e-02 1.55625222882004e+01 8.62312975827506e-02
7.95600000000000e-02 1.53844702153420e+01 8.54310471670634e-02
7.99066666666667e-02 1.52084552506325e+01 8.46374198040439e-02
8.02533333333333e-02 1.50344540873222e+01 8.38503758391026e-02
8.06000000000000e-02 1.48624436853470e+01 8.30698755753236e-02
8.09466666666667e-02 1.46924012682760e+01 8.22958791708529e-02
8.12933333333333e-02 1.45243043202052e+01 8.15283467061334e-02
8.16400000000000e-02 1.43581305828672e+01 8.07672382473700e-02
8.19866666666667e-02 1.41938580526815e+01 8.00125137475921e-02
8.23333333333333e-02 1.40314649777553e+01 7.92641331107572e-02
8.26800000000000e-02 1.38709298550896e+01 7.85220562522389e-02
8.30266666666667e-02 1.37122314277299e+01 7.77862430034309e-02
8.33733333333333e-02 1.35553486818701e+01 7.70566531728766e-02
8.37200000000000e-02 1.34002608441518e+01 7.63332466039301e-02
8.40666666666667e-02 1.32469473789124e+01 7.56159830827770e-02
8.44133333333333e-02 1.30953879853871e+01 7.49048223967392e-02
8.47600000000000e-02 1.29455625951004e+01 7.41997243892451e-02
8.51066666666667e-02 1.27974513692061e+01 7.35006488711528e-02
8.54533333333333e-02 1.26510346957864e+01 7.28075556763678e-02
8.58000000000000e-02 1.25062931873301e+01 7.21204047142546e-02
8.61466666666667e-02 1.23632076781633e+01 7.14391558841461e-02
8.64933333333333e-02 1.22217592218411e+01 7.07637691284074e-02
8.68400000000000e-02 1.20819290887100e+01 7.00942044824183e-02
8.71866666666667e-02 1.19436987634265e+01 6.94304219921477e-02
8.75333333333333e-02 1.18070499424374e+01 6.87723817647877e-02
8.78800000000000e-02 1.16719645316248e+01 6.81200440164330e-02
8.82266666666667e-02 1.15384246439082e+01 6.74733689926131e-02
8.85733333333333e-02 1.14064125968120e+01 6.68323170166155e-02
8.89200000000000e-02 1.12759109101883e+01 6.61968485349657e-02
8.92666666666667e-02 1.11469023039019e+01 6.55669240408161e-02
8.96133333333333e-02 1.10193696954797e+01 6.49425041200686e-02
8.99600000000000e-02 1.08932961979113e+01 6.43235494947645e-02
9.03066666666667e-02 1.07686651174113e+01 6.37100209492294e-02
9.06533333333333e-02 1.06454599511502e+01 6.31018793741002e-02
9.10000000000000e-02 1.05236643851283e+01 6.24990858077278e-02
9.13466666666667e-02 1.04032622920144e+01 6.19016013649740e-02
9.16933333333333e-02 1.02842377289538e+01 6.13093872792447e-02
9.20400000000000e-02 1.01665749355143e+01 6.07224049420032e-02
9.23866666666667e-02 1.00502583315977e+01 6.01406158341231e-02
9.27333333333333e-02 9.93527251532326e+00 5.95639815660221e-02
9.30800000000000e-02 9.82160226104238e+00 5.89924639153820e-02
9.34266666666667e-02 9.70923251732133e+00 5.84260247609626e-02
9.37733333333333e-02 9.59814840489684e+00 5.78646261209259e-02
9.41200000000000e-02 9.48833521475767e+00 5.73082301888436e-02
9.44666666666667e-02 9.37977840619585e+00 5.67567992698869e-02
9.48133333333333e-02 9.27246360483211e+00 5.62102958174326e-02
9.51600000000000e-02 9.16637660076203e+00 5.56686824674305e-02
9.55066666666667e-02 9.06150334667343e+00 5.51319219768945e-02
9.58533333333333e-02 8.95782995593929e+00 5.45999772588631e-02
9.62000000000000e-02 8.85534270082631e+00 5.40728114152078e-02
9.65466666666667e-02 8.75402801067615e+00 5.35503876773396e-02
9.68933333333333e-02 8.65387247006361e+00 5.30326694396002e-02
9.72400000000000e-02 8.55486281706543e+00 5.25196202905916e-02
9.75866666666667e-02 8.45698594150333e+00 5.20112039560118e-02
9.79333333333333e-02 8.36022888316505e+00 5.15073843305555e-02
9.82800000000000e-02 8.26457883013152e+00 5.10081255078341e-02
9.86266666666667e-02 8.17002311707944e+00 5.05133917252576e-02
9.89733333333333e-02 8.07654922356322e+00 5.00231473945187e-02
9.93200000000000e-02 7.98414477239837e+00 4.95373571301646e-02
9.96666666666667e-02 7.89279752802179e+00 4.90559856964611e-02
1.00013333333333e-01 7.80249539483233e+00 4.85789980103199e-02
1.00360000000000e-01 7.71322641559089e+00 4.81063592993025e-02
1.00706666666667e-01 7.62497877002501e+00 4.76380348151168e-02
1.01053333333333e-01 7.53774077284936e+00 4.71739899689147e-02
1.01400000000000e-01 7.45150087259626e+00 4.67141906078549e-02
1.01746666666667e-01 7.36624765007803e+00 4.62586025113394e-02
1.02093333333333e-01 7.28196981651620e+00 4.58071916477133e-02
1.02440000000000e-01 7.19865621240800e+00 4.53599244145978e-02
1.02786666666667e-01 7.11629580604095e+00 4.49167671545653e-02
1.03133333333333e-01 7.03487769168907e+00 4.44776864017357e-02
1.03480000000000e-01 6.95439108851435e+00 4.40426491126141e-02
1.03826666666667e-01 6.87482533913173e+00 4.36116222004309e-02
1.04173333333333e-01 6.79616990786994e+00 4.31845727720441e-02
1.04520000000000e-01 6.71841437970682e+00 4.27614683496747e-02
1.04866666666667e-01 6.64154845888312e+00 4.23422764231642e-02
1.05213333333333e-01 6.56556196722551e+00 4.19269646775837e-02
1.05560000000000e-01 6.49044484311478e+00 4.15155012062309e-02
1.05906666666667e-01 6.41618714014687e+00 4.11078540801008e-02
1.06253333333333e-01 6.34277902551565e+00 4.07039915665719e-02
1.06600000000000e-01 6.27021077901324e+00 4.03038823340249e-02
1.06946666666667e-01 6.19847279173644e+00 3.99074950378507e-02
1.07293333333333e-01 6.12755556452728e+00 3.95147985305696e-02
1.07640000000000e-01 6.05744970700440e+00 3.91257620584109e-02
1.07986666666667e-01 5.98814593631343e+00 3.87403548631986e-02
1.08333333333333e-01 5.91963507562315e+00 3.83585463842608e-02
1.08680000000000e-01 5.85190805318703e+00 3.79803064472948e-02
1.09026666666667e-01 5.78495590113607e+00 3.76056048815046e-02
1.09373333333333e-01 5.71876975402855e+00 3.72344117136216e-02
