Energy (eV)          EEDF (eV^-(3/2))     First Anisotropy
1.00862068965517e-02 1.81253376199792e-01 8.92411752848132e-05
3.02586206896552e-02 1.80173993424475e-01 1.47419360740027e-04
5.04310344827586e-02 1.79101038486199e-01 1.94760833178521e-04
7.06034482758621e-02 1.78034473106678e-01 2.30818325330825e-04
9.07758620689655e-02 1.76974259235359e-01 2.60966816019508e-04
1.10948275862069e-01 1.75920359048330e-01 2.87235784745715e-04
1.31120689655172e-01 1.74872734944974e-01 3.10674150547457e-04
1.51293103448276e-01 1.73831349551204e-01 3.31914536040171e-04
1.71465517241379e-01 1.72796165721826e-01 3.51375992429863e-04
1.91637931034483e-01 1.71767146518917e-01 3.69354333970216e-04
2.11810344827586e-01 1.70744255231683e-01 3.86068269411879e-04
2.31982758620690e-01 1.69727455367867e-01 4.01685311605596e-04
2.52155172413793e-01 1.68716710652589e-01 4.16337389145529e-04
2.72327586206897e-01 1.67711985030835e-01 4.30130783923945e-04
2.92500000000000e-01 1.66713242654264e-01 4.43152736128063e-04
3.12672413793103e-01 1.65720447892099e-01 4.55475994931325e-04
3.32844827586207e-01 1.64733565325739e-01 4.67162050545244e-04
3.53017241379310e-01 1.63752559750370e-01 4.78263487534941e-04
3.73189655172414e-01 1.62777396164995e-01 4.88825734989112e-04
3.93362068965517e-01 1.61808039780022e-01 4.98888393751903e-04
4.13534482758621e-01 1.60844456013001e-01 5.08486261529152e-04
4.33706896551724e-01 1.59886610487430e-01 5.17650133734223e-04
4.53879310344828e-01 1.58934469033667e-01 5.26407439960895e-04
4.74051724137931e-01 1.57987997681198e-01 5.34782753428213e-04
4.94224137931034e-01 1.57047162664020e-01 5.42798204060376e-04
5.14396551724138e-01 1.56111930417185e-01 5.50473818143682e-04
5.34568965517241e-01 1.55182267575641e-01 5.57827797678811e-04
5.54741379310345e-01 1.54258140974720e-01 5.64876754293088e-04
5.74913793103448e-01 1.53339517643818e-01 5.71635904368696e-04
5.95086206896552e-01 1.52426364810414e-01 5.78119233835823e-04
6.15258620689655e-01 1.51518649897134e-01 5.84339639508328e-04
6.35431034482759e-01 1.50616340520622e-01 5.90309048827814e-04
6.55603448275862e-01 1.49719404491745e-01 5.96038523954841e-04
6.75775862068965e-01 1.48827809810259e-01 6.01538350700226e-04
6.95948275862069e-01 1.47941524667898e-01 6.06818115713549e-04
7.16120689655172e-01 1.47060517445813e-01 6.11886774922778e-04
7.36293103448276e-01 1.46184756713454e-01 6.16752712462939e-04
7.56465517241379e-01 1.45314211228606e-01 6.21423793517077e-04
7.76637931034483e-01 1.44448849932751e-01 6.25907410016431e-04
7.96810344827586e-01 1.43588641953513e-01 6.30210521089086e-04
8.16982758620690e-01 1.42733556602362e-01 6.34339690015954e-04
8.37155172413793e-01 1.41883563373528e-01 6.38301116242773e-04
8.57327586206897e-01 1.41038631943896e-01 6.42100664933487e-04
8.77500000000000e-01 1.40198732168919e-01 6.45743892605309e-04
8.97672413793103e-01 1.39363834084577e-01 6.49236070150658e-04
9.17844827586207e-01 1.38533907905287e-01 6.52582204340505e-04
9.38017241379310e-01 1.37708924023728e-01 6.55787057239006e-04
9.58189655172414e-01 1.36888853007111e-01 6.58855163153714e-04
9.78362068965517e-01 1.36073665598823e-01 6.61790843998172e-04
9.98534482758621e-01 1.35263332716472e-01 6.64598224123771e-04
1.01870689655172e+00 1.34457825450855e-01 6.67281242563717e-04
1.03887931034483e+00 1.33657115067980e-01 6.69843667793546e-04
1.05905172413793e+00 1.32861172994295e-01 6.72289103936029e-04
1.07922413793103e+00 1.32069970841590e-01 6.74621002677191e-04
1.09939655172414e+00 1.31283480382945e-01 6.76842677749085e-04
1.11956896551724e+00 1.30501673552700e-01 6.78957304141654e-04
1.13974137931034e+00 1.29724522466332e-01 6.80967932021039e-04
1.15991379310345e+00 1.28951999391627e-01 6.82877492561613e-04
1.18008620689655e+00 1.28184076775025e-01 6.84688803041836e-04
1.20025862068966e+00 1.27420727220138e-01 6.86404578860059e-04
1.22043103448276e+00 1.26661923487637e-01 6.88027430635003e-04
1.24060344827586e+00 1.25907638512911e-01 6.89559875236580e-04
1.26077586206897e+00 1.25157845380219e-01 6.91004339439258e-04
1.28094827586207e+00 1.24412517346187e-01 6.92363163053288e-04
1.30112068965517e+00 1.23671627820552e-01 6.93638608691852e-04
1.32129310344828e+00 1.22935150365891e-01 6.94832857713736e-04
1.34146551724138e+00 1.22203058713471e-01 6.95948018043228e-04
1.36163793103448e+00 1.21475326745253e-01 6.96986131517088e-04
1.38181034482759e+00 1.20751928493595e-01 6.97949169468246e-04
1.40198275862069e+00 1.20032838156000e-01 6.98839040896455e-04
1.42215517241379e+00 1.19318030073283e-01 6.99657594201929e-04
1.44232758620690e+00 1.18607478749239e-01 7.00406618580998e-04
1.46250000000000e+00 1.17901158834318e-01 7.01087851477472e-04
1.48267241379310e+00 1.17199045125261e-01 7.01702973752610e-04
1.50284482758621e+00 1.16501112578423e-01 7.02253615596095e-04
1.52301724137931e+00 1.15807336294452e-01 7.02741362117855e-04
1.54318965517241e+00 1.15117691517880e-01 7.03167748436536e-04
1.56336206896552e+00 1.14432153649608e-01 7.03534266158446e-04
1.58353448275862e+00 1.13750698228215e-01 7.03842364135931e-04
1.60370689655172e+00 1.13073300946631e-01 7.04093448981457e-04
1.62387931034483e+00 1.12399937638124e-01 7.04288891095030e-04
1.64405172413793e+00 1.11730584275867e-01 7.04430019662211e-04
1.66422413793103e+00 1.11065216984287e-01 7.04518127390659e-04
1.68439655172414e+00 1.10403812025843e-01 7.04554475013919e-04
1.70456896551724e+00 1.09746345800560e-01 7.04540286328068e-04
1.72474137931034e+00 1.09092794856713e-01 7.04476753569023e-04
1.74491379310345e+00 1.08443135874635e-01 7.04365037648783e-04
1.76508620689655e+00 1.07797345681025e-01 7.04206268200925e-04
1.78525862068966e+00 1.07155401236773e-01 7.04001548652075e-04
1.80543103448276e+00 1.06517279636492e-01 7.03751951313743e-04
1.82560344827586e+00 1.05882958118278e-01 7.03458522268235e-04
1.84577586206897e+00 1.05252414048789e-01 7.03122281397696e-04
1.86594827586207e+00 1.04625624936357e-01 7.02744222244592e-04
1.88612068965517e+00 1.04002568419762e-01 7.02325316648656e-04
1.90629310344828e+00 1.03383222267737e-01 7.01866509943532e-04
1.92646551724138e+00 1.02767564387928e-01 7.01368724545446e-04
1.94663793103448e+00 1.02155572816231e-01 7.00832863387003e-04
1.96681034482759e+00 1.01547225716300e-01 7.00259805220275e-04
1.98698275862069e+00 1.00942501388008e-01 6.99650408858801e-04
2.00715517241379e+00 1.00341378254350e-01 6.99005513007105e-04
2.02732758620690e+00 9.97438348728407e-02 6.98325935947854e-04
2.04750000000000e+00 9.91498499256332e-02 6.97612479598359e-04
2.06767241379310e+00 9.85594022190113e-02 6.96865924956778e-04
2.08784482758621e+00 9.79724706911932e-02 6.96087035222378e-04
2.10801724137931e+00 9.73890344029215e-02 6.95276558789102e-04
2.12818965517241e+00 9.68090725369514e-02 6.94435224807861e-04
2.14836206896552e+00 9.62325644054491e-02 6.93563746933024e-04
2.16853448275862e+00 9.56594894384040e-02 6.92662823040966e-04
2.18870689655172e+00 9.50898271936111e-02 6.91733134824933e-04
2.20887931034483e+00 9.45235573479107e-02 6.90775351397517e-04
2.22905172413793e+00 9.39606596966800e-02 6.89790125009722e-04
2.24922413793103e+00 9.34011141606696e-02 6.88778093808049e-04
2.26939655172414e+00 9.28449007776466e-02 6.87739884485833e-04
2.28956896551724e+00 9.22919997018766e-02 6.86676108118577e-04
2.30974137931034e+00 9.17423912106259e-02 6.85587363513747e-04
2.32991379310345e+00 9.11960556938530e-02 6.84474236869625e-04
2.35008620689655e+00 9.06529736629994e-02 6.83337301324759e-04
2.37025862068965e+00 9.01131257431804e-02 6.82177120192412e-04
2.39043103448276e+00 8.95764926726793e-02 6.80994242954067e-04
2.41060344827586e+00 8.90430553089708e-02 6.79789208408931e-04
2.43077586206897e+00 8.85127946190901e-02 6.78562544307894e-04
2.45094827586207e+00 8.79856916877976e-02 6.77314766885107e-04
2.47112068965517e+00 8.74617277102807e-02 6.76046383905007e-04
2.49129310344828e+00 8.69408839916441e-02 6.74757890812859e-04
2.51146551724138e+00 8.64231419525092e-02 6.73449773048349e-04
2.53163793103448e+00 8.59084831220206e-02 6.72122508277572e-04
2.55181034482759e+00 8.53968891373433e-02 6.70776562652249e-04
2.57198275862069e+00 8.48883417489970e-02 6.69412393663909e-04
2.59215517241379e+00 8.43828228122212e-02 6.68030449761878e-04
2.61232758620690e+00 8.38803142942217e-02 6.66631169878977e-04
2.63250000000000e+00 8.33807982676136e-02 6.65214986200421e-04
2.65267241379310e+00 8.28842569099225e-02 6.63782320572860e-04
2.67284482758621e+00 8.23906725085524e-02 6.62333586600942e-04
2.69301724137931e+00 8.19000274544943e-02 6.60869191672882e-04
2.71318965517241e+00 8.14123042418314e-02 6.59389533471404e-04
2.73336206896552e+00 8.09274854724812e-02 6.57895002575429e-04
2.75353448275862e+00 8.04455538484231e-02 6.56385982075893e-04
2.77370689655172e+00 7.99664921781549e-02 6.54862847107622e-04
2.79387931034483e+00 7.94902833707783e-02 6.53325967378523e-04
2.81405172413793e+00 7.90169104355133e-02 6.51775703821877e-04
2.83422413793103e+00 7.85463564861222e-02 6.50212410507360e-04
2.85439655172414e+00 7.80786047352286e-02 6.48636436489632e-04
2.87456896551724e+00 7.76136384938322e-02 6.47048122555384e-04
2.89474137931034e+00 7.71514411755407e-02 6.45447803606040e-04
2.91491379310345e+00 7.66919962895473e-02 6.43835808279387e-04
2.93508620689655e+00 7.62352874464041e-02 6.42212458494508e-04
2.95525862068965e+00 7.57812983526695e-02 6.40578071772020e-04
2.97543103448276e+00 7.53300128104354e-02 6.38932958113485e-04
2.99560344827586e+00 7.48814147212805e-02 6.37277422267716e-04
3.01577586206897e+00 7.44354880796557e-02 6.35611763356288e-04
3.03594827586207e+00 7.39922169782899e-02 6.33936274426263e-04
3.05612068965517e+00 7.35515856031457e-02 6.32251244658926e-04
3.07629310344828e+00 7.31135782329516e-02 6.30556956376482e-04
3.09646551724138e+00 7.26781792429047e-02 6.28853686703919e-04
3.11663793103448e+00 7.22453730998109e-02 6.27141709179507e-04
3.13681034482759e+00 7.18151443616255e-02 6.25421290845221e-04
3.15698275862069e+00 7.13874776809978e-02 6.23692694333732e-04
3.17715517241379e+00 7.09623577992649e-02 6.21956177507216e-04
3.19732758620690e+00 7.05397695513097e-02 6.20211993029017e-04
3.21750000000000e+00 7.01196978609727e-02 6.18460390400361e-04
3.23767241379310e+00 6.97021277406001e-02 6.16701613168818e-04
3.25784482758621e+00 6.92870442943669e-02 6.14935900458690e-04
3.27801724137931e+00 6.88744327138538e-02 6.13163488455735e-04
3.29818965517241e+00 6.84642782776005e-02 6.11384607692889e-04
3.31836206896552e+00 6.80565663542926e-02 6.09599484977364e-04
3.33853448275862e+00 6.76512823972937e-02 6.07808343044827e-04
3.35870689655172e+00 6.72484119490225e-02 6.06011400151313e-04
3.37887931034483e+00 6.68479406367681e-02 6.04208871955916e-04
3.39905172413793e+00 6.64498541722542e-02 6.02400968916302e-04
3.41922413793103e+00 6.60541383546298e-02 6.00587897701910e-04
3.43939655172414e+00 6.56607790664320e-02 5.98769862566070e-04
3.45956896551724e+00 6.52697622731540e-02 5.96947062812829e-04
3.47974137931034e+00 6.48810740261167e-02 5.95119694580591e-04
3.49991379310345e+00 6.44947004574788e-02 5.93287950512345e-04
3.52008620689655e+00 6.41106277841897e-02 5.91452019368404e-04
3.54025862068965e+00 6.37288423041644e-02 5.89612087770390e-04
3.56043103448276e+00 6.33493303958635e-02 5.87768337769929e-04
3.58060344827586e+00 6.29720785209906e-02 5.85920948554054e-04
3.60077586206897e+00 6.25970732197662e-02 5.84070096124071e-04
3.62094827586207e+00 6.22243011146491e-02 5.82215952919491e-04
3.64112068965517e+00 6.18537489067120e-02 5.80358689486382e-04
3.66129310344828e+00 6.14854033752290e-02 5.78498472143519e-04
3.68146551724138e+00 6.11192513802141e-02 5.76635464231544e-04
3.70163793103448e+00 6.07552798589170e-02 5.74769827327181e-04
3.72181034482759e+00 6.03934758254190e-02 5.72901718972325e-04
3.74198275862069e+00 6.00338263730701e-02 5.71031294256977e-04
3.76215517241379e+00 5.96763186701629e-02 5.69158705514706e-04
3.78232758620690e+00 5.93209399633034e-02 5.67284101967266e-04
3.80250000000000e+00 5.89676775740877e-02 5.65407631274186e-04
3.82267241379310e+00 5.86165188987051e-02 5.63529437352134e-04
3.84284482758621e+00 5.82674514102347e-02 5.61649661534562e-04
3.86301724137931e+00 5.79204626554304e-02 5.59768443699730e-04
3.88318965517241e+00 5.75755402543299e-02 5.57885920148040e-04
3.90336206896552e+00 5.72326719024636e-02 5.56002225073635e-04
3.92353448275862e+00 5.68918453668843e-02 5.54117490276393e-04
3.94370689655172e+00 5.65530484892288e-02 5.52231844826194e-04
3.96387931034483e+00 5.62162691826630e-02 5.50345416504532e-04
3.98405172413793e+00 5.58814954315011e-02 5.48458329765854e-04
4.00422413793103e+00 5.55487152932873e-02 5.46570706815576e-04
4.02439655172414e+00 5.52179168958398e-02 5.44682668659608e-04
4.04456896551724e+00 5.48890884368748e-02 5.42794333119310e-04
4.06474137931034e+00 5.45622181860099e-02 5.40905816201341e-04
4.08491379310345e+00 5.42372944811161e-02 5.39017231825425e-04
4.10508620689655e+00 5.39143057311014e-02 5.37128691507805e-04
4.12525862068965e+00 5.35932404130988e-02 5.35240305704075e-04
4.14543103448276e+00 5.32740870721016e-02 5.33352181901799e-04
4.16560344827586e+00 5.29568343228525e-02 5.31464425934328e-04
4.18577586206897e+00 5.26414708463748e-02 5.29577141716994e-04
4.20594827586207e+00 5.23279853926030e-02 5.27690430940805e-04
4.22612068965517e+00 5.20163667777083e-02 5.25804394360634e-04
4.24629310344828e+00 5.17066038837411e-02 5.23919129962336e-04
4.26646551724138e+00 5.13986856604161e-02 5.22034733924449e-04
4.28663793103448e+00 5.10926011225194e-02 5.20151301555272e-04
4.30681034482759e+00 5.07883393495580e-02 5.18268925507452e-04
4.32698275862069e+00 5.04858894874785e-02 5.16387697003193e-04
4.34715517241379e+00 5.01852407454704e-02 5.14507705585391e-04
4.36732758620690e+00 4.98863823983646e-02 5.12629038829072e-04
4.38750000000000e+00 4.95893037841659e-02 5.10751783543381e-04
4.40767241379310e+00 4.92939943037097e-02 5.08876024055410e-04
4.42784482758621e+00 4.90004434222866e-02 5.07001843107208e-04
4.44801724137931e+00 4.87086406672492e-02 5.05129322730312e-04
4.46818965517241e+00 4.84185756276750e-02 5.03258542573620e-04
4.48836206896552e+00 4.81302379559315e-02 5.01389581047162e-04
4.50853448275862e+00 4.78436173647275e-02 4.99522515087383e-04
4.52870689655172e+00 4.75587036293021e-02 4.97657419885440e-04
4.54887931034483e+00 4.72754865851447e-02 4.95794370009775e-04
4.56905172413793e+00 4.69939561276666e-02 4.93933437798344e-04
4.58922413793103e+00 4.67141022136810e-02 4.92074694196200e-04
4.60939655172414e+00 4.64359148591903e-02 4.90218209572429e-04
4.62956896551724e+00 4.61593841390635e-02 4.88364052153197e-04
4.64974137931034e+00 4.58845001884627e-02 4.86512289090514e-04
4.66991379310345e+00 4.56112532001187e-02 4.84662986241023e-04
4.69008620689655e+00 4.53396334263332e-02 4.82816207910116e-04
4.71025862068965e+00 4.50696311768675e-02 4.80972017901324e-04
4.73043103448276e+00 4.48012368186296e-02 4.79130478009221e-04
4.75060344827586e+00 4.45344407770232e-02 4.77291649046301e-04
4.77077586206897e+00 4.42692335333497e-02 4.75455590629071e-04
4.79094827586207e+00 4.40056056267054e-02 4.73622360930727e-04
4.81112068965517e+00 4.37435476519682e-02 4.71792017689625e-04
4.83129310344828e+00 4.34830502594912e-02 4.69964616759672e-04
4.85146551724138e+00 4.32241041563806e-02 4.68140212861752e-04
4.87163793103448e+00 4.29667001045412e-02 4.66318860317214e-04
4.89181034482759e+00 4.27108289203751e-02 4.64500611634520e-04
4.91198275862069e+00 4.24564814760147e-02 4.62685518469985e-04
4.93215517241379e+00 4.22036486969180e-02 4.60873631426212e-04
4.95232758620690e+00 4.19523215636057e-02 4.59064999819196e-04
4.97250000000000e+00 4.17024911097951e-02 4.57259672622188e-04
4.99267241379310e+00 4.14541484221070e-02 4.55457697105894e-04
5.01284482758621e+00 4.12072846412336e-02 4.53659119541595e-04
5.03301724137931e+00 4.09618909601258e-02 4.51863985887845e-04
5.05318965517241e+00 4.07179586237048e-02 4.50072340464391e-04
5.07336206896552e+00 4.04754789299898e-02 4.48284226851578e-04
5.09353448275862e+00 4.02344432278689e-02 4.46499687700475e-04
5.11370689655172e+00 3.99948429186924e-02 4.44718764513626e-04
5.13387931034483e+00 3.97566694545411e-02 4.42941498528974e-04
5.15405172413793e+00 3.95199143379457e-02 4.41167929443740e-04
5.17422413793103e+00 3.92845691229551e-02 4.39398096072932e-04
5.19439655172414e+00 3.90506254134538e-02 4.37632036992452e-04
5.21456896551724e+00 3.88180748628859e-02 4.35869789294328e-04
5.23474137931034e+00 3.85869091752872e-02 4.34111389429524e-04
5.25491379310345e+00 3.83571201032174e-02 4.32356873028887e-04
5.27508620689655e+00 3.81286994492224e-02 4.30606274696750e-04
5.29525862068965e+00 3.79016390642257e-02 4.28859628839378e-04
5.31543103448276e+00 3.76759308472599e-02 4.27116968466592e-04
5.33560344827586e+00 3.74515667464452e-02 4.25378326002661e-04
5.35577586206897e+00 3.72285387570131e-02 4.23643733113202e-04
5.37594827586207e+00 3.70068389226956e-02 4.21913220505804e-04
5.39612068965517e+00 3.67864593341867e-02 4.20186818727284e-04
5.41629310344828e+00 3.65673921288809e-02 4.18464557009873e-04
5.43646551724138e+00 3.63496294918016e-02 4.16746463864550e-04
5.45663793103448e+00 3.61331636541051e-02 4.15032567660814e-04
5.47681034482759e+00 3.59179868928241e-02 4.13322895501043e-04
5.49698275862069e+00 3.57040915317641e-02 4.11617473980932e-04
5.51715517241379e+00 3.54914699396680e-02 4.09916329026332e-04
5.53732758620690e+00 3.52801145314922e-02 4.08219485705513e-04
5.55750000000000e+00 3.50700177669758e-02 4.06526968976974e-04
5.57767241379310e+00 3.48611721503909e-02 4.04838802605447e-04
5.59784482758621e+00 3.46535702313931e-02 4.03155009718350e-04
5.61801724137931e+00 3.44472046036304e-02 4.01475613349809e-04
5.63818965517241e+00 3.42420679044966e-02 3.99800635382849e-04
5.65836206896552e+00 3.40381528159547e-02 3.98130097262829e-04
5.67853448275862e+00 3.38354520628296e-02 3.96464019843817e-04
5.69870689655172e+00 3.36339584139823e-02 3.94802423211665e-04
5.71887931034483e+00 3.34336646809776e-02 3.93145327385866e-04
5.73905172413793e+00 3.32345637178454e-02 3.91492751300662e-04
5.75922413793103e+00 3.30366484218615e-02 3.89844713327292e-04
5.77939655172414e+00 3.28399117322512e-02 3.88201231784667e-04
5.79956896551724e+00 3.26443466299545e-02 3.86562323944929e-04
5.81974137931034e+00 3.24499461383814e-02 3.84928006703191e-04
5.83991379310345e+00 3.22567033218230e-02 3.83298296432732e-04
5.86008620689655e+00 3.20646112865330e-02 3.81673208818425e-04
5.88025862068965e+00 3.18736631794857e-02 3.80052759515570e-04
5.90043103448276e+00 3.16838521881485e-02 3.78436963192000e-04
5.92060344827586e+00 3.14951715411981e-02 3.76825834173101e-04
5.94077586206897e+00 3.13076145070002e-02 3.75219386301805e-04
5.96094827586207e+00 3.11211743946377e-02 3.73617632777593e-04
5.98112068965517e+00 3.09358445527220e-02 3.72020586791230e-04
6.00129310344828e+00 3.07516183691702e-02 3.70428260601819e-04
6.02146551724138e+00 3.05684892718869e-02 3.68840666008629e-04
6.04163793103448e+00 3.03864507276060e-02 3.67257814812781e-04
6.06181034482759e+00 3.02054962416733e-02 3.65679717916222e-04
6.08198275862069e+00 3.00256193587044e-02 3.64106385927617e-04
6.10215517241379e+00 2.98468136611685e-02 3.62537829030373e-04
6.12232758620690e+00 2.96690727703361e-02 3.60974056830986e-04
6.14250000000000e+00 2.94923903451696e-02 3.59415078955428e-04
6.16267241379310e+00 2.93167600821113e-02 3.57860904180833e-04
6.18284482758621e+00 2.91421757157092e-02 3.56311540878856e-04
6.20301724137931e+00 2.89686310175372e-02 3.54766997449598e-04
6.22318965517241e+00 2.87961197959862e-02 3.53227281473731e-04
6.24336206896552e+00 2.86246358968702e-02 3.51692400281980e-04
6.26353448275862e+00 2.84541732021051e-02 3.50162360830750e-04
6.28370689655172e+00 2.82847256305832e-02 3.48637169559136e-04
6.30387931034483e+00 2.81162871371373e-02 3.47116832949479e-04
6.32405172413793e+00 2.79488517123381e-02 3.45601356710292e-04
6.34422413793103e+00 2.77824133830701e-02 3.44090746193014e-04
6.36439655172414e+00 2.76169662115233e-02 3.42585006799900e-04
