Energy (eV)          EEDF (eV^-(3/2))     First Anisotropy
1.20000000000000e-01 8.40633905915336e-02 1.09349070394054e-04
3.60000000000000e-01 8.05151953037842e-02 1.77351893400621e-04
6.00000000000000e-01 7.71167642559890e-02 2.25760458227941e-04
8.40000000000000e-01 7.38617761141326e-02 2.57799154277499e-04
1.08000000000000e+00 7.07441763586514e-02 2.80841599515844e-04
1.32000000000000e+00 6.77581660225793e-02 2.97837682474475e-04
1.56000000000000e+00 6.48981909050376e-02 3.10392462791238e-04
1.80000000000000e+00 6.21589312400103e-02 3.19519426999796e-04
2.04000000000000e+00 5.95352918011835e-02 3.25917762580354e-04
2.28000000000000e+00 5.70223924244467e-02 3.30098911707094e-04
2.52000000000000e+00 5.46155589304252e-02 3.32452765670432e-04
2.76000000000000e+00 5.23103144301594e-02 3.33285746529754e-04
3.00000000000000e+00 5.01023709977592e-02 3.32844321982811e-04
3.24000000000000e+00 4.79876216945433e-02 3.31330344856374e-04
3.48000000000000e+00 4.59621329298287e-02 3.28911509040384e-04
3.72000000000000e+00 4.40221371441599e-02 3.25728737982229e-04
3.96000000000000e+00 4.21640258013684e-02 3.21901564993111e-04
4.20000000000000e+00 4.03843426764279e-02 3.17532152262296e-04
4.44000000000000e+00 3.86797774266191e-02 3.12708359263313e-04
4.68000000000000e+00 3.70471594340466e-02 3.07506130070601e-04
4.92000000000000e+00 3.54834519080538e-02 3.01991381621104e-04
5.16000000000000e+00 3.39857462365676e-02 2.96221519002630e-04
5.40000000000000e+00 3.25512565758634e-02 2.90246667061545e-04
5.64000000000000e+00 3.11773146686893e-02 2.84110682834238e-04
5.88000000000000e+00 2.98613648811093e-02 2.77851996236049e-04
6.12000000000000e+00 2.86009594488350e-02 2.71504314452894e-04
6.36000000000000e+00 2.73937539242015e-02 2.65097216910983e-04
6.60000000000000e+00 2.62375028153216e-02 2.58656661474571e-04
6.84000000000000e+00 2.51300554093035e-02 2.52205417932487e-04
7.08000000000000e+00 2.40693517717655e-02 2.45763441405121e-04
7.32000000000000e+00 2.30534189152052e-02 2.39348195709594e-04
7.56000000000000e+00 2.20803671290960e-02 2.32974934735721e-04
7.80000000000000e+00 2.11483864648857e-02 2.26656948350247e-04
8.04000000000000e+00 2.02557433693572e-02 2.20405778147721e-04
8.28000000000000e+00 1.94007774600914e-02 2.14231407421130e-04
8.52000000000000e+00 1.85818984370326e-02 2.08142428973872e-04
8.76000000000000e+00 1.77975831244120e-02 2.02146193792210e-04
9.00000000000000e+00 1.70463726375278e-02 1.96248943110857e-04
9.24000000000000e+00 1.63268696691118e-02 1.90455926008615e-04
9.48000000000000e+00 1.56377358902334e-02 1.84771504346918e-04
9.72000000000000e+00 1.49776894609093e-02 1.79199246597123e-04
9.96000000000000e+00 1.43455026457851e-02 1.73742011881035e-04
1.02000000000000e+01 1.37399995304573e-02 1.68402025364598e-04
1.04400000000000e+01 1.31600538341843e-02 1.63180945990012e-04
1.06800000000000e+01 1.26045868149215e-02 1.58079927401267e-04
1.09200000000000e+01 1.20725652627803e-02 1.53099672807779e-04
1.11600000000000e+01 1.15629995781816e-02 1.48240484437044e-04
1.14000000000000e+01 1.10749419311265e-02 1.43502308147154e-04
1.16400000000000e+01 1.06074844981629e-02 1.38884773701341e-04
1.18800000000000e+01 1.01597577737656e-02 1.34387231147608e-04
1.21200000000000e+01 9.73092895299232e-03 1.30008783695427e-04
1.23600000000000e+01 9.32020038240422e-03 1.25748317437189e-04
1.26000000000000e+01 8.92680807637136e-03 1.21604528223571e-04
1.28400000000000e+01 8.55002029600278e-03 1.17575945968354e-04
1.30800000000000e+01 8.18913618805782e-03 1.13660956628768e-04
1.33200000000000e+01 7.84348448130705e-03 1.09857822081600e-04
1.35600000000000e+01 7.51242223791799e-03 1.06164698092568e-04
1.38000000000000e+01 7.19533365754299e-03 1.02579650556323e-04
1.40400000000000e+01 6.89162893188489e-03 9.91006701667159e-05
1.42800000000000e+01 6.60074314760977e-03 9.57256856611561e-05
1.45200000000000e+01 6.32213523556626e-03 9.24525757689093e-05
1.47600000000000e+01 6.05528696435672e-03 8.92791799806565e-05
1.50000000000000e+01 5.79970197638841e-03 8.62033082455152e-05
1.52400000000000e+01 5.55490486461149e-03 8.32227496917322e-05
1.54800000000000e+01 5.32044028822660e-03 8.03352804583239e-05
1.57200000000000e+01 5.09587212571723e-03 7.75386707169256e-05
1.59600000000000e+01 4.88078266363130e-03 7.48306909558893e-05
1.62000000000000e+01 4.67477181960309e-03 7.22091175921700e-05
1.64400000000000e+01 4.47745639817041e-03 6.96717379706872e-05
1.66800000000000e+01 4.28846937800256e-03 6.72163548055513e-05
1.69200000000000e+01 4.10745922921340e-03 6.48407901127510e-05
1.71600000000000e+01 3.93408925948971e-03 6.25428886795737e-05
1.74000000000000e+01 3.76803698781843e-03 6.03205211120893e-05
1.76400000000000e+01 3.60899354464810e-03 5.81715864984580e-05
1.78800000000000e+01 3.45666309736853e-03 5.60940147225877e-05
1.81200000000000e+01 3.31076230004021e-03 5.40857684597061e-05
1.83600000000000e+01 3.17101976634981e-03 5.21448448827310e-05
1.86000000000000e+01 3.03717556481148e-03 5.02692771058703e-05
1.88400000000000e+01 2.90898073527503e-03 4.84571353896497e-05
1.90800000000000e+01 2.78619682584156e-03 4.67065281295293e-05
1.93200000000000e+01 2.66859544932518e-03 4.50156026483984e-05
1.95600000000000e+01 2.55595785843596e-03 4.33825458115451e-05
1.98000000000000e+01 2.44807453889369e-03 4.18055844811272e-05
2.00400000000000e+01 2.34474481971578e-03 4.02829858257511e-05
2.02800000000000e+01 2.24577649995433e-03 3.88130574994534e-05
2.05200000000000e+01 2.15098549118811e-03 3.73941477031827e-05
2.07600000000000e+01 2.06019547510442e-03 3.60246451407812e-05
2.10000000000000e+01 1.97323757553395e-03 3.47029788804554e-05
2.12400000000000e+01 1.88995004432856e-03 3.34276181317994e-05
2.14800000000000e+01 1.81017796049772e-03 3.21970719475878e-05
2.17200000000000e+01 1.73377294204399e-03 3.10098888587704e-05
2.19600000000000e+01 1.66059286996145e-03 2.98646564503853e-05
2.22000000000000e+01 1.59050162388383e-03 2.87600008854503e-05
2.24400000000000e+01 1.52336882889051e-03 2.76945863832819e-05
2.26800000000000e+01 1.45906961299948e-03 2.66671146581362e-05
2.29200000000000e+01 1.39748437489624e-03 2.56763243235558e-05
2.31600000000000e+01 1.33849856146639e-03 2.47209902673315e-05
2.34000000000000e+01 1.28200245471840e-03 2.37999230015565e-05
2.36400000000000e+01 1.22789096769999e-03 2.29119679918512e-05
2.38800000000000e+01 1.17606344902858e-03 2.20560049694694e-05
2.41200000000000e+01 1.12642349567224e-03 2.12309472296597e-05
2.43600000000000e+01 1.07887877363292e-03 2.04357409193456e-05
2.46000000000000e+01 1.03334084619838e-03 1.96693643169005e-05
2.48400000000000e+01 9.89725009443261e-04 1.89308271065328e-05
2.50800000000000e+01 9.47950134673578e-04 1.82191696495537e-05
2.53200000000000e+01 9.07938517521287e-04 1.75334622545787e-05
2.55600000000000e+01 8.69615733408396e-04 1.68728044485074e-05
2.58000000000000e+01 8.32910499111734e-04 1.62363242499419e-05
2.60400000000000e+01 7.97754540170858e-04 1.56231774465286e-05
2.62800000000000e+01 7.64082463892489e-04 1.50325468775511e-05
2.65200000000000e+01 7.31831637715253e-04 1.44636417229568e-05
2.67600000000000e+01 7.00942072708461e-04 1.39156967998642e-05
2.70000000000000e+01 6.71356311988251e-04 1.33879718674781e-05
2.72400000000000e+01 6.43019323843513e-04 1.28797509412259e-05
2.74800000000000e+01 6.15878399372828e-04 1.23903416168265e-05
2.77200000000000e+01 5.89883054441994e-04 1.19190744049077e-05
2.79600000000000e+01 5.64984935779788e-04 1.14653020767030e-05
2.82000000000000e+01 5.41137731037298e-04 1.10283990212797e-05
2.84400000000000e+01 5.18297082643510e-04 1.06077606146786e-05
2.86800000000000e+01 4.96420505296937e-04 1.02028026012786e-05
2.89200000000000e+01 4.75467306939803e-04 9.81296048764240e-06
2.91600000000000e+01 4.55398513067796e-04 9.43768894904165e-06
2.94000000000000e+01 4.36176794234596e-04 9.07646124881345e-06
2.96400000000000e+01 4.17766396616332e-04 8.72876867065354e-06
2.98800000000000e+01 4.00133075506820e-04 8.39411996391169e-06
3.01200000000000e+01 3.83244031619865e-04 8.07204080191688e-06
3.03600000000000e+01 3.67067850080153e-04 7.76207325332812e-06
3.06000000000000e+01 3.51574441989253e-04 7.46377526647566e-06
3.08400000000000e+01 3.36734988458032e-04 7.17672016663103e-06
3.10800000000000e+01 3.22521887001379e-04 6.90049616612005e-06
3.13200000000000e+01 3.08908700195538e-04 6.63470588717178e-06
3.15600000000000e+01 2.95870106502536e-04 6.37896589737656e-06
3.18000000000000e+01 2.83381853170241e-04 6.13290625761007e-06
3.20400000000000e+01 2.71420711120445e-04 5.89617008226483e-06
3.22800000000000e+01 2.59964431741053e-04 5.66841311161773e-06
3.25200000000000e+01 2.48991705502011e-04 5.44930329615073e-06
3.27600000000000e+01 2.38482122318005e-04 5.23852039263148e-06
3.30000000000000e+01 2.28416133584178e-04 5.03575557175305e-06
3.32400000000000e+01 2.18775015814283e-04 4.84071103712384e-06
3.34800000000000e+01 2.09540835813600e-04 4.65309965539324e-06
3.37200000000000e+01 2.00696417321871e-04 4.47264459729350e-06
3.39600000000000e+01 1.92225309064173e-04 4.29907898937438e-06
3.42000000000000e+01 1.84111754150333e-04 4.13214557620426e-06
3.44400000000000e+01 1.76340660765936e-04 3.97159639280877e-06
3.46800000000000e+01 1.68897574100436e-04 3.81719244711687e-06
3.49200000000000e+01 1.61768649460128e-04 3.66870341218345e-06
3.51600000000000e+01 1.54940626515999e-04 3.52590732795710e-06
3.54000000000000e+01 1.48400804638524e-04 3.38859031236222e-06
3.56400000000000e+01 1.42137019273555e-04 3.25654628146558e-06
3.58800000000000e+01 1.36137619315350e-04 3.12957667849854e-06
3.61200000000000e+01 1.30391445434647e-04 3.00749021150781e-06
3.63600000000000e+01 1.24887809321487e-04 2.89010259940990e-06
3.66000000000000e+01 1.19616473804160e-04 2.77723632622666e-06
3.68400000000000e+01 1.14567633807310e-04 2.66872040328168e-06
3.70800000000000e+01 1.09731898113765e-04 2.56439013914082e-06
3.73200000000000e+01 1.05100271896175e-04 2.46408691708270e-06
3.75600000000000e+01 1.00664139985967e-04 2.36765797988843e-06
3.78000000000000e+01 9.64152508484916e-05 2.27495622174354e-06
3.80400000000000e+01 9.23457012345551e-05 2.18583998704839e-06
3.82800000000000e+01 8.84479214797908e-05 2.10017287593712e-06
3.85200000000000e+01 8.47146614245203e-05 2.01782355630929e-06
3.87600000000000e+01 8.11389769279186e-05 1.93866558218172e-06
3.90000000000000e+01 7.77142169513969e-05 1.86257721817274e-06
3.92400000000000e+01 7.44340111871769e-05 1.78944126993418e-06
3.94800000000000e+01 7.12922582090457e-05 1.71914492035138e-06
3.97200000000000e+01 6.82831141232497e-05 1.65157957133480e-06
3.99600000000000e+01 6.54009816984187e-05 1.58664069103145e-06
4.02000000000000e+01 6.26404999543002e-05 1.52422766628813e-06
4.04400000000000e+01 5.99965341899379e-05 1.46424366020259e-06
4.06800000000000e+01 5.74641664327470e-05 1.40659547460290e-06
4.09200000000000e+01 5.50386862907199e-05 1.35119341729911e-06
4.11600000000000e+01 5.27155821907478e-05 1.29795117395567e-06
4.14000000000000e+01 5.04905329867592e-05 1.24678568443643e-06
4.16400000000000e+01 4.83593999220680e-05 1.19761702347868e-06
4.18800000000000e+01 4.63182189309786e-05 1.15036828555591e-06
4.21200000000000e+01 4.43631932653296e-05 1.10496547379328e-06
4.23600000000000e+01 4.24906864322601e-05 1.06133739280327e-06
4.26000000000000e+01 4.06972154300633e-05 1.01941554531262e-06
4.28400000000000e+01 3.89794442695447e-05 9.79134032455765e-07
4.30800000000000e+01 3.73341777688346e-05 9.40429457612868e-07
4.33200000000000e+01 3.57583556101126e-05 9.03240833674716e-07
4.35600000000000e+01 3.42490466471892e-05 8.67509493619745e-07
4.38000000000000e+01 3.28034434533566e-05 8.33179004292063e-07
4.40400000000000e+01 3.14188570993661e-05 8.00195083272560e-07
4.42800000000000e+01 3.00927121518207e-05 7.68505518738412e-07
4.45200000000000e+01 2.88225418826775e-05 7.38060092209570e-07
4.47600000000000e+01 2.76059836809503e-05 7.08810504083760e-07
4.50000000000000e+01 2.64407746580782e-05 6.80710301864644e-07
4.52400000000000e+01 2.53247474387843e-05 6.53714810990715e-07
4.54800000000000e+01 2.42558261295976e-05 6.27781068175400e-07
4.57200000000000e+01 2.32320224575361e-05 6.02867757171576e-07
4.59600000000000e+01 2.22514320717724e-05 5.78935146876543e-07
4.62000000000000e+01 2.13122310013991e-05 5.55945031696112e-07
4.64400000000000e+01 2.04126722627079e-05 5.33860674089046e-07
4.66800000000000e+01 1.95510826096700e-05 5.12646749215654e-07
4.69200000000000e+01 1.87258594215745e-05 4.92269291616797e-07
4.71600000000000e+01 1.79354677220347e-05 4.72695643851934e-07
4.74000000000000e+01 1.71784373238182e-05 4.53894407027190e-07
4.76400000000000e+01 1.64533600941896e-05 4.35835393146681e-07
4.78800000000000e+01 1.57588873356788e-05 4.18489579222519e-07
4.81200000000000e+01 1.50937272774038e-05 4.01829063081067e-07
4.83600000000000e+01 1.44566426722811e-05 3.85827020805112e-07
4.86000000000000e+01 1.38464484956539e-05 3.70457665753580e-07
4.88400000000000e+01 1.32620097410586e-05 3.55696209102433e-07
4.90800000000000e+01 1.27022393090286e-05 3.41518821852238e-07
4.93200000000000e+01 1.21660959850080e-05 3.27902598249768e-07
4.95600000000000e+01 1.16525825026161e-05 3.14825520572776e-07
4.98000000000000e+01 1.11607436886570e-05 3.02266425228814e-07
5.00400000000000e+01 1.06896646864275e-05 2.90204970120605e-07
5.02800000000000e+01 1.02384692540148e-05 2.78621603232180e-07
5.05200000000000e+01 9.80631813442224e-06 2.67497532391500e-07
5.07600000000000e+01 9.39240749448846e-06 2.56814696166835e-07
5.10000000000000e+01 8.99596742969836e-06 2.46555735855649e-07
5.12400000000000e+01 8.61626053210347e-06 2.36703968526189e-07
5.14800000000000e+01 8.25258051868839e-06 2.27243361073312e-07
5.17200000000000e+01 7.90425091763198e-06 2.18158505251474e-07
5.19600000000000e+01 7.57062381001958e-06 2.09434593649079e-07
5.22000000000000e+01 7.25107862466568e-06 2.01057396569656e-07
5.24400000000000e+01 6.94502098380550e-06 1.93013239786525e-07
5.26800000000000e+01 6.65188159750821e-06 1.85288983138814e-07
5.29200000000000e+01 6.37111520475537e-06 1.77871999937805e-07
5.31600000000000e+01 6.10219955921502e-06 1.70750157153696e-07
5.34000000000000e+01 5.84463445782468e-06 1.63911796353930e-07
5.36400000000000e+01 5.59794081037656e-06 1.57345715365272e-07
5.38800000000000e+01 5.36165974837418e-06 1.51041150632785e-07
5.41200000000000e+01 5.13535177150294e-06 1.44987760249852e-07
5.43600000000000e+01 4.91859593012689e-06 1.39175607634285e-07
5.46000000000000e+01 4.71098904229114e-06 1.33595145826481e-07
5.48400000000000e+01 4.51214494377356e-06 1.28237202386438e-07
5.50800000000000e+01 4.32169376979056e-06 1.23092964867286e-07
5.53200000000000e+01 4.13928126702126e-06 1.18153966843785e-07
5.55600000000000e+01 3.96456813466991e-06 1.13412074475047e-07
5.58000000000000e+01 3.79722939334127e-06 1.08859473581452e-07
5.60400000000000e+01 3.63695378055483e-06 1.04488657216492e-07
5.62800000000000e+01 3.48344317177344e-06 1.00292413714966e-07
5.65200000000000e+01 3.33641202586959e-06 9.62638151996171e-08
5.67600000000000e+01 3.19558685399770e-06 9.23962065289629e-08
5.70000000000000e+01 3.06070571088453e-06 8.86831946697127e-08
5.72400000000000e+01 2.93151770759161e-06 8.51186384777530e-08
5.74800000000000e+01 2.80778254484309e-06 8.16966388722840e-08
5.77200000000000e+01 2.68927006605133e-06 7.84115293882599e-08
5.79600000000000e+01 2.57575982920854e-06 7.52578670928165e-08
5.82000000000000e+01 2.46704069684824e-06 7.22304238519113e-08
5.84400000000000e+01 2.36291044331396e-06 6.93241779339079e-08
5.86800000000000e+01 2.26317537860448e-06 6.65343059373199e-08
5.89200000000000e+01 2.16764998809605e-06 6.38561750304114e-08
5.91600000000000e+01 2.07615658747142e-06 6.12853354907985e-08
5.94000000000000e+01 1.98852499221380e-06 5.88175135336486e-08
5.96400000000000e+01 1.90459220105109e-06 5.64486044174861e-08
5.98800000000000e+01 1.82420209276134e-06 5.41746658170261e-08
6.01200000000000e+01 1.74720513577572e-06 5.19919114528568e-08
6.03600000000000e+01 1.67345811003871e-06 4.98967049681662e-08
6.06000000000000e+01 1.60282384060815e-06 4.78855540430731e-08
6.08400000000000e+01 1.53517094249969e-06 4.59551047374830e-08
6.10800000000000e+01 1.47037357630092e-06 4.41021360537221e-08
6.13200000000000e+01 1.40831121410076e-06 4.23235547105358e-08
6.15600000000000e+01 1.34886841529861e-06 4.06163901203479e-08
6.18000000000000e+01 1.29193461187621e-06 3.89777895619898e-08
6.20400000000000e+01 1.23740390273296e-06 3.74050135413941e-08
6.22800000000000e+01 1.18517485670202e-06 3.58954313330344e-08
6.25200000000000e+01 1.13515032388078e-06 3.44465166951630e-08
6.27600000000000e+01 1.08723725492483e-06 3.30558437521585e-08
6.30000000000000e+01 1.04134652796930e-06 3.17210830375569e-08
6.32400000000000e+01 9.97392782855566e-07 3.04399976915728e-08
6.34800000000000e+01 9.55294262354995e-07 2.92104398071510e-08
6.37200000000000e+01 9.14972660094461e-07 2.80303469188275e-08
6.39600000000000e+01 8.76352974900662e-07 2.68977386288828e-08
6.42000000000000e+01 8.39363371292377e-07 2.58107133654834e-08
6.44400000000000e+01 8.03935045861134e-07 2.47674452677124e-08
6.46800000000000e+01 7.70002099291765e-07 2.37661811925803e-08
6.49200000000000e+01 7.37501413784789e-07 2.28052378392953e-08
6.51600000000000e+01 7.06372535652617e-07 2.18829989862530e-08
6.54000000000000e+01 6.76557562871209e-07 2.09979128363772e-08
6.56400000000000e+01 6.48001037378008e-07 2.01484894666090e-08
6.58800000000000e+01 6.20649841915830e-07 1.93332983775063e-08
6.61200000000000e+01 5.94453101230819e-07 1.85509661390665e-08
6.63600000000000e+01 5.69362087440701e-07 1.78001741290336e-08
6.66000000000000e+01 5.45330129397307e-07 1.70796563600961e-08
6.68400000000000e+01 5.22312525874768e-07 1.63881973925207e-08
6.70800000000000e+01 5.00266462421923e-07 1.57246303288946e-08
6.73200000000000e+01 4.79150931724258e-07 1.50878348877814e-08
6.75600000000000e+01 4.58926657327255e-07 1.44767355532169e-08
6.78000000000000e+01 4.39556020579278e-07 1.38902997970888e-08
6.80400000000000e+01 4.21002990658081e-07 1.33275363715579e-08
6.82800000000000e+01 4.03233057550808e-07 1.27874936687890e-08
6.85200000000000e+01 3.86213167862806e-07 1.22692581453627e-08
6.87600000000000e+01 3.69911663335861e-07 1.17719528088432e-08
6.90000000000000e+01 3.54298221961482e-07 1.12947357640738e-08
6.92400000000000e+01 3.39343801579716e-07 1.08367988168631e-08
6.94800000000000e+01 3.25020585858580e-07 1.03973661328192e-08
6.97200000000000e+01 3.11301932553610e-07 9.97569294917163e-09
6.99600000000000e+01 2.98162323951316e-07 9.57106433750936e-09
7.02000000000000e+01 2.85577319404336e-07 9.18279401543783e-09
7.04400000000000e+01 2.73523509870021e-07 8.81022320523917e-09
7.06800000000000e+01 2.61978474367876e-07 8.45271953769250e-09
7.09200000000000e+01 2.50920738274872e-07 8.10967599928290e-09
7.11600000000000e+01 2.40329733381054e-07 7.78050992109645e-09
7.14000000000000e+01 2.30185759631141e-07 7.46466200776449e-09
7.16400000000000e+01 2.20469948480968e-07 7.16159540488446e-09
7.18800000000000e+01 2.11164227800583e-07 6.87079480340495e-09
7.21200000000000e+01 2.02251288258752e-07 6.59176557952190e-09
7.23600000000000e+01 1.93714551126315e-07 6.32403296868973e-09
7.26000000000000e+01 1.85538137438518e-07 6.06714127240447e-09
7.28400000000000e+01 1.77706838458962e-07 5.82065309646940e-09
7.30800000000000e+01 1.70206087390223e-07 5.58414861950356e-09
7.33200000000000e+01 1.63021932278528e-07 5.35722489050132e-09
7.35600000000000e+01 1.56141010062086e-07 5.13949515429834e-09
7.38000000000000e+01 1.49550521714798e-07 4.93058820384355e-09
7.40400000000000e+01 1.43238208439123e-07 4.73014775822024e-09
7.42800000000000e+01 1.37192328863801e-07 4.53783186539976e-09
7.45200000000000e+01 1.31401637204034e-07 4.35331232875206e-09
7.47600000000000e+01 1.25855362343487e-07 4.17627415637470e-09
7.50000000000000e+01 1.20543187799217e-07 4.00641503233881e-09
7.52400000000000e+01 1.15455232532245e-07 3.84344480898650e-09
7.54800000000000e+01 1.10582032568094e-07 3.68708501944692e-09
7.57200000000000e+01 1.05914523393088e-07 3.53706840957163e-09
