Energy (eV)          EEDF (eV^-(3/2))     First Anisotropy
3.35000000000000e-01 1.35605039317177e-01 3.31854450288929e-04
1.00500000000000e+00 1.14015016960268e-01 5.06064186790468e-04
1.67500000000000e+00 9.58623968394346e-02 5.65500420247477e-04
2.34500000000000e+00 8.05999014235432e-02 5.66867843522929e-04
3.01500000000000e+00 6.77673866257067e-02 5.42097058159002e-04
3.68500000000000e+00 5.69779690665548e-02 5.04673540526937e-04
4.35500000000000e+00 4.79063620511192e-02 4.61697303296887e-04
5.02500000000000e+00 4.02790686044311e-02 4.17213851956282e-04
5.69500000000000e+00 3.38661358988031e-02 3.73580982411197e-04
6.36500000000000e+00 2.84742224796635e-02 3.32151410750557e-04
7.03500000000000e+00 2.39407692759548e-02 2.93654890736286e-04
7.70500000000000e+00 2.01290986587555e-02 2.58427846233423e-04
8.37500000000000e+00 1.69242937912134e-02 2.26557789820123e-04
9.04500000000000e+00 1.42297340376299e-02 1.97976817373245e-04
9.71500000000000e+00 1.19641819788550e-02 1.72523188250626e-04
1.03850000000000e+01 1.00593342113512e-02 1.49982214248360e-04
1.10550000000000e+01 8.45776208975253e-03 1.30113407821160e-04
1.17250000000000e+01 7.11118032902564e-03 1.12668354071654e-04
1.23950000000000e+01 5.97899126687315e-03 9.74022553227166e-05
1.30650000000000e+01 5.02706089781351e-03 8.40811376252150e-05
1.37350000000000e+01 4.22668977798019e-03 7.24860826009567e-05
1.44050000000000e+01 3.55374777477879e-03 6.24154296578340e-05
1.50750000000000e+01 2.98794657524648e-03 5.36856085587940e-05
1.57450000000000e+01 2.51222802020126e-03 4.61310651308626e-05
1.64150000000000e+01 2.11224982326323e-03 3.96036048756733e-05
1.70850000000000e+01 1.77595316985523e-03 3.39713817851289e-05
1.77550000000000e+01 1.49319915986366e-03 2.91176904304841e-05
1.84250000000000e+01 1.25546313318572e-03 2.49396700265467e-05
1.90950000000000e+01 1.05557766248168e-03 2.13469939264137e-05
1.97650000000000e+01 8.87516464703284e-04 1.82605928642510e-05
2.04350000000000e+01 7.46212716615802e-04 1.56114424007329e-05
2.11050000000000e+01 6.27406296766896e-04 1.33394324171118e-05
2.17750000000000e+01 5.27515348449121e-04 1.13923276967027e-05
2.24450000000000e+01 4.43528291449052e-04 9.72482257569244e-06
2.31150000000000e+01 3.72913026879801e-04 8.29768857439296e-06
2.37850000000000e+01 3.13540597742522e-04 7.07701127780528e-06
2.44550000000000e+01 2.63621003683588e-04 6.03351111303219e-06
2.51250000000000e+01 2.21649234847132e-04 5.14194177247125e-06
2.57950000000000e+01 1.86359897814840e-04 4.38055963782338e-06
2.64650000000000e+01 1.56689065664993e-04 3.73065751172697e-06
2.71350000000000e+01 1.31742201980395e-04 3.17615614571589e-06
2.78050000000000e+01 1.10767191756385e-04 2.70324738173162e-06
2.84750000000000e+01 9.31316661264075e-05 2.30008313981252e-06
2.91450000000000e+01 7.83039372755483e-05 1.95650494452329e-06
2.98150000000000e+01 6.58369687548671e-05 1.66380915771100e-06
3.04850000000000e+01 5.53548979226472e-05 1.41454355523991e-06
3.11550000000000e+01 4.65417041819709e-05 1.20233133729005e-06
3.18250000000000e+01 3.91316813769404e-05 1.02171908740055e-06
3.24950000000000e+01 3.29014271028685e-05 8.68045590052378e-07
3.31650000000000e+01 2.76631074187185e-05 7.37328778086533e-07
3.38350000000000e+01 2.32587939017649e-05 6.26168409254693e-07
3.45050000000000e+01 1.95557023141486e-05 5.31662366485881e-07
3.51750000000000e+01 1.64421893334107e-05 4.51334740573656e-07
3.58450000000000e+01 1.38243866537143e-05 3.83074088950349e-07
3.65150000000000e+01 1.16233709803505e-05 3.25080472272756e-07
3.71850000000000e+01 9.77278459659937e-06 2.75820054046153e-07
3.78550000000000e+01 8.21683476617816e-06 2.33986209800651e-07
3.85250000000000e+01 6.90861165590079e-06 1.98466233667198e-07
3.91950000000000e+01 5.80867406613898e-06 1.68312853718941e-07
3.98650000000000e+01 4.88386033072461e-06 1.42719875137620e-07
4.05350000000000e+01 4.10628853649556e-06 1.21001363963385e-07
4.12050000000000e+01 3.45251592042418e-06 1.02573865554263e-07
4.18750000000000e+01 2.90283210126175e-06 8.69412224204877e-08
4.25450000000000e+01 2.44066483756588e-06 7.36816171555021e-08
4.32150000000000e+01 2.05208039650012e-06 6.24365189599207e-08
4.38850000000000e+01 1.72536347018455e-06 5.29012578119064e-08
4.45550000000000e+01 1.45066397463005e-06 4.48169896178623e-08
4.52250000000000e+01 1.21970008271032e-06 3.79638495092052e-08
4.58950000000000e+01 1.02550853800788e-06 3.21551195608963e-08
4.65650000000000e+01 8.62234721826143e-07 2.72322622312608e-08
4.72350000000000e+01 7.24956144165126e-07 2.30606923155450e-08
4.79050000000000e+01 6.09534037146718e-07 1.95261786511567e-08
4.85750000000000e+01 5.12488576627266e-07 1.65317826309521e-08
4.92450000000000e+01 4.30893970093784e-07 1.39952541370331e-08
4.99150000000000e+01 3.62290247882385e-07 1.18468171173193e-08
5.05850000000000e+01 3.04609098340625e-07 1.00272869640627e-08
5.12550000000000e+01 2.56111510961816e-07 8.48647035367451e-09
5.19250000000000e+01 2.15335347514131e-07 7.18180547456043e-09
5.25950000000000e+01 1.81051260503261e-07 6.07720677977508e-09
5.32650000000000e+01 1.52225629968477e-07 5.14208370548900e-09
5.39350000000000e+01 1.27989401205425e-07 4.35050732461190e-09
5.46050000000000e+01 1.07611883914131e-07 3.68050276927246e-09
5.52750000000000e+01 9.04787228511357e-08 3.11344855224002e-09
5.59450000000000e+01 7.60733758299868e-08 2.63356672818874e-09
5.66150000000000e+01 6.39615406562713e-08 2.22749023160045e-09
5.72850000000000e+01 5.37780614898283e-08 1.88389576961932e-09
5.79550000000000e+01 4.52159198782556e-08 1.59319238715069e-09
5.86250000000000e+01 3.80169785559029e-08 1.34725730230523e-09
5.92950000000000e+01 3.19641989461111e-08 1.13921187087732e-09
5.99650000000000e+01 2.68750977346654e-08 9.63231611354938e-10
6.06350000000000e+01 2.25962452387906e-08 8.14385134709387e-10
6.13050000000000e+01 1.89986397047766e-08 6.88497599582011e-10
6.19750000000000e+01 1.59738180754155e-08 5.82034973683581e-10
6.26450000000000e+01 1.34305859720219e-08 4.92005943497686e-10
6.33150000000000e+01 1.12922683043127e-08 4.15878791444267e-10
6.39850000000000e+01 9.49439761766312e-09 3.51510965057626e-10
6.46550000000000e+01 7.98277048446149e-09 2.97089407157315e-10
6.53250000000000e+01 6.71181334232706e-09 2.51080008551077e-10
6.59950000000000e+01 5.64320851137166e-09 2.12184793266751e-10
6.66650000000000e+01 4.74473896673894e-09 1.79305657273182e-10
6.73350000000000e+01 3.98931703783863e-09 1.51513660744004e-10
6.80050000000000e+01 3.35416775083998e-09 1.28023025930271e-10
6.86750000000000e+01 2.82014219327885e-09 1.08169121711328e-10
6.93450000000000e+01 2.37114019962775e-09 9.13898253527235e-11
7.00150000000000e+01 1.99362495256096e-09 7.72097448613830e-11
7.06850000000000e+01 1.67621486578384e-09 6.52268640965875e-11
7.13550000000000e+01 1.40934044423223e-09 5.51012395992351e-11
7.20250000000000e+01 1.18495577643019e-09 4.65454347507370e-11
7.26950000000000e+01 9.96295960881327e-10 3.93164249036103e-11
7.33650000000000e+01 8.37673153219930e-10 3.32087478440407e-11
7.40350000000000e+01 7.04305085212529e-10 2.80487084611744e-11
7.47050000000000e+01 5.92170885684325e-10 2.36894757501333e-11
7.53750000000000e+01 4.97889856561723e-10 2.00069350650023e-11
7.60450000000000e+01 4.18619549288684e-10 1.68961795427078e-11
7.67150000000000e+01 3.51970068755430e-10 1.42685424145343e-11
7.73850000000000e+01 2.95932021116079e-10 1.20490869975237e-11
7.80550000000000e+01 2.48815933217038e-10 1.01744839276079e-11
7.87250000000000e+01 2.09201317211906e-10 8.59121601160121e-12
7.93950000000000e+01 1.75893844728268e-10 7.25406023427217e-12
8.00650000000000e+01 1.47889339444041e-10 6.12480421247178e-12
8.07350000000000e+01 1.24343502497104e-10 5.17116095508420e-12
8.14050000000000e+01 1.04546457989270e-10 4.36585134713415e-12
8.20750000000000e+01 8.79013511651470e-11 3.68582848278247e-12
8.27450000000000e+01 7.39063540292439e-11 3.11162195573784e-12
8.34150000000000e+01 6.21395358944344e-11 2.62678358745611e-12
8.40850000000000e+01 5.22461427287811e-11 2.21741892714884e-12
8.47550000000000e+01 4.39279017898273e-11 1.87179127251331e-12
8.54250000000000e+01 3.69340290951988e-11 1.57998700352431e-12
8.60950000000000e+01 3.10536686166261e-11 1.33363275059310e-12
8.67650000000000e+01 2.61095352490689e-11 1.12565638118197e-12
8.74350000000000e+01 2.19525698988552e-11 9.50085026449604e-13
8.81050000000000e+01 1.84574455487985e-11 8.01874416315377e-13
8.87750000000000e+01 1.55187888140890e-11 6.76764676785777e-13
8.94450000000000e+01 1.30480030738583e-11 5.71158492302279e-13
9.01150000000000e+01 1.09705974000271e-11 4.82018169258364e-13
9.07850000000000e+01 9.22394075416883e-12 4.06778672479153e-13
9.14550000000000e+01 7.75537374438756e-12 3.43274159413965e-13
9.21250000000000e+01 6.52062101417473e-12 2.89675919800244e-13
9.27950000000000e+01 5.48245639886370e-12 2.44439952398306e-13
9.34650000000000e+01 4.60958060591191e-12 2.06262684193560e-13
9.41350000000000e+01 3.87567758255281e-12 1.74043568935714e-13
9.48050000000000e+01 3.25862112154796e-12 1.46853497563987e-13
9.54750000000000e+01 2.73980778525036e-12 1.23908118478928e-13
9.61450000000000e+01 2.30359603652007e-12 1.04545305438963e-13
9.68150000000000e+01 1.93683466702978e-12 8.82061290369304e-14
9.74850000000000e+01 1.62846630569625e-12 7.44187875926150e-14
9.81550000000000e+01 1.36919405354036e-12 6.27850377098175e-14
9.88250000000000e+01 1.15120119445686e-12 5.29687360826482e-14
9.94950000000000e+01 9.67915531543637e-13 4.46861644180567e-14
1.00165000000000e+02 8.13811244041850e-13 3.76978602804251e-14
1.00835000000000e+02 6.84242291135386e-13 3.18017197054430e-14
1.01505000000000e+02 5.75302339954062e-13 2.68271737970885e-14
1.02175000000000e+02 4.83706994794818e-13 2.26302722470402e-14
1.02845000000000e+02 4.06694776927411e-13 1.90895326740638e-14
1.03515000000000e+02 3.41943869656458e-13 1.61024366105364e-14
1.04185000000000e+02 2.87502118613395e-13 1.35824714886959e-14
1.04855000000000e+02 2.41728176879540e-13 1.14566336281732e-14
1.05525000000000e+02 2.03242020543440e-13 9.66332044496163e-15
1.06195000000000e+02 1.70883342801881e-13 8.15055126716280e-15
1.06865000000000e+02 1.43676572241634e-13 6.87446557322647e-15
1.07535000000000e+02 1.20801460649318e-13 5.79805543318970e-15
1.08205000000000e+02 1.01568353610681e-13 4.89009566012131e-15
1.08875000000000e+02 8.53973983405020e-14 4.12424085982334e-15
1.09545000000000e+02 7.18010618866572e-14 3.47826336425299e-15
1.10215000000000e+02 6.03694326552626e-14 2.93341008533667e-15
1.10885000000000e+02 5.07578621172947e-14 2.47385974679229e-15
1.11555000000000e+02 4.26765741104527e-14 2.08626484020217e-15
1.12225000000000e+02 3.58819284704349e-14 1.75936509063233e-15
1.12895000000000e+02 3.01690756016438e-14 1.48366127646932e-15
1.13565000000000e+02 2.53657805323269e-14 1.25113998688716e-15
1.14235000000000e+02 2.13272302575659e-14 1.05504136833352e-15
1.14905000000000e+02 1.79316678183650e-14 8.89663150760039e-16
1.15575000000000e+02 1.50767214900828e-14 7.50195290592780e-16
1.16245000000000e+02 1.26763184100881e-14 6.32580450691991e-16
1.16915000000000e+02 1.06580895945870e-14 5.33396283161710e-16
1.17585000000000e+02 8.96118810930486e-15 4.49756110268225e-16
1.18255000000000e+02 7.53445461474924e-15 3.79225130009067e-16
1.18925000000000e+02 6.33487497966603e-15 3.19749721322261e-16
1.19595000000000e+02 5.32628346177042e-15 2.69597802442655e-16
1.20265000000000e+02 4.47827235836385e-15 2.27308515393828e-16
1.20935000000000e+02 3.76527525424258e-15 1.91649779249946e-16
1.21605000000000e+02 3.16579622803274e-15 1.61582482379200e-16
1.22275000000000e+02 2.66176177854025e-15 1.36230275947069e-16
1.22945000000000e+02 2.23797593255092e-15 1.14854093049954e-16
1.23615000000000e+02 1.88166210630010e-15 9.68306546418986e-17
1.24285000000000e+02 1.58207790834014e-15 8.16343388549452e-17
1.24955000000000e+02 1.33019127062057e-15 6.88218877280690e-17
1.25625000000000e+02 1.11840814356075e-15 5.80195075625746e-17
1.26295000000000e+02 9.40343545480838e-16 4.89119884866814e-17
1.26965000000000e+02 7.90629063833743e-16 4.12335273423583e-17
1.27635000000000e+02 6.64751004654351e-16 3.47599873942998e-17
1.28305000000000e+02 5.58914310645545e-16 2.93023700316317e-17
1.28975000000000e+02 4.69928145211024e-16 2.47013087921711e-17
1.29645000000000e+02 3.95109692944546e-16 2.08224257036192e-17
1.30315000000000e+02 3.32203276287336e-16 1.75524149640305e-17
1.30985000000000e+02 2.79312349827695e-16 1.47957400994911e-17
1.31655000000000e+02 2.34842321960696e-16 1.24718485513185e-17
1.32325000000000e+02 1.97452480056514e-16 1.05128226740261e-17
1.32995000000000e+02 1.66015569744679e-16 8.86139880403067e-18
1.33665000000000e+02 1.39583809683028e-16 8.11532771222830e-18
