Energy (eV)          EEDF (eV^-(3/2))     First Anisotropy
3.48148148148148e-03 2.80096339790957e+00 1.97263407291811e-03
1.04444444444444e-02 2.76528213749840e+00 3.24754940484067e-03
1.74074074074074e-02 2.73005541800072e+00 4.26117020857554e-03
2.43703703703704e-02 2.69527744894451e+00 5.01560768846423e-03
3.13333333333333e-02 2.66094251375452e+00 5.63202502111097e-03
3.82962962962963e-02 2.62704496878298e+00 6.15664125459394e-03
4.52592592592593e-02 2.59357924203635e+00 6.61357735636065e-03
5.22222222222222e-02 2.56053983268907e+00 7.01751914580084e-03
5.91851851851852e-02 2.52792130985139e+00 7.37828513414822e-03
6.61481481481482e-02 2.49571831188413e+00 7.70286991232786e-03
7.31111111111111e-02 2.46392554549663e+00 7.99649164428764e-03
8.00740740740741e-02 2.43253778473527e+00 8.26318250950473e-03
8.70370370370370e-02 2.40154987026551e+00 8.50614582371158e-03
9.40000000000000e-02 2.37095670851157e+00 8.72798417559415e-03
1.00962962962963e-01 2.34075327071491e+00 8.93085162653460e-03
1.07925925925926e-01 2.31093459234306e+00 9.11655899957818e-03
1.14888888888889e-01 2.28149577183769e+00 9.28664887234514e-03
1.21851851851852e-01 2.25243197022038e+00 9.44245037323465e-03
1.28814814814815e-01 2.22373841015574e+00 9.58512015880431e-03
1.35777777777778e-01 2.19541037516622e+00 9.71567357852645e-03
1.42740740740741e-01 2.16744320885690e+00 9.83500880855464e-03
1.49703703703704e-01 2.13983231415013e+00 9.94392581332598e-03
1.56666666666667e-01 2.11257315252994e+00 1.00431414415613e-02
1.63629629629630e-01 2.08566124329604e+00 1.01333015881944e-02
1.70592592592593e-01 2.05909216282734e+00 1.02149910981282e-02
1.77555555555556e-01 2.03286154385484e+00 1.02887419100274e-02
1.84518518518519e-01 2.00696507474377e+00 1.03550398126737e-02
1.91481481481482e-01 1.98139849878487e+00 1.04143300961101e-02
1.98444444444444e-01 1.95615761349451e+00 1.04670223138023e-02
2.05407407407407e-01 1.93123826992437e+00 1.05134943236104e-02
2.12370370370370e-01 1.90663637197927e+00 1.05540957388165e-02
2.19333333333333e-01 1.88234787574380e+00 1.05891508927924e-02
2.26296296296296e-01 1.85836878881766e+00 1.06189614000780e-02
2.33259259259259e-01 1.83469516965939e+00 1.06438083802536e-02
2.40222222222222e-01 1.81132312693852e+00 1.06639543983691e-02
2.47185185185185e-01 1.78824881889590e+00 1.06796451657512e-02
2.54148148148148e-01 1.76546845271226e+00 1.06911110371474e-02
2.61111111111111e-01 1.74297828388472e+00 1.06985683338913e-02
2.68074074074074e-01 1.72077461561135e+00 1.07022205177441e-02
2.75037037037037e-01 1.69885379818346e+00 1.07022592359888e-02
2.82000000000000e-01 1.67721222838571e+00 1.06988652467366e-02
2.88962962962963e-01 1.65584634897476e+00 1.06922092809074e-02
2.95925925925926e-01 1.63475264787840e+00 1.06824527773304e-02
3.02888888888889e-01 1.61392765783796e+00 1.06697485435529e-02
3.09851851851852e-01 1.59336795576388e+00 1.06542413950937e-02
3.16814814814815e-01 1.57307016217306e+00 1.06360687021909e-02
3.23777777777778e-01 1.55303094063338e+00 1.06153608946571e-02
3.30740740740741e-01 1.53324699721526e+00 1.05922419217010e-02
3.37703703703704e-01 1.51371507995021e+00 1.05668296716890e-02
3.44666666666667e-01 1.49443197829634e+00 1.05392363561675e-02
3.51629629629630e-01 1.47539452261057e+00 1.05095688619207e-02
3.58592592592593e-01 1.45659958362767e+00 1.04779290743652e-02
3.65555555555556e-01 1.43804407194588e+00 1.04444141751822e-02
3.72518518518519e-01 1.41972493751906e+00 1.04091169167424e-02
3.79481481481481e-01 1.40163916915539e+00 1.03721258755793e-02
3.86444444444444e-01 1.38378379402235e+00 1.03335256868831e-02
3.93407407407407e-01 1.36615587715814e+00 1.02933972618180e-02
4.00370370370370e-01 1.34875252098919e+00 1.02518179892310e-02
4.07333333333333e-01 1.33157086485394e+00 1.02088619231263e-02
4.14296296296296e-01 1.31460808453253e+00 1.01645999571838e-02
4.21259259259259e-01 1.29786139178265e+00 1.01190999874356e-02
4.28222222222222e-01 1.28132803388118e+00 1.00724270641068e-02
4.35185185185185e-01 1.26500529317172e+00 1.00246435335231e-02
4.42148148148148e-01 1.24889048661789e+00 9.97580917090126e-03
4.49111111111111e-01 1.23298096536232e+00 9.92598130475634e-03
4.56074074074074e-01 1.21727411429120e+00 9.87521493358866e-03
4.63037037037037e-01 1.20176735160448e+00 9.82356283545154e-03
4.70000000000000e-01 1.18645812839144e+00 9.77107566637973e-03
4.76962962962963e-01 1.17134392824198e+00 9.71780207114854e-03
4.83925925925926e-01 1.15642226674109e+00 9.66378876524905e-03
4.90888888888889e-01 1.14169069115362e+00 9.60908061145341e-03
4.97851851851852e-01 1.12714677998956e+00 9.55372071541419e-03
5.04814814814815e-01 1.11278814260614e+00 9.49775049753679e-03
5.11777777777778e-01 1.09861241881475e+00 9.44120976551034e-03
5.18740740740741e-01 1.08461727849308e+00 9.38413678293484e-03
5.25703703703704e-01 1.07080042120204e+00 9.32656833430951e-03
5.32666666666667e-01 1.05715957580768e+00 9.26853978662357e-03
5.39629629629630e-01 1.04369250010783e+00 9.21008514777194e-03
5.46592592592593e-01 1.03039698046357e+00 9.15123712200104e-03
5.53555555555556e-01 1.01727083143537e+00 9.09202716257353e-03
5.60518518518519e-01 1.00431189542383e+00 9.03248552182614e-03
5.67481481481481e-01 9.91518042315042e-01 8.97264129878402e-03
5.74444444444444e-01 9.78887169130446e-01 8.91252248447140e-03
5.81407407407407e-01 9.66417199681184e-01 8.85215600506956e-03
5.88370370370370e-01 9.54106084226802e-01 8.79156776304990e-03
5.95333333333333e-01 9.41951799138338e-01 8.73078267638654e-03
6.02296296296296e-01 9.29952346565681e-01 8.66982471597257e-03
6.09259259259259e-01 9.18105754109181e-01 8.60871694133767e-03
6.16222222222222e-01 9.06410074495436e-01 8.54748153476276e-03
6.23185185185185e-01 8.94863385257211e-01 8.48613983388232e-03
6.30148148148148e-01 8.83463788417433e-01 8.42471236285608e-03
6.37111111111111e-01 8.72209410177215e-01 8.36321886218736e-03
6.44074074074074e-01 8.61098400607851e-01 8.30167831726274e-03
6.51037037037037e-01 8.50128933346735e-01 8.24010898567917e-03
6.58000000000000e-01 8.39299205297153e-01 8.17852842069004e-03
6.64962962962963e-01 8.28607436347206e-01 8.11695350457004e-03
6.71925925925926e-01 8.18051869030758e-01 8.05540046711324e-03
6.78888888888889e-01 8.07630768285554e-01 7.99388490301793e-03
6.85851851851852e-01 7.97342421152162e-01 7.93242180261874e-03
6.92814814814815e-01 7.87185136492413e-01 7.87102557024569e-03
6.99777777777778e-01 7.77157244711416e-01 7.80971004463464e-03
7.06740740740741e-01 7.67257097483121e-01 7.74848851853387e-03
7.13703703703704e-01 7.57483067479379e-01 7.68737375754761e-03
7.20666666666667e-01 7.47833548102449e-01 7.62637801825065e-03
7.27629629629630e-01 7.38306953220917e-01 7.56551306560909e-03
7.34592592592593e-01 7.28901716908975e-01 7.50479018973926e-03
7.41555555555556e-01 7.19616293189025e-01 7.44422022203458e-03
7.48518518518519e-01 7.10449155777560e-01 7.38381355068962e-03
7.55481481481482e-01 7.01398797834281e-01 7.32358013564987e-03
7.62444444444444e-01 6.92463731714407e-01 7.26352952300666e-03
7.69407407407407e-01 6.83642488724157e-01 7.20367085886877e-03
7.76370370370370e-01 6.74933618879328e-01 7.14401290273315e-03
7.83333333333333e-01 6.66335690666956e-01 7.08456404037098e-03
7.90296296296296e-01 6.57847290810009e-01 7.02533229625359e-03
7.97259259259259e-01 6.49467024035086e-01 6.96632534553655e-03
8.04222222222222e-01 6.41193512843066e-01 6.90755052562199e-03
8.11185185185185e-01 6.33025397282685e-01 6.84901484731486e-03
8.18148148148148e-01 6.24961334726995e-01 6.79072500559102e-03
8.25111111111111e-01 6.16999999652669e-01 6.73268738999275e-03
8.32074074074074e-01 6.09140083422122e-01 6.67490809466624e-03
8.39037037037037e-01 6.01380294068402e-01 6.61739292805601e-03
8.46000000000000e-01 5.93719356082828e-01 6.56014742056571e-03
8.52962962962963e-01 5.86156010213752e-01 6.50317683877091e-03
8.59925925925926e-01 5.78689013234013e-01 6.44648619069930e-03
8.66888888888889e-01 5.71317137762425e-01 6.39008023073159e-03
8.73851851851852e-01 5.64039172053323e-01 6.33396347313329e-03
8.80814814814815e-01 5.56853919797372e-01 6.27814019815054e-03
8.87777777777778e-01 5.49760199924935e-01 6.22261445965092e-03
8.94740740740741e-01 5.42756846411927e-01 6.16739009251394e-03
9.01703703703704e-01 5.35842708088160e-01 6.11247071978129e-03
9.08666666666667e-01 5.29016648448110e-01 6.05785975957408e-03
9.15629629629630e-01 5.22277545464115e-01 6.00356043178781e-03
9.22592592592593e-01 5.15624291401935e-01 5.94957576457141e-03
9.29555555555556e-01 5.09055792638672e-01 5.89590860059871e-03
9.36518518518519e-01 5.02570969483009e-01 5.84256160314103e-03
9.43481481481481e-01 4.96168755997733e-01 5.78953726194644e-03
9.50444444444445e-01 4.89848099824522e-01 5.73683789893212e-03
9.57407407407407e-01 4.83607962010969e-01 5.68446567369844e-03
9.64370370370370e-01 4.77447316839802e-01 5.63242258887045e-03
9.71333333333333e-01 4.71365151660285e-01 5.58071049527170e-03
9.78296296296296e-01 4.65360466721761e-01 5.52933109693682e-03
9.85259259259259e-01 4.59432275009322e-01 5.47828595596850e-03
9.92222222222222e-01 4.53579602081565e-01 5.42757649724414e-03
9.99185185185185e-01 4.47801485910427e-01 5.37720401654439e-03
1.00614814814815e+00 4.42096976706805e-01 5.32716967065872e-03
1.01311111111111e+00 4.36465136829600e-01 5.27747449612596e-03
1.02007407407407e+00 4.30905040549012e-01 5.22811943195899e-03
1.02703703703704e+00 4.25415773877464e-01 5.17910527092417e-03
1.03400000000000e+00 4.19996434573220e-01 5.13043269401964e-03
1.04096296296296e+00 4.14646131836189e-01 5.08210229768759e-03
1.04792592592593e+00 4.09363986214143e-01 5.03411457250407e-03
1.05488888888889e+00 4.04149129411394e-01 4.98646988679402e-03
1.06185185185185e+00 3.99000704288094e-01 4.93916851157655e-03
1.06881481481481e+00 3.93917864575468e-01 4.89221065585089e-03
1.07577777777778e+00 3.88899774741202e-01 4.84559640619349e-03
1.08274074074074e+00 3.83945609986212e-01 4.79932576163286e-03
1.08970370370370e+00 3.79054555973167e-01 4.75339866717696e-03
1.09666666666667e+00 3.74225808696804e-01 4.70781495603752e-03
1.10362962962963e+00 3.69458574478567e-01 4.66257438275461e-03
1.11059259259259e+00 3.64752069707759e-01 4.61767664596057e-03
1.11755555555556e+00 3.60105520756029e-01 4.57312136982492e-03
1.12451851851852e+00 3.55518163811652e-01 4.52890808966104e-03
1.13148148148148e+00 3.50989244871195e-01 4.48503627280486e-03
1.13844444444444e+00 3.46518019496824e-01 4.44150534831044e-03
1.14540740740741e+00 3.42103752697609e-01 4.39831465508915e-03
1.15237037037037e+00 3.37745718919512e-01 4.35546347128139e-03
1.15933333333333e+00 3.33443201813875e-01 4.31295103433642e-03
1.16629629629630e+00 3.29195494157592e-01 4.27077652422902e-03
1.17325925925926e+00 3.25001897703022e-01 4.22893905037649e-03
1.18022222222222e+00 3.20861723165840e-01 4.18743767005955e-03
1.18718518518519e+00 3.16774290007855e-01 4.14627141479700e-03
1.19414814814815e+00 3.12738926328254e-01 4.10543924377062e-03
1.20111111111111e+00 3.08754968850253e-01 4.06494006988558e-03
1.20807407407407e+00 3.04821762713728e-01 4.02477278486143e-03
1.21503703703704e+00 3.00938661370522e-01 3.98493621466937e-03
1.22200000000000e+00 2.97105026570097e-01 3.94542914433971e-03
1.22896296296296e+00 2.93320228161546e-01 3.90625033487918e-03
1.23592592592593e+00 2.89583644021419e-01 3.86739850868864e-03
1.24288888888889e+00 2.85894659923388e-01 3.82887233812121e-03
1.24985185185185e+00 2.82252669522509e-01 3.79067046100621e-03
1.25681481481481e+00 2.78657074169276e-01 3.75279150297024e-03
1.26377777777778e+00 2.75107282813776e-01 3.71523403738798e-03
1.27074074074074e+00 2.71602711989245e-01 3.67799660745065e-03
1.27770370370370e+00 2.68142785634435e-01 3.64107774742822e-03
1.28466666666667e+00 2.64726935001311e-01 3.60447594434355e-03
1.29162962962963e+00 2.61354598638071e-01 3.56818965898535e-03
1.29859259259259e+00 2.58025222219438e-01 3.53221734020526e-03
1.30555555555556e+00 2.54738258481636e-01 3.49655741225583e-03
1.31251851851852e+00 2.51493167109065e-01 3.46120826479909e-03
1.31948148148148e+00 2.48289414716489e-01 3.42616826602767e-03
1.32644444444444e+00 2.45126474689475e-01 3.39143578160495e-03
1.33340740740741e+00 2.42003827099948e-01 3.35700914019760e-03
1.34037037037037e+00 2.38920958688020e-01 3.32288665221029e-03
1.34733333333333e+00 2.35877362709499e-01 3.28906662247812e-03
1.35429629629630e+00 2.32872538875585e-01 3.25554733882101e-03
1.36125925925926e+00 2.29905993250016e-01 3.22232706298251e-03
1.36822222222222e+00 2.26977238230418e-01 3.18940404227848e-03
1.37518518518519e+00 2.24085792404875e-01 3.15677652650249e-03
1.38214814814815e+00 2.21231180474616e-01 3.12444273691292e-03
1.38911111111111e+00 2.18412933235197e-01 3.09240088293903e-03
1.39607407407407e+00 2.15630587439337e-01 3.06064917829439e-03
1.40303703703704e+00 2.12883685722498e-01 3.02918581128777e-03
1.41000000000000e+00 2.10171776583987e-01 2.99800896075456e-03
1.41696296296296e+00 2.07494414255787e-01 2.96711680682989e-03
1.42392592592593e+00 2.04851158648494e-01 2.93650752101144e-03
1.43088888888889e+00 2.02241575261723e-01 2.90617925825644e-03
1.43785185185185e+00 1.99665235165039e-01 2.87613016686922e-03
1.44481481481481e+00 1.97121714874478e-01 2.84635840289727e-03
1.45177777777778e+00 1.94610596284454e-01 2.81686210340013e-03
1.45874074074074e+00 1.92131466648706e-01 2.78763940068191e-03
1.46570370370370e+00 1.89683918462175e-01 2.75868843602565e-03
1.47266666666667e+00 1.87267549395439e-01 2.73000733409839e-03
1.47962962962963e+00 1.84881962275762e-01 2.70159421652494e-03
1.48659259259259e+00 1.82526764974081e-01 2.67344721104999e-03
1.49355555555556e+00 1.80201570356633e-01 2.64556444290925e-03
1.50051851851852e+00 1.77905996206856e-01 2.61794402793994e-03
1.50748148148148e+00 1.75639665206483e-01 2.59058408098971e-03
1.51444444444444e+00 1.73402204829073e-01 2.56348272819670e-03
1.52140740740741e+00 1.71193247280044e-01 2.53663808393094e-03
1.52837037037037e+00 1.69012429477913e-01 2.51004826293980e-03
1.53533333333333e+00 1.66859392952421e-01 2.48371138851529e-03
1.54229629629630e+00 1.64733783799844e-01 2.45762558469058e-03
1.54925925925926e+00 1.62635252612004e-01 2.43178896999384e-03
1.55622222222222e+00 1.60563454457693e-01 2.40619966494360e-03
1.56318518518519e+00 1.58518048786676e-01 2.38085580304603e-03
1.57014814814815e+00 1.56498699374799e-01 2.35575551001185e-03
1.57711111111111e+00 1.54505074305648e-01 2.33089691462325e-03
1.58407407407407e+00 1.52536845878626e-01 2.30627815922903e-03
1.59103703703704e+00 1.50593690556133e-01 2.28189737983859e-03
1.59800000000000e+00 1.48675288945475e-01 2.25775271649772e-03
1.60496296296296e+00 1.46781325710865e-01 2.23384232025453e-03
1.61192592592593e+00 1.44911489533559e-01 2.21016434638054e-03
1.61888888888889e+00 1.43065473049895e-01 2.18671694892615e-03
1.62585185185185e+00 1.41242972833493e-01 2.16349828711319e-03
1.63281481481481e+00 1.39443689312283e-01 2.14050653473897e-03
1.63977777777778e+00 1.37667326720173e-01 2.11773986222479e-03
1.64674074074074e+00 1.35913593079542e-01 2.09519644591196e-03
1.65370370370370e+00 1.34182200121776e-01 2.07287447704359e-03
1.66066666666667e+00 1.32472863240745e-01 2.05077214456752e-03
1.66762962962963e+00 1.30785301475605e-01 2.02888764401188e-03
1.67459259259259e+00 1.29119237434702e-01 2.00721918343500e-03
1.68155555555556e+00 1.27474397260050e-01 1.98576497753455e-03
1.68851851851852e+00 1.25850510573226e-01 1.96452324290176e-03
1.69548148148148e+00 1.24247310458525e-01 1.94349220348073e-03
1.70244444444444e+00 1.22664533391166e-01 1.92267009862016e-03
1.70940740740741e+00 1.21101919194747e-01 1.90205516755670e-03
1.71637037037037e+00 1.19559211024723e-01 1.88164565737717e-03
1.72333333333333e+00 1.18036155299636e-01 1.86143982833784e-03
1.73029629629630e+00 1.16532501668391e-01 1.84143594853239e-03
1.73725925925926e+00 1.15048002961016e-01 1.82163228958779e-03
1.74422222222222e+00 1.13582415172543e-01 1.80202713154464e-03
1.75118518518519e+00 1.12135497398121e-01 1.78261877008469e-03
1.75814814814815e+00 1.10707011794082e-01 1.76340550252518e-03
1.76511111111111e+00 1.09296723562167e-01 1.74438563496008e-03
1.77207407407407e+00 1.07904400887345e-01 1.72555748916418e-03
1.77903703703704e+00 1.06529814900349e-01 1.70691938917236e-03
1.78600000000000e+00 1.05172739662242e-01 1.68846966810390e-03
1.79296296296296e+00 1.03832952104844e-01 1.67020667271510e-03
1.79992592592593e+00 1.02510232001624e-01 1.65212875876307e-03
1.80688888888889e+00 1.01204361924668e-01 1.63423428725297e-03
1.81385185185185e+00 9.99151272296672e-02 1.61652162861439e-03
1.82081481481481e+00 9.86423159996759e-02 1.59898916890070e-03
1.82777777777778e+00 9.73857190108402e-02 1.58163529766958e-03
1.83474074074074e+00 9.61451297177398e-02 1.56445841411062e-03
1.84170370370370e+00 9.49203441994808e-02 1.54745693297087e-03
1.84866666666667e+00 9.37111611267083e-02 1.53062927293965e-03
1.85562962962963e+00 9.25173817473053e-02 1.51397386250384e-03
1.86259259259259e+00 9.13388098347251e-02 1.49748914384798e-03
1.86955555555556e+00 9.01752516621360e-02 1.48117356882175e-03
1.87651851851852e+00 8.90265159647878e-02 1.46502559566753e-03
1.88348148148148e+00 8.78924139261383e-02 1.44904369259757e-03
1.89044444444444e+00 8.67727591290532e-02 1.43322634311692e-03
1.89740740740741e+00 8.56673675256425e-02 1.41757203552947e-03
1.90437037037037e+00 8.45760574237298e-02 1.40207926820063e-03
1.91133333333333e+00 8.34986494400762e-02 1.38674655305170e-03
1.91829629629630e+00 8.24349664765960e-02 1.37157241190658e-03
1.92525925925926e+00 8.13848336860836e-02 1.35655537352225e-03
1.93222222222222e+00 8.03480784591174e-02 1.34169397679347e-03
1.93918518518519e+00 7.93245303798739e-02 1.32698677553915e-03
1.94614814814815e+00 7.83140211985331e-02 1.31243232901869e-03
1.95311111111111e+00 7.73163848185220e-02 1.29802920666073e-03
1.96007407407407e+00 7.63314572541465e-02 1.28377599263848e-03
1.96703703703704e+00 7.53590766040358e-02 1.26967127677853e-03
1.97400000000000e+00 7.43990830387238e-02 1.25571365908281e-03
1.98096296296296e+00 7.34513187600277e-02 1.24190175272697e-03
1.98792592592593e+00 7.25156279799449e-02 1.22823418088049e-03
1.99488888888889e+00 7.15918568906650e-02 1.21470957411630e-03
2.00185185185185e+00 7.06798536525700e-02 1.20132657316022e-03
2.00881481481481e+00 6.97794683558483e-02 1.18808383300584e-03
2.01577777777778e+00 6.88905529962071e-02 1.17498001469545e-03
2.02274074074074e+00 6.80129614631994e-02 1.16201378938691e-03
2.02970370370370e+00 6.71465495034114e-02 1.14918384228941e-03
2.03666666666667e+00 6.62911746970862e-02 1.13648886478328e-03
2.04362962962963e+00 6.54466964467758e-02 1.12392755830857e-03
2.05059259259259e+00 6.46129759420389e-02 1.11149863693981e-03
2.05755555555556e+00 6.37898761407295e-02 1.09920082461741e-03
2.06451851851852e+00 6.29772617427486e-02 1.08703285288744e-03
2.07148148148148e+00 6.21749991790956e-02 1.07499346326195e-03
2.07844444444444e+00 6.13829565784968e-02 1.06308141075967e-03
2.08540740740741e+00 6.06010037460308e-02 1.05129545677894e-03
2.09237037037037e+00 5.98290121524876e-02 1.03963437259793e-03
2.09933333333333e+00 5.90668549023627e-02 1.02809694168523e-03
2.10629629629630e+00 5.83144067166661e-02 1.01668195718957e-03
2.11325925925926e+00 5.75715439090027e-02 1.00538821988763e-03
2.12022222222222e+00 5.68381443753215e-02 9.94214540302001e-04
2.12718518518519e+00 5.61140875636579e-02 9.83159741889496e-04
2.13414814814815e+00 5.53992544545815e-02 9.72222654593415e-04
2.14111111111111e+00 5.46935275512420e-02 9.61402117993216e-04
2.14807407407407e+00 5.39967908503410e-02 9.50696984353851e-04
2.15503703703704e+00 5.33089298233170e-02 9.40106112442856e-04
2.16200000000000e+00 5.26298314066821e-02 9.29628370543803e-04
2.16896296296296e+00 5.19593839741761e-02 9.19262638442819e-04
2.17592592592593e+00 5.12974773215380e-02 9.09007805241605e-04
2.18288888888889e+00 5.06440026455595e-02 8.98862767566139e-04
2.18985185185185e+00 4.99988525347854e-02 8.88826431387122e-04
2.19681481481481e+00 4.93619209431806e-02 8.78897714766251e-04
