Energy (eV)          EEDF (eV^-(3/2))     First Anisotropy
2.34090909090909e-03 6.83197083418932e+00 5.19707926625919e-03
7.02272727272727e-03 6.72598058210760e+00 8.54400946463039e-03
1.17045454545455e-02 6.62163464816151e+00 1.11792437785957e-02
1.63863636363636e-02 6.51890752283999e+00 1.31215365502527e-02
2.10681818181818e-02 6.41777409182541e+00 1.46927571976557e-02
2.57500000000000e-02 6.31820963081183e+00 1.60162251567171e-02
3.04318181818182e-02 6.22018979903416e+00 1.71565652392867e-02
3.51136363636364e-02 6.12369063334253e+00 1.81532799656347e-02
3.97954545454545e-02 6.02868854234822e+00 1.90328806570332e-02
4.44772727272727e-02 5.93516030085799e+00 1.98143232637714e-02
4.91590909090909e-02 5.84308304355367e+00 2.05117993418078e-02
5.38409090909091e-02 5.75243426007424e+00 2.11363118270294e-02
5.85227272727273e-02 5.66319178927625e+00 2.16966297059084e-02
6.32045454545455e-02 5.57533381382434e+00 2.21998987775179e-02
6.78863636363636e-02 5.48883885497362e+00 2.26520498883516e-02
7.25681818181818e-02 5.40368576694753e+00 2.30580816847682e-02
7.72500000000000e-02 5.31985373215073e+00 2.34222624173534e-02
8.19318181818182e-02 5.23732225594783e+00 2.37482777131018e-02
8.66136363636364e-02 5.15607116165421e+00 2.40393411260043e-02
9.12954545454546e-02 5.07608058560398e+00 2.42982784501747e-02
9.59772727272727e-02 4.99733097237017e+00 2.45275931273600e-02
1.00659090909091e-01 4.91980306974754e+00 2.47295177062083e-02
1.05340909090909e-01 4.84347792428798e+00 2.49060548750802e-02
1.10022727272727e-01 4.76833687670692e+00 2.50590106338923e-02
1.14704545454545e-01 4.69436155706105e+00 2.51900213659353e-02
1.19386363636364e-01 4.62153387983423e+00 2.53005759585402e-02
1.24068181818182e-01 4.54983604124968e+00 2.53920344197223e-02
1.28750000000000e-01 4.47925051313498e+00 2.54656434859170e-02
1.33431818181818e-01 4.40976003924634e+00 2.55225495837842e-02
1.38113636363636e-01 4.34134763105272e+00 2.55638100181867e-02
1.42795454545455e-01 4.27399656358425e+00 2.55904025413931e-02
1.47477272727273e-01 4.20769037092897e+00 2.56032334519811e-02
1.52159090909091e-01 4.14241284347129e+00 2.56031447728397e-02
1.56840909090909e-01 4.07814802263410e+00 2.55909205072796e-02
1.61522727272727e-01 4.01488019741730e+00 2.55672919298786e-02
1.66204545454545e-01 3.95259390056298e+00 2.55329424034391e-02
1.70886363636364e-01 3.89127390444128e+00 2.54885114744306e-02
1.75568181818182e-01 3.83090521833704e+00 2.54345986452159e-02
1.80250000000000e-01 3.77147308375270e+00 2.53717667355131e-02
1.84931818181818e-01 3.71296297115147e+00 2.53005447262860e-02
1.89613636363636e-01 3.65536057640633e+00 2.52214304265048e-02
1.94295454545455e-01 3.59865181730400e+00 2.51348928641873e-02
1.98977272727273e-01 3.54282282984473e+00 2.50413743388940e-02
2.03659090909091e-01 3.48785996563710e+00 2.49412923993795e-02
2.08340909090909e-01 3.43374978776090e+00 2.48350416409828e-02
2.13022727272727e-01 3.38047906775331e+00 2.47229952065733e-02
2.17704545454545e-01 3.32803478237789e+00 2.46055062785201e-02
2.22386363636364e-01 3.27640411022661e+00 2.44829093260977e-02
2.27068181818182e-01 3.22557442923497e+00 2.43555213550102e-02
2.31750000000000e-01 3.17553331293383e+00 2.42236430575396e-02
2.36431818181818e-01 3.12626852763628e+00 2.40875597534336e-02
2.41113636363636e-01 3.07776802944737e+00 2.39475423463783e-02
2.45795454545455e-01 3.03001996132022e+00 2.38038482027569e-02
2.50477272727273e-01 2.98301264998555e+00 2.36567218869427e-02
2.55159090909091e-01 2.93673460362054e+00 2.35063959352198e-02
2.59840909090909e-01 2.89117450850701e+00 2.33530915768096e-02
2.64522727272727e-01 2.84632122644561e+00 2.31970193038187e-02
2.69204545454545e-01 2.80216379203443e+00 2.30383794962518e-02
2.73886363636364e-01 2.75869140984243e+00 2.28773629169091e-02
2.78568181818182e-01 2.71589345221278e+00 2.27141512558147e-02
2.83250000000000e-01 2.67375945621422e+00 2.25489176416238e-02
2.87931818181818e-01 2.63227912123573e+00 2.23818270315382e-02
2.92613636363636e-01 2.59144230646871e+00 2.22130366455750e-02
2.97295454545455e-01 2.55123902842807e+00 2.20426963709821e-02
3.01977272727273e-01 2.51165945839180e+00 2.18709490828657e-02
3.06659090909091e-01 2.47269392036233e+00 2.16979310175092e-02
3.11340909090909e-01 2.43433288833053e+00 2.15237721258981e-02
3.16022727272727e-01 2.39656698407212e+00 2.13485963299006e-02
3.20704545454545e-01 2.35938697485582e+00 2.11725218370764e-02
3.25386363636364e-01 2.32278377108311e+00 2.09956613701361e-02
3.30068181818182e-01 2.28674842437900e+00 2.08181224479647e-02
3.34750000000000e-01 2.25127212508621e+00 2.06400076532742e-02
3.39431818181818e-01 2.21634620021914e+00 2.04614148173300e-02
3.44113636363636e-01 2.18196211134380e+00 2.02824372486104e-02
3.48795454545455e-01 2.14811145249048e+00 2.01031639473439e-02
3.53477272727273e-01 2.11478594801278e+00 1.99236797630044e-02
3.58159090909091e-01 2.08197745082597e+00 1.97440656000928e-02
3.62840909090909e-01 2.04967794014940e+00 1.95643986152531e-02
3.67522727272727e-01 2.01787951963553e+00 1.93847523447488e-02
3.72204545454545e-01 1.98657441543996e+00 1.92051968830604e-02
3.76886363636364e-01 1.95575497424615e+00 1.90257989999180e-02
3.81568181818182e-01 1.92541366162151e+00 1.88466223022660e-02
3.86250000000000e-01 1.89554305994465e+00 1.86677273900576e-02
3.90931818181818e-01 1.86613586667010e+00 1.84891719511006e-02
3.95613636363636e-01 1.83718489254309e+00 1.83110108937765e-02
4.00295454545455e-01 1.80868305984214e+00 1.81332964720274e-02
4.04977272727273e-01 1.78062340058551e+00 1.79560783685367e-02
4.09659090909091e-01 1.75299905501981e+00 1.77794038186379e-02
4.14340909090909e-01 1.72580326974790e+00 1.76033177300152e-02
4.19022727272727e-01 1.69902939614380e+00 1.74278627500150e-02
4.23704545454545e-01 1.67267088872759e+00 1.72530793753373e-02
4.28386363636364e-01 1.64672130350990e+00 1.70790060152147e-02
4.33068181818182e-01 1.62117429658448e+00 1.69056790919138e-02
4.37750000000000e-01 1.59602362240675e+00 1.67331331381363e-02
4.42431818181818e-01 1.57126313232462e+00 1.65614008479234e-02
4.47113636363636e-01 1.54688677307535e+00 1.63905131589242e-02
4.51795454545455e-01 1.52288858530578e+00 1.62204993299761e-02
4.56477272727273e-01 1.49926270206830e+00 1.60513869868516e-02
4.61159090909091e-01 1.47600334752978e+00 1.58832022014815e-02
4.65840909090909e-01 1.45310483541416e+00 1.57159695689841e-02
4.70522727272727e-01 1.43056156766138e+00 1.55497122442161e-02
4.75204545454545e-01 1.40836803305905e+00 1.53844520128947e-02
4.79886363636364e-01 1.38651880585353e+00 1.52202093266763e-02
4.84568181818182e-01 1.36500854454965e+00 1.50570033687623e-02
4.89250000000000e-01 1.34383199047683e+00 1.48948521178517e-02
4.93931818181818e-01 1.32298396654676e+00 1.47337723758653e-02
4.98613636363636e-01 1.30245937598777e+00 1.45737798213001e-02
5.03295454545455e-01 1.28225320109886e+00 1.44148890595288e-02
5.07977272727273e-01 1.26236050198739e+00 1.42571136483147e-02
5.12659090909091e-01 1.24277641546970e+00 1.41004661506111e-02
5.17340909090909e-01 1.22349615377228e+00 1.39449581861673e-02
5.22022727272727e-01 1.20451500339845e+00 1.37906004513429e-02
5.26704545454545e-01 1.18582832397614e+00 1.36374027669914e-02
5.31386363636364e-01 1.16743154709190e+00 1.34853740979845e-02
5.36068181818182e-01 1.14932017526985e+00 1.33345225975718e-02
5.40750000000000e-01 1.13148978077499e+00 1.31848556508308e-02
5.45431818181818e-01 1.11393600456355e+00 1.30363798895172e-02
5.50113636363636e-01 1.09665455521740e+00 1.28891012277643e-02
5.54795454545455e-01 1.07964120789491e+00 1.27430248956871e-02
5.59477272727273e-01 1.06289180327087e+00 1.25981554534268e-02
5.64159090909091e-01 1.04640224660237e+00 1.24544968273756e-02
5.68840909090909e-01 1.03016850664390e+00 1.23120523457367e-02
5.73522727272727e-01 1.01418661469005e+00 1.21708247488547e-02
5.78204545454545e-01 9.98452663605429e-01 1.20308162223144e-02
5.82886363636364e-01 9.82962806845259e-01 1.18920284075013e-02
5.87568181818182e-01 9.67713257588487e-01 1.17544624323471e-02
5.92250000000000e-01 9.52700287737481e-01 1.16181189415662e-02
5.96931818181818e-01 9.37920227031782e-01 1.14829981041137e-02
6.01613636363636e-01 9.23369462150859e-01 1.13490996375890e-02
6.06295454545455e-01 9.09044435830765e-01 1.12164228311478e-02
6.10977272727273e-01 8.94941645973491e-01 1.10849665528375e-02
6.15659090909091e-01 8.81057644854571e-01 1.09547292749603e-02
6.20340909090909e-01 8.67389038215551e-01 1.08257090990663e-02
6.25022727272727e-01 8.53932484456005e-01 1.06979037607747e-02
6.29704545454545e-01 8.40684693816680e-01 1.05713106530827e-02
6.34386363636364e-01 8.27642427556502e-01 1.04459268316294e-02
6.39068181818182e-01 8.14802497217644e-01 1.03217490363769e-02
6.43750000000000e-01 8.02161763788408e-01 1.01987737130107e-02
6.48431818181818e-01 7.89717136955274e-01 1.00769970160764e-02
6.53113636363636e-01 7.77465574347430e-01 9.95641482590064e-03
6.57795454545455e-01 7.65404080793006e-01 9.83702276442194e-03
6.62477272727273e-01 7.53529707570537e-01 9.71881619853174e-03
6.67159090909091e-01 7.41839551737584e-01 9.60179025808629e-03
6.71840909090909e-01 7.30330755370870e-01 9.48593985371631e-03
6.76522727272727e-01 7.19000504884522e-01 9.37125967841988e-03
6.81204545454545e-01 7.07846030342283e-01 9.25774422418647e-03
6.85886363636364e-01 6.96864604765754e-01 9.14538778410105e-03
6.90568181818182e-01 6.86053543511969e-01 9.03418446781435e-03
6.95250000000000e-01 6.75410203572232e-01 8.92412821686508e-03
6.99931818181818e-01 6.64931982941109e-01 8.81521280528829e-03
7.04613636363636e-01 6.54616319980326e-01 8.70743185144837e-03
7.09295454545455e-01 6.44460692792526e-01 8.60077882906095e-03
7.13977272727273e-01 6.34462618592006e-01 8.49524706815035e-03
7.18659090909091e-01 6.24619653136399e-01 8.39082976796065e-03
7.23340909090909e-01 6.14929390089954e-01 8.28752000976568e-03
7.28022727272727e-01 6.05389460448462e-01 8.18531075658377e-03
7.32704545454545e-01 5.95997531960143e-01 8.08419486513503e-03
7.37386363636364e-01 5.86751308544054e-01 7.98416508606534e-03
7.42068181818182e-01 5.77648529763404e-01 7.88521407507054e-03
7.46750000000000e-01 5.68686970237835e-01 7.78733440394996e-03
7.51431818181818e-01 5.59864439111227e-01 7.69051855975869e-03
7.56113636363636e-01 5.51178779516104e-01 7.59475895311623e-03
7.60795454545455e-01 5.42627868046345e-01 7.50004792590096e-03
7.65477272727273e-01 5.34209614228074e-01 7.40637775080166e-03
7.70159090909091e-01 5.25921960038948e-01 7.31374064062722e-03
7.74840909090909e-01 5.17762879374276e-01 7.22212875757309e-03
7.79522727272727e-01 5.09730377562063e-01 7.13153421187556e-03
7.84204545454545e-01 5.01822490875397e-01 7.04194907045565e-03
7.88886363636364e-01 4.94037286043390e-01 6.95336535604954e-03
7.93568181818182e-01 4.86372859805797e-01 6.86577505524226e-03
7.98250000000000e-01 4.78827338420111e-01 6.77917012647534e-03
8.02931818181818e-01 4.71398877212805e-01 6.69354249839857e-03
8.07613636363636e-01 4.64085660128364e-01 6.60888407570200e-03
8.12295454545455e-01 4.56885899285317e-01 6.52518674447775e-03
8.16977272727273e-01 4.49797834531262e-01 6.44244237097343e-03
8.21659090909091e-01 4.42819733036498e-01 6.36064280832167e-03
8.26340909090909e-01 4.35949888846143e-01 6.27977990326105e-03
8.31022727272727e-01 4.29186622471256e-01 6.19984549423395e-03
8.35704545454546e-01 4.22528280478268e-01 6.12083141764808e-03
8.40386363636364e-01 4.15973235077664e-01 6.04272950640242e-03
8.45068181818182e-01 4.09519883747569e-01 5.96553159569627e-03
8.49750000000000e-01 4.03166648820161e-01 5.88922952883951e-03
8.54431818181818e-01 3.96911977103336e-01 5.81381515520715e-03
8.59113636363636e-01 3.90754339501000e-01 5.73928033431393e-03
8.63795454545455e-01 3.84692230639250e-01 5.66561693952592e-03
8.68477272727273e-01 3.78724168492110e-01 5.59281685639390e-03
8.73159090909091e-01 3.72848694038168e-01 5.52087198751820e-03
8.77840909090909e-01 3.67064370884691e-01 5.44977425742313e-03
8.82522727272727e-01 3.61369784922935e-01 5.37951561040722e-03
8.87204545454546e-01 3.55763543982455e-01 5.31008801507664e-03
8.91886363636364e-01 3.50244277485125e-01 5.24148346257308e-03
8.96568181818182e-01 3.44810636127151e-01 5.17369397076839e-03
9.01250000000000e-01 3.39461291531901e-01 5.10671158847523e-03
9.05931818181818e-01 3.34194935930994e-01 5.04052839325270e-03
9.10613636363636e-01 3.29010281844588e-01 4.97513649422642e-03
9.15295454545455e-01 3.23906061766630e-01 4.91052803462534e-03
9.19977272727273e-01 3.18881027850024e-01 4.84669518993339e-03
9.24659090909091e-01 3.13933951616630e-01 4.78363017139536e-03
9.29340909090909e-01 3.09063623641677e-01 4.72132522954335e-03
9.34022727272727e-01 3.04268853263241e-01 4.65977265198925e-03
9.38704545454546e-01 2.99548468291167e-01 4.59896476669569e-03
9.43386363636364e-01 2.94901314716024e-01 4.53889394009721e-03
9.48068181818182e-01 2.90326256440573e-01 4.47955258011622e-03
9.52750000000000e-01 2.85822174988257e-01 4.42093313920317e-03
9.57431818181818e-01 2.81387969234407e-01 4.36302811214342e-03
9.62113636363636e-01 2.77022555137051e-01 4.30583003797866e-03
9.66795454545455e-01 2.72724865471901e-01 4.24933150170666e-03
9.71477272727273e-01 2.68493849567484e-01 4.19352513239735e-03
9.76159090909091e-01 2.64328473060294e-01 4.13840360570431e-03
9.80840909090909e-01 2.60227717629756e-01 4.08395964640255e-03
9.85522727272727e-01 2.56190580753378e-01 4.03018602623692e-03
9.90204545454546e-01 2.52216075461668e-01 3.97707556626725e-03
9.94886363636364e-01 2.48303230093272e-01 3.92462113500025e-03
9.99568181818182e-01 2.44451088068277e-01 3.87281564977094e-03
1.00425000000000e+00 2.40658707646791e-01 3.82165208278114e-03
1.00893181818182e+00 2.36925161685307e-01 3.77112345431846e-03
1.01361363636364e+00 2.33249537434362e-01 3.72122283241951e-03
1.01829545454545e+00 2.29630936304776e-01 3.67194333173880e-03
1.02297727272727e+00 2.26068473679627e-01 3.62327813326730e-03
1.02765909090909e+00 2.22561278601863e-01 3.57522047003622e-03
1.03234090909091e+00 2.19108493658616e-01 3.52776361219428e-03
1.03702272727273e+00 2.15709274738758e-01 3.48090089016658e-03
1.04170454545455e+00 2.12362790826615e-01 3.43462568058393e-03
1.04638636363636e+00 2.09068223827387e-01 3.38893142646999e-03
1.05106818181818e+00 2.05824768280307e-01 3.34381162406266e-03
1.05575000000000e+00 2.02631631249571e-01 3.29925980906536e-03
1.06043181818182e+00 1.99488032100851e-01 3.25526957771463e-03
1.06511363636364e+00 1.96393202310464e-01 3.21183457982615e-03
1.06979545454545e+00 1.93346385277511e-01 3.16894851297369e-03
1.07447727272727e+00 1.90346836164272e-01 3.12660514050437e-03
1.07915909090909e+00 1.87393821637088e-01 3.08479827957943e-03
1.08384090909091e+00 1.84486619764997e-01 3.04352178870244e-03
1.08852272727273e+00 1.81624519816944e-01 3.00276958653711e-03
1.09320454545455e+00 1.78806822088079e-01 2.96253564014261e-03
1.09788636363636e+00 1.76032837751634e-01 2.92281398136647e-03
1.10256818181818e+00 1.73301888620847e-01 2.88359869582002e-03
1.10725000000000e+00 1.70613307053647e-01 2.84488391138673e-03
1.11193181818182e+00 1.67966435765649e-01 2.80666381535274e-03
1.11661363636364e+00 1.65360627669484e-01 2.76893264850966e-03
1.12129545454545e+00 1.62795245716616e-01 2.73168470018879e-03
1.12597727272727e+00 1.60269662761981e-01 2.69491432290257e-03
1.13065909090909e+00 1.57783261348787e-01 2.65861592233937e-03
1.13534090909091e+00 1.55335433620154e-01 2.62278394693905e-03
1.14002272727273e+00 1.52925581149386e-01 2.58741290320575e-03
1.14470454545455e+00 1.50553114793713e-01 2.55249734587037e-03
1.14938636363636e+00 1.48217454568707e-01 2.51803189122231e-03
1.15406818181818e+00 1.45918029450461e-01 2.48401120788527e-03
1.15875000000000e+00 1.43654277292664e-01 2.45043000721081e-03
1.16343181818182e+00 1.41425644670052e-01 2.41728305722747e-03
1.16811363636364e+00 1.39231586743120e-01 2.38456517764442e-03
1.17279545454545e+00 1.37071567124933e-01 2.35227123562194e-03
1.17747727272727e+00 1.34945057766406e-01 2.32039615768753e-03
1.18215909090909e+00 1.32851538777391e-01 2.28893492136444e-03
1.18684090909091e+00 1.30790498349966e-01 2.25788254645597e-03
1.19152272727273e+00 1.28761432616306e-01 2.22723410752333e-03
1.19620454545455e+00 1.26763845525539e-01 2.19698472565768e-03
1.20088636363636e+00 1.24797248737329e-01 2.16712957933628e-03
1.20556818181818e+00 1.22861161457353e-01 2.13766389670376e-03
1.21025000000000e+00 1.20955110365419e-01 2.10858294753952e-03
1.21493181818182e+00 1.19078629484347e-01 2.07988205463043e-03
1.21961363636364e+00 1.17231260066061e-01 2.05155658954119e-03
1.22429545454545e+00 1.15412550479444e-01 2.02360196901660e-03
1.22897727272727e+00 1.13622056113161e-01 1.99601366469089e-03
1.23365909090909e+00 1.11859339226786e-01 1.96878719608192e-03
1.23834090909091e+00 1.10123968884424e-01 1.94191812330268e-03
1.24302272727273e+00 1.08415520835644e-01 1.91540205724078e-03
1.24770454545455e+00 1.06733577411788e-01 1.88923465267528e-03
1.25238636363636e+00 1.05077727435862e-01 1.86341161712703e-03
1.25706818181818e+00 1.03447566085570e-01 1.83792870439836e-03
1.26175000000000e+00 1.01842694831205e-01 1.81278170785475e-03
1.26643181818182e+00 1.00262721325788e-01 1.78796646970750e-03
1.27111363636364e+00 9.87072593091513e-02 1.76347887743504e-03
1.27579545454545e+00 9.71759285135214e-02 1.73931486072546e-03
1.28047727272727e+00 9.56683545812438e-02 1.71547039939665e-03
1.28515909090909e+00 9.41841689407981e-02 1.69194151753188e-03
1.28984090909091e+00 9.27230087495287e-02 1.66872427738312e-03
1.29452272727273e+00 9.12845167938584e-02 1.64581478768423e-03
1.29920454545455e+00 8.98683414019805e-02 1.62320919789137e-03
1.30388636363636e+00 8.84741363675878e-02 1.60090370540572e-03
1.30856818181818e+00 8.71015608357648e-02 1.57889455016487e-03
1.31325000000000e+00 8.57502792494629e-02 1.55717800902239e-03
1.31793181818182e+00 8.44199612574125e-02 1.53575040333206e-03
1.32261363636364e+00 8.31102816333666e-02 1.51460809592124e-03
1.32729545454545e+00 8.18209201965960e-02 1.49374748849465e-03
1.33197727272727e+00 8.05515617422700e-02 1.47316502810128e-03
1.33665909090909e+00 7.93018959381225e-02 1.45285720222426e-03
1.34134090909091e+00 7.80716172751574e-02 1.43282053367940e-03
1.34602272727273e+00 7.68604249839933e-02 1.41305158741103e-03
1.35070454545455e+00 7.56680229613504e-02 1.39354696567109e-03
1.35538636363636e+00 7.44941197055195e-02 1.37430331391902e-03
1.36006818181818e+00 7.33384282212312e-02 1.35531731629265e-03
1.36475000000000e+00 7.22006659736306e-02 1.33658569090463e-03
1.36943181818182e+00 7.10805548110648e-02 1.31810519604484e-03
1.37411363636364e+00 6.99778208970857e-02 1.29987262762142e-03
1.37879545454545e+00 6.88921946435083e-02 1.28188481695764e-03
1.38347727272727e+00 6.78234106515204e-02 1.26413863607694e-03
1.38815909090909e+00 6.67712076255019e-02 1.24663099359039e-03
1.39284090909091e+00 6.57353283306844e-02 1.22935883042711e-03
1.39752272727273e+00 6.47155195229966e-02 1.21231912539442e-03
1.40220454545455e+00 6.37115318871657e-02 1.19550889114146e-03
1.40688636363636e+00 6.27231199821417e-02 1.17892517898252e-03
1.41156818181818e+00 6.17500421617351e-02 1.16256507510343e-03
1.41625000000000e+00 6.07920605351181e-02 1.14642569662436e-03
1.42093181818182e+00 5.98489409020647e-02 1.13050419667607e-03
1.42561363636364e+00 5.89204526956976e-02 1.11479776223711e-03
1.43029545454545e+00 5.80063689261238e-02 1.09930361226501e-03
1.43497727272727e+00 5.71064661306375e-02 1.08401900201889e-03
1.43965909090909e+00 5.62205243018027e-02 1.06894121961428e-03
1.44434090909091e+00 5.53483268511492e-02 1.05406758244863e-03
1.44902272727273e+00 5.44896605503247e-02 1.03939544175387e-03
1.45370454545455e+00 5.36443154789757e-02 1.02492217921604e-03
1.45838636363636e+00 5.28120849786064e-02 1.01064521092155e-03
1.46306818181818e+00 5.19927655863328e-02 9.96561984178840e-04
1.46775000000000e+00 5.11861570010421e-02 9.82669974221453e-04
1.47243181818182e+00 5.03920620290620e-02 9.68966688366029e-04
1.47711363636364e+00 4.96102865359549e-02 9.55449664184490e-04
