Energy (eV)          EEDF (eV^-(3/2))     First Anisotropy
5.76595744680851e-03 5.71978338225888e-01 3.10784335004605e-04
1.72978723404255e-02 5.67789963473692e-01 5.13039050669699e-04
2.88297872340426e-02 5.63632258559971e-01 6.76861253114474e-04
4.03617021276596e-02 5.59504998901887e-01 8.01069959591284e-04
5.18936170212766e-02 5.55407961560186e-01 9.04456277188421e-04
6.34255319148936e-02 5.51340925228471e-01 9.94129508636940e-04
7.49574468085106e-02 5.47303670220966e-01 1.07377099831630e-03
8.64893617021277e-02 5.43295978460595e-01 1.14560513979482e-03
9.80212765957447e-02 5.39317633471464e-01 1.21110806649024e-03
1.09553191489362e-01 5.35368420353832e-01 1.27132369349304e-03
1.21085106382979e-01 5.31448125783001e-01 1.32702523216480e-03
1.32617021276596e-01 5.27556538000281e-01 1.37880596392592e-03
1.44148936170213e-01 5.23693446797648e-01 1.42713398101542e-03
1.55680851063830e-01 5.19858643506202e-01 1.47238704936238e-03
1.67212765957447e-01 5.16051920984935e-01 1.51487580038287e-03
1.78744680851064e-01 5.12273073631251e-01 1.55485972975341e-03
1.90276595744681e-01 5.08521897303379e-01 1.59255855393063e-03
2.01808510638298e-01 5.04798189377485e-01 1.62816048390804e-03
2.13340425531915e-01 5.01101748713419e-01 1.66182839677868e-03
2.24872340425532e-01 4.97432375643835e-01 1.69370451247577e-03
2.36404255319149e-01 4.93789871963373e-01 1.72391400470210e-03
2.47936170212766e-01 4.90174040918146e-01 1.75256782907983e-03
2.59468085106383e-01 4.86584687194990e-01 1.77976496756915e-03
2.71000000000000e-01 4.83021616910922e-01 1.80559422920633e-03
2.82531914893617e-01 4.79484637615250e-01 1.83013571775942e-03
2.94063829787234e-01 4.75973558240831e-01 1.85346202742043e-03
3.05595744680851e-01 4.72488189132750e-01 1.87563923090615e-03
3.17127659574468e-01 4.69028342024850e-01 1.89672771068867e-03
3.28659574468085e-01 4.65593830029558e-01 1.91678285130674e-03
3.40191489361702e-01 4.62184467627753e-01 1.93585562615331e-03
3.51723404255319e-01 4.58800070658830e-01 1.95399309682843e-03
3.63255319148936e-01 4.55440456310722e-01 1.97123884061134e-03
3.74787234042553e-01 4.52105443110016e-01 1.98763331713087e-03
3.86319148936170e-01 4.48794850920686e-01 2.00321419048161e-03
3.97851063829787e-01 4.45508500908423e-01 2.01801660339074e-03
4.09382978723404e-01 4.42246215557268e-01 2.03207341630227e-03
4.20914893617021e-01 4.39007818651137e-01 2.04541542317518e-03
4.32446808510638e-01 4.35793135264302e-01 2.05807153675658e-03
4.43978723404255e-01 4.32601991751933e-01 2.07006895346909e-03
4.55510638297872e-01 4.29434215740724e-01 2.08143329964426e-03
4.67042553191489e-01 4.26289636119607e-01 2.09218876166146e-03
4.78574468085106e-01 4.23168083030490e-01 2.10235820212396e-03
4.90106382978723e-01 4.20069387859084e-01 2.11196326285404e-03
5.01638297872340e-01 4.16993383231889e-01 2.12102446139702e-03
5.13170212765957e-01 4.13939902988657e-01 2.12956127305066e-03
5.24702127659574e-01 4.10908782192132e-01 2.13759220470597e-03
5.36234042553192e-01 4.07899857112824e-01 2.14513486673121e-03
5.47765957446809e-01 4.04912965220170e-01 2.15220603425343e-03
5.59297872340425e-01 4.01947945173734e-01 2.15882170383476e-03
5.70829787234043e-01 3.99004636814530e-01 2.16499714512163e-03
5.82361702127660e-01 3.96082881156353e-01 2.17074694801159e-03
5.93893617021277e-01 3.93182520377190e-01 2.17608506492831e-03
6.05425531914894e-01 3.90303397815406e-01 2.18102485300140e-03
6.16957446808511e-01 3.87445357947005e-01 2.18557910862460e-03
6.28489361702128e-01 3.84608246391657e-01 2.18976009909390e-03
6.40021276595745e-01 3.81791909899496e-01 2.19357959608624e-03
6.51553191489362e-01 3.78996196342844e-01 2.19704890318316e-03
6.63085106382979e-01 3.76220954707986e-01 2.20017888214615e-03
6.74617021276596e-01 3.73466035087025e-01 2.20297997724468e-03
6.86148936170213e-01 3.70731288669782e-01 2.20546223781925e-03
6.97680851063830e-01 3.68016567735760e-01 2.20763533923019e-03
7.09212765957447e-01 3.65321725646156e-01 2.20950860159378e-03
7.20744680851064e-01 3.62646616839625e-01 2.21109101015593e-03
7.32276595744681e-01 3.59991096813280e-01 2.21239123069712e-03
7.43808510638298e-01 3.57355022126126e-01 2.21341762379807e-03
7.55340425531915e-01 3.54738250387530e-01 2.21417826187393e-03
7.66872340425532e-01 3.52140640249528e-01 2.21468094220395e-03
7.78404255319149e-01 3.49562051399187e-01 2.21493319985201e-03
7.89936170212766e-01 3.47002344551034e-01 2.21494231978483e-03
8.01468085106383e-01 3.44461381439533e-01 2.21471534824739e-03
8.13000000000000e-01 3.41939024811608e-01 2.21425910280133e-03
8.24531914893617e-01 3.39435138422238e-01 2.21358018433100e-03
8.36063829787234e-01 3.36949587018008e-01 2.21268498519531e-03
8.47595744680851e-01 3.34482236338973e-01 2.21157969682113e-03
8.59127659574468e-01 3.32032953108320e-01 2.21027032011038e-03
8.70659574468085e-01 3.29601605025168e-01 2.20876267271033e-03
8.82191489361702e-01 3.27188060757421e-01 2.20706239651323e-03
8.93723404255319e-01 3.24792189934678e-01 2.20517496474928e-03
9.05255319148936e-01 3.22413863141192e-01 2.20310568870163e-03
9.16787234042553e-01 3.20052951908875e-01 2.20085972349383e-03
9.28319148936170e-01 3.17709328712852e-01 2.19844207583799e-03
9.39851063829787e-01 3.15382866957039e-01 2.19585760859794e-03
9.51382978723404e-01 3.13073440974898e-01 2.19311104504971e-03
9.62914893617021e-01 3.10780926020099e-01 2.19020697579535e-03
9.74446808510638e-01 3.08505198259781e-01 2.18714986307434e-03
9.85978723404255e-01 3.06246134767861e-01 2.18394404542491e-03
9.97510638297872e-01 3.04003613518394e-01 2.18059374421555e-03
1.00904255319149e+00 3.01777513370212e-01 2.17710305896553e-03
1.02057446808511e+00 2.99567714097666e-01 2.17347598595477e-03
1.03210638297872e+00 2.97374096314316e-01 2.16971641092093e-03
1.04363829787234e+00 2.95196541550509e-01 2.16582811621889e-03
1.05517021276596e+00 2.93034932162305e-01 2.16181478461458e-03
1.06670212765957e+00 2.90889151408263e-01 2.15768000181434e-03
1.07823404255319e+00 2.88759083361491e-01 2.15342726046489e-03
1.08976595744681e+00 2.86644612983573e-01 2.14905995773383e-03
1.10129787234043e+00 2.84545626058362e-01 2.14458141779591e-03
1.11282978723404e+00 2.82462009187935e-01 2.13999486582312e-03
1.12436170212766e+00 2.80393649841686e-01 2.13530344954497e-03
1.13589361702128e+00 2.78340436276712e-01 2.13051023763448e-03
1.14742553191489e+00 2.76302257604053e-01 2.12561822145733e-03
1.15895744680851e+00 2.74279003711659e-01 2.12063031814483e-03
1.17048936170213e+00 2.72270565328281e-01 2.11554937216761e-03
1.18202127659574e+00 2.70276833948907e-01 2.11037815820326e-03
1.19355319148936e+00 2.68297701896409e-01 2.10511938255328e-03
1.20508510638298e+00 2.66333062249350e-01 2.09977568582451e-03
1.21661702127660e+00 2.64382808901479e-01 2.09434964420567e-03
1.22814893617021e+00 2.62446836491809e-01 2.08884377197909e-03
1.23968085106383e+00 2.60525040462062e-01 2.08326052267130e-03
1.25121276595745e+00 2.58617316988914e-01 2.07760229140988e-03
1.26274468085106e+00 2.56723563039487e-01 2.07187141596087e-03
1.27427659574468e+00 2.54843676305673e-01 2.06607017894414e-03
1.28580851063830e+00 2.52977555257747e-01 2.06020080876865e-03
1.29734042553191e+00 2.51125099080693e-01 2.05426548171873e-03
1.30887234042553e+00 2.49286207726021e-01 2.04826632279668e-03
1.32040425531915e+00 2.47460781850007e-01 2.04220540769020e-03
1.33193617021277e+00 2.45648722863793e-01 2.03608476353213e-03
1.34346808510638e+00 2.43849932873470e-01 2.02990637075829e-03
1.35500000000000e+00 2.42064314728523e-01 2.02367216379195e-03
1.36653191489362e+00 2.40291771963691e-01 2.01738403280091e-03
1.37806382978723e+00 2.38532208845827e-01 2.01104382431395e-03
1.38959574468085e+00 2.36785530317461e-01 2.00465334288424e-03
1.40112765957447e+00 2.35051642042141e-01 1.99821435164443e-03
1.41265957446809e+00 2.33330450349636e-01 1.99172857388413e-03
1.42419148936170e+00 2.31621862279821e-01 1.98519769354844e-03
1.43572340425532e+00 2.29925785529454e-01 1.97862335673577e-03
1.44725531914894e+00 2.28242128494658e-01 1.97200717214562e-03
1.45878723404255e+00 2.26570800219227e-01 1.96535071250186e-03
1.47031914893617e+00 2.24911710435752e-01 1.95865551495437e-03
1.48185106382979e+00 2.23264769515397e-01 1.95192308243330e-03
1.49338297872340e+00 2.21629888507732e-01 1.94515488400859e-03
1.50491489361702e+00 2.20006979091911e-01 1.93835235617997e-03
1.51644680851064e+00 2.18395953615273e-01 1.93151690319803e-03
1.52797872340426e+00 2.16796725045872e-01 1.92464989829433e-03
1.53951063829787e+00 2.15209207009885e-01 1.91775268396724e-03
1.55104255319149e+00 2.13633313745454e-01 1.91082657315634e-03
1.56257446808511e+00 2.12068960138937e-01 1.90387284949611e-03
1.57410638297872e+00 2.10516061680025e-01 1.89689276843785e-03
1.58563829787234e+00 2.08974534496880e-01 1.88988755747439e-03
1.59717021276596e+00 2.07444295312471e-01 1.88285841721277e-03
1.60870212765957e+00 2.05925261478648e-01 1.87580652157228e-03
1.62023404255319e+00 2.04417350933659e-01 1.86873301881109e-03
1.63176595744681e+00 2.02920482235191e-01 1.86163902898706e-03
1.64329787234043e+00 2.01434574527927e-01 1.85452565581357e-03
1.65482978723404e+00 1.99959547539948e-01 1.84739397056855e-03
1.66636170212766e+00 1.98495321604709e-01 1.84024502355921e-03
1.67789361702128e+00 1.97041817621707e-01 1.83307984220443e-03
1.68942553191489e+00 1.95598957086744e-01 1.82589943116185e-03
1.70095744680851e+00 1.94166662053630e-01 1.81870477320844e-03
1.71248936170213e+00 1.92744855163559e-01 1.81149682934928e-03
1.72402127659574e+00 1.91333459607810e-01 1.80427653966315e-03
1.73555319148936e+00 1.89932399156260e-01 1.79704482339473e-03
1.74708510638298e+00 1.88541598121053e-01 1.78980257976762e-03
1.75861702127660e+00 1.87160981384284e-01 1.78255068806084e-03
1.77014893617021e+00 1.85790474362602e-01 1.77529000839069e-03
1.78168085106383e+00 1.84430003034096e-01 1.76802138177378e-03
1.79321276595745e+00 1.83079493903801e-01 1.76074563087908e-03
1.80474468085106e+00 1.81738874029811e-01 1.75346356007831e-03
1.81627659574468e+00 1.80408070989662e-01 1.74617595616998e-03
1.82780851063830e+00 1.79087012905696e-01 1.73888358841773e-03
1.83934042553192e+00 1.77775628412296e-01 1.73158720924826e-03
1.85087234042553e+00 1.76473846680529e-01 1.72428755427910e-03
1.86240425531915e+00 1.75181597386202e-01 1.71698534299115e-03
1.87393617021277e+00 1.73898810733805e-01 1.70968127874628e-03
1.88546808510638e+00 1.72625417425369e-01 1.70237604943646e-03
1.89700000000000e+00 1.71361348683731e-01 1.69507032749233e-03
1.90853191489362e+00 1.70106536222172e-01 1.68776477050940e-03
1.92006382978723e+00 1.68860912267018e-01 1.68046002124820e-03
1.93159574468085e+00 1.67624409528039e-01 1.67315670823906e-03
1.94312765957447e+00 1.66396961220413e-01 1.66585544577470e-03
1.95465957446809e+00 1.65178501035855e-01 1.65855683449450e-03
1.96619148936170e+00 1.63968963163970e-01 1.65126146137007e-03
1.97772340425532e+00 1.62768282264084e-01 1.64396990026964e-03
1.98925531914894e+00 1.61576393486015e-01 1.63668271193755e-03
2.00078723404255e+00 1.60393232442582e-01 1.62940044453998e-03
2.01231914893617e+00 1.59218735229802e-01 1.62212363363828e-03
2.02385106382979e+00 1.58052838400072e-01 1.61485280271706e-03
2.03538297872340e+00 1.56895478981807e-01 1.60758846315220e-03
2.04691489361702e+00 1.55746594453269e-01 1.60033111472182e-03
2.05844680851064e+00 1.54606122761667e-01 1.59308124556947e-03
2.06997872340426e+00 1.53474002297615e-01 1.58583933269864e-03
2.08151063829787e+00 1.52350171913713e-01 1.57860584193168e-03
2.09304255319149e+00 1.51234570899613e-01 1.57138122838856e-03
2.10457446808511e+00 1.50127139000097e-01 1.56416593644180e-03
2.11610638297872e+00 1.49027816390732e-01 1.55696040018037e-03
2.12763829787234e+00 1.47936543695466e-01 1.54976504336074e-03
2.13917021276596e+00 1.46853261962855e-01 1.54258027985642e-03
2.15070212765957e+00 1.45777912683184e-01 1.53540651360600e-03
2.16223404255319e+00 1.44710437765259e-01 1.52824413904883e-03
2.17376595744681e+00 1.43650779553062e-01 1.52109353940502e-03
2.18529787234043e+00 1.42598880807823e-01 1.51395509376950e-03
2.19682978723404e+00 1.41554684705276e-01 1.50682916708566e-03
2.20836170212766e+00 1.40518134846619e-01 1.49971611702143e-03
2.21989361702128e+00 1.39489175236792e-01 1.49261629263434e-03
2.23142553191489e+00 1.38467750299896e-01 1.48553003431194e-03
2.24295744680851e+00 1.37453804857973e-01 1.47845767416194e-03
2.25448936170213e+00 1.36447284146021e-01 1.47139953595043e-03
2.26602127659574e+00 1.35448133791260e-01 1.46435593548018e-03
2.27755319148936e+00 1.34456299827754e-01 1.45732718052738e-03
2.28908510638298e+00 1.33471728676153e-01 1.45031357120878e-03
2.30061702127660e+00 1.32494367157927e-01 1.44331539991668e-03
2.31214893617021e+00 1.31524162475575e-01 1.43633295167581e-03
2.32368085106383e+00 1.30561062226488e-01 1.42936650407626e-03
2.33521276595745e+00 1.29605014383603e-01 1.42241632762052e-03
2.34674468085106e+00 1.28655967308911e-01 1.41548268565507e-03
2.35827659574468e+00 1.27713869734546e-01 1.40856583470753e-03
2.36980851063830e+00 1.26778670775941e-01 1.40166602441713e-03
2.38134042553191e+00 1.25850319913348e-01 1.39478349786236e-03
2.39287234042553e+00 1.24928767004652e-01 1.38791849149043e-03
2.40440425531915e+00 1.24013962267303e-01 1.38107123543582e-03
2.41593617021277e+00 1.23105856290804e-01 1.37424195344871e-03
2.42746808510638e+00 1.22204400019048e-01 1.36743086320503e-03
2.43900000000000e+00 1.21309544762483e-01 1.36063817623386e-03
2.45053191489362e+00 1.20421242180841e-01 1.35386409821915e-03
2.46206382978723e+00 1.19539444294996e-01 1.34710882892644e-03
2.47359574468085e+00 1.18664103470075e-01 1.34037256249629e-03
2.48512765957447e+00 1.17795172427010e-01 1.33365548737068e-03
2.49665957446809e+00 1.16932604226030e-01 1.32695778657845e-03
2.50819148936170e+00 1.16076352277915e-01 1.32027963766121e-03
2.51972340425532e+00 1.15226370327849e-01 1.31362121295123e-03
2.53125531914894e+00 1.14382612466393e-01 1.30698267949682e-03
2.54278723404255e+00 1.13545033113692e-01 1.30036419933314e-03
2.55431914893617e+00 1.12713587030172e-01 1.29376592940723e-03
2.56585106382979e+00 1.11888229301089e-01 1.28718802184156e-03
2.57738297872340e+00 1.11068915346957e-01 1.28063062385888e-03
2.58891489361702e+00 1.10255600908439e-01 1.27409387803910e-03
2.60044680851064e+00 1.09448242056508e-01 1.26757792224410e-03
2.61197872340426e+00 1.08646795177668e-01 1.26108288986764e-03
2.62351063829787e+00 1.07851216983861e-01 1.25460890976014e-03
2.63504255319149e+00 1.07061464498006e-01 1.24815610647228e-03
2.64657446808511e+00 1.06277495063663e-01 1.24172460018000e-03
2.65810638297872e+00 1.05499266330881e-01 1.23531450692168e-03
2.66963829787234e+00 1.04726736265619e-01 1.22892593852307e-03
2.68117021276596e+00 1.03959863135905e-01 1.22255900282866e-03
2.69270212765957e+00 1.03198605521019e-01 1.21621380362667e-03
2.70423404255319e+00 1.02442922297948e-01 1.20989044087462e-03
2.71576595744681e+00 1.01692772650342e-01 1.20358900957006e-03
2.72729787234043e+00 1.00948116057944e-01 1.19730960419631e-03
2.73882978723404e+00 1.00208912294575e-01 1.19105231233236e-03
2.75036170212766e+00 9.94751214339353e-02 1.18481721896723e-03
2.76189361702128e+00 9.87467038368318e-02 1.17860440561158e-03
2.77342553191489e+00 9.80236201595314e-02 1.17241395022457e-03
2.78495744680851e+00 9.73058313412620e-02 1.16624592741931e-03
2.79648936170213e+00 9.65932986123576e-02 1.16010040839020e-03
2.80802127659574e+00 9.58859834820257e-02 1.15397746111321e-03
2.81955319148936e+00 9.51838477462917e-02 1.14787715027345e-03
2.83108510638298e+00 9.44868534760249e-02 1.14179953746066e-03
2.84261702127660e+00 9.37949630246886e-02 1.13574468109715e-03
2.85414893617021e+00 9.31081390166179e-02 1.12971263662863e-03
2.86568085106383e+00 9.24263443545806e-02 1.12370345645238e-03
2.87721276595745e+00 9.17495422083008e-02 1.11771719010360e-03
2.88874468085106e+00 9.10776960218365e-02 1.11175388418409e-03
2.90027659574468e+00 9.04107695023420e-02 1.10581358254391e-03
2.91180851063830e+00 8.97487266272675e-02 1.09989632621060e-03
2.92334042553192e+00 8.90915316333554e-02 1.09400215356647e-03
2.93487234042553e+00 8.84391490236653e-02 1.08813110027846e-03
2.94640425531915e+00 8.77915435567997e-02 1.08228319947106e-03
2.95793617021277e+00 8.71486802537589e-02 1.07645848165670e-03
2.96946808510638e+00 8.65105243873901e-02 1.07065697490468e-03
2.98100000000000e+00 8.58770414890769e-02 1.06487870477187e-03
2.99253191489362e+00 8.52481973384072e-02 1.05912369446778e-03
3.00406382978723e+00 8.46239579697013e-02 1.05339196478584e-03
3.01559574468085e+00 8.40042896618930e-02 1.04768353426461e-03
3.02712765957447e+00 8.33891589449011e-02 1.04199841911951e-03
3.03865957446809e+00 8.27785325897187e-02 1.03633663340027e-03
3.05019148936170e+00 8.21723776146319e-02 1.03069818892330e-03
3.06172340425532e+00 8.15706612755125e-02 1.02508309542549e-03
3.07325531914894e+00 8.09733510718886e-02 1.01949136049716e-03
3.08478723404255e+00 8.03804147374352e-02 1.01392298973223e-03
3.09631914893617e+00 7.97918202459005e-02 1.00837798666190e-03
3.10785106382979e+00 7.92075358017904e-02 1.00285635290122e-03
3.11938297872340e+00 7.86275298461538e-02 9.97358088083374e-04
3.13091489361702e+00 7.80517710474573e-02 9.91883190002978e-04
3.14244680851064e+00 7.74802283072320e-02 9.86431654550940e-04
3.15397872340426e+00 7.69128707511348e-02 9.81003475854556e-04
3.16551063829787e+00 7.63496677344606e-02 9.75598646212798e-04
3.17704255319149e+00 7.57905888333848e-02 9.70217156233414e-04
3.18857446808511e+00 7.52356038503453e-02 9.64858994768926e-04
3.20010638297872e+00 7.46846828054618e-02 9.59524149050203e-04
3.21163829787234e+00 7.41377959417910e-02 9.54212604623357e-04
3.22317021276596e+00 7.35949137169190e-02 9.48924345480523e-04
3.23470212765957e+00 7.30560068080923e-02 9.43659353997151e-04
3.24623404255319e+00 7.25210461039795e-02 9.38417611059818e-04
3.25776595744681e+00 7.19900027096817e-02 9.33199095322551e-04
3.26929787234043e+00 7.14628479402424e-02 9.28003786063566e-04
3.28082978723404e+00 7.09395533191970e-02 9.22831659041042e-04
3.29236170212766e+00 7.04200905817436e-02 9.17682689267118e-04
3.30389361702128e+00 6.99044316669451e-02 9.12556850418055e-04
3.31542553191489e+00 6.93925487224180e-02 9.07454114774619e-04
3.32695744680851e+00 6.88844140966895e-02 9.02374453339461e-04
3.33848936170213e+00 6.83800003437767e-02 8.97317835777961e-04
3.35002127659574e+00 6.78792802156961e-02 8.92284230533257e-04
3.36155319148936e+00 6.73822266669357e-02 8.87273604767747e-04
3.37308510638298e+00 6.68888128471136e-02 8.82285924475295e-04
3.38461702127660e+00 6.63990121053454e-02 8.77321154423546e-04
3.39614893617021e+00 6.59127979830486e-02 8.72379258263753e-04
3.40768085106383e+00 6.54301442182088e-02 8.67460198473688e-04
3.41921276595745e+00 6.49510247383255e-02 8.62563936465017e-04
3.43074468085106e+00 6.44754136645801e-02 8.57690432526718e-04
3.44227659574468e+00 6.40032853049207e-02 8.52839645930351e-04
3.45380851063830e+00 6.35346141581332e-02 8.48011534874097e-04
3.46534042553191e+00 6.30693749070625e-02 8.43206056585524e-04
3.47687234042553e+00 6.26075424225894e-02 8.38423167266467e-04
3.48840425531915e+00 6.21490917569851e-02 8.33662822193552e-04
3.49993617021277e+00 6.16939981477962e-02 8.28924975663568e-04
3.51146808510638e+00 6.12422370113295e-02 8.24209581091911e-04
3.52300000000000e+00 6.07937839464471e-02 8.19516590958654e-04
3.53453191489362e+00 6.03486147281794e-02 8.14845956904882e-04
3.54606382978723e+00 5.99067053114321e-02 8.10197629679192e-04
3.55759574468085e+00 5.94680318247246e-02 8.05571559232041e-04
3.56912765957447e+00 5.90325705738113e-02 8.00967694663098e-04
3.58065957446809e+00 5.86002980355422e-02 7.96385984313332e-04
3.59219148936170e+00 5.81711908614015e-02 7.91826375713117e-04
3.60372340425532e+00 5.77452258714866e-02 7.87288815672193e-04
3.61525531914894e+00 5.73223800579668e-02 7.82773250228457e-04
3.62678723404255e+00 5.69026305791786e-02 7.78279624736220e-04
3.63831914893617e+00 5.64859547630052e-02 7.73807883815368e-04
