Energy (eV)          EEDF (eV^-(3/2))     First Anisotropy
8.52500000000000e-01 3.33151486463481e-02 8.16307230095386e-05
2.55750000000000e+00 2.80201738560591e-02 1.24502149994724e-04
4.26250000000000e+00 2.35667609128269e-02 1.39170446970847e-04
5.96750000000000e+00 1.98211553852385e-02 1.39552864296395e-04
7.67250000000000e+00 1.66708612294673e-02 1.33498635443126e-04
9.37750000000000e+00 1.40212620672521e-02 1.24323479060976e-04
1.10825000000000e+01 1.17927794642703e-02 1.13773940547639e-04
1.27875000000000e+01 9.91848286023594e-03 1.02845909763875e-04
1.44925000000000e+01 8.34207936702742e-03 9.21204197292524e-05
1.61975000000000e+01 7.01622306015954e-03 8.19313465582734e-05
1.79025000000000e+01 5.90109298462069e-03 7.24592897245976e-05
1.96075000000000e+01 4.96319716670292e-03 6.37879999876513e-05
2.13125000000000e+01 4.17436671134767e-03 5.59398786138444e-05
2.30175000000000e+01 3.51090977358518e-03 4.88989689242051e-05
2.47225000000000e+01 2.95289999432666e-03 4.26261080814242e-05
2.64275000000000e+01 2.48357802928964e-03 3.70689948862596e-05
2.81325000000000e+01 2.08884819649190e-03 3.21688802612356e-05
2.98375000000000e+01 1.75685512455410e-03 2.78649767768949e-05
3.15425000000000e+01 1.47762768680638e-03 2.40973114893503e-05
3.32475000000000e+01 1.24277952706597e-03 2.08085108220191e-05
3.49525000000000e+01 1.04525718263473e-03 1.79448525528007e-05
3.66575000000000e+01 8.79128239607297e-04 1.54568172478864e-05
3.83625000000000e+01 7.39403157916503e-04 1.32993014815389e-05
4.00675000000000e+01 6.21885414784439e-04 1.14316067434999e-05
4.17725000000000e+01 5.23045465766439e-04 9.81728402169129e-06
4.34775000000000e+01 4.39914737916245e-04 8.42389009242472e-06
4.51825000000000e+01 3.69996471248132e-04 7.22269452427982e-06
4.68875000000000e+01 3.11190730695942e-04 6.18836425523638e-06
4.85925000000000e+01 2.61731336367611e-04 5.29864392482336e-06
5.02975000000000e+01 2.20132817849607e-04 4.53404394930667e-06
5.20025000000000e+01 1.85145799379354e-04 3.87754392274285e-06
5.37075000000000e+01 1.55719475917668e-04 3.31431581391363e-06
5.54125000000000e+01 1.30970053122237e-04 2.83146925191879e-06
5.71175000000000e+01 1.10154203343908e-04 2.41781969329664e-06
5.88225000000000e+01 9.26467404194012e-05 2.06367925313373e-06
6.05275000000000e+01 7.79218427420508e-05 1.76066932462412e-06
6.22325000000000e+01 6.55372606616325e-05 1.50155370566697e-06
6.39375000000000e+01 5.51210338960949e-05 1.28009072394389e-06
6.56425000000000e+01 4.63603200240741e-05 1.09090274979153e-06
6.73475000000000e+01 3.89919985315594e-05 9.29361469874639e-07
6.90525000000000e+01 3.27947682133261e-05 7.91487335656211e-07
7.07575000000000e+01 2.75825005813768e-05 6.73861678335046e-07
7.24625000000000e+01 2.31986496557248e-05 5.73550081491365e-07
7.41675000000000e+01 1.95115502403879e-05 4.88035713663448e-07
7.58725000000000e+01 1.64104634723527e-05 4.15161438158897e-07
7.75775000000000e+01 1.38022508749705e-05 3.53079631592751e-07
7.92825000000000e+01 1.16085770238341e-05 3.00208752648593e-07
8.09875000000000e+01 9.76355680961182e-06 2.55195806314366e-07
8.26925000000000e+01 8.21177663539616e-06 2.16883945170103e-07
8.43975000000000e+01 6.90663011693167e-06 1.84284537642878e-07
8.61025000000000e+01 5.80891829990774e-06 1.56553113371118e-07
8.78075000000000e+01 4.88567235304529e-06 1.32968668105719e-07
8.95125000000000e+01 4.10916337757585e-06 1.12915875279763e-07
9.12175000000000e+01 3.45606959359153e-06 9.58698089792420e-08
9.29225000000000e+01 2.90677589042332e-06 8.13828340847445e-08
9.46275000000000e+01 2.44478470364532e-06 6.90733643948470e-08
9.63325000000000e+01 2.05622052490180e-06 5.86162291522659e-08
9.80375000000000e+01 1.72941316293544e-06 4.97344231222606e-08
9.97425000000000e+01 1.45454723941985e-06 4.21920457392826e-08
1.01447500000000e+02 1.22336739250487e-06 3.57882613270343e-08
1.03152500000000e+02 1.02893033411626e-06 3.03521354548797e-08
1.04857500000000e+02 8.65396314264104e-07 2.57382225261335e-08
1.06562500000000e+02 7.27853729169263e-07 2.18227970681072e-08
1.08267500000000e+02 6.12171605463905e-07 1.85006362391540e-08
1.09972500000000e+02 5.14875529955698e-07 1.56822740780474e-08
1.11677500000000e+02 4.33043298612764e-07 1.32916592566222e-08
1.13382500000000e+02 3.64217150676317e-07 1.12641577882072e-08
1.15087500000000e+02 3.06329951927965e-07 9.54485049506172e-09
1.16792500000000e+02 2.57643110089518e-07 8.08708222607936e-09
1.18497500000000e+02 2.16694357697707e-07 6.85122599756528e-09
1.20202500000000e+02 1.82253834157283e-07 5.80363054127870e-09
1.21907500000000e+02 1.53287147934734e-07 4.91572430400275e-09
1.23612500000000e+02 1.28924309497310e-07 4.16325285500860e-09
1.25317500000000e+02 1.08433601924900e-07 3.52563001166121e-09
1.27022500000000e+02 9.11996044210183e-08 2.98538586684861e-09
1.28727500000000e+02 7.67047086779501e-08 2.52769736222821e-09
1.30432500000000e+02 6.45135729559505e-08 2.13998915666004e-09
1.32137500000000e+02 5.42600469681358e-08 1.81159433987171e-09
1.33842500000000e+02 4.56361748712098e-08 1.53346608068894e-09
1.35547500000000e+02 3.83829460763032e-08 1.29793261438024e-09
1.37252500000000e+02 3.22825160884775e-08 1.09848909691570e-09
1.38957500000000e+02 2.71516637344890e-08 9.29620812832489e-10
1.40662500000000e+02 2.28362882722730e-08 7.86653041653267e-10
1.42367500000000e+02 1.92067811075581e-08 6.65623585774159e-10
1.44072500000000e+02 1.61541331110957e-08 5.63174557891504e-10
1.45777500000000e+02 1.35866606231228e-08 4.76460533339326e-10
1.47482500000000e+02 1.14272518134150e-08 4.03070604987290e-10
1.49187500000000e+02 9.61105069371952e-09 3.40962246580154e-10
1.50892500000000e+02 8.08350922387186e-09 2.88405203979285e-10
1.52597500000000e+02 6.79874900827656e-09 2.43933900728805e-10
1.54302500000000e+02 5.71818337771396e-09 2.06307071581038e-10
1.56007500000000e+02 4.80935847188347e-09 1.74473530945890e-10
1.57712500000000e+02 4.04497851559359e-09 1.47543147687462e-10
1.59417500000000e+02 3.40208601360629e-09 1.24762237556397e-10
1.61122500000000e+02 2.86137224199251e-09 1.05492703468207e-10
1.62827500000000e+02 2.40659732719878e-09 8.91943549297237e-11
1.64532500000000e+02 2.02410249539824e-09 7.54099238325972e-11
1.66237500000000e+02 1.70239984295428e-09 6.37523668374076e-11
1.67942500000000e+02 1.43182730710509e-09 5.38941065926451e-11
1.69647500000000e+02 1.20425847421020e-09 4.55579167120882e-11
1.71352500000000e+02 1.01285850989895e-09 3.85092001707368e-11
1.73057500000000e+02 8.51878880692561e-10 3.25494487642179e-11
1.74762500000000e+02 7.16484701740240e-10 2.75107035229986e-11
1.76467500000000e+02 6.02609525206748e-10 2.32508633431631e-11
1.78172500000000e+02 5.06833208005545e-10 1.96497123235514e-11
1.79877500000000e+02 4.26279190739742e-10 1.66055560085831e-11
1.81582500000000e+02 3.58528102712127e-10 1.40323734576034e-11
1.83287500000000e+02 3.01545098204986e-10 1.18574062460167e-11
1.84992500000000e+02 2.53618741637290e-10 1.00191175340827e-11
1.86697500000000e+02 2.13309606067471e-10 8.46546454170752e-12
1.88402500000000e+02 1.79407041241978e-10 7.15243641853112e-12
1.90107500000000e+02 1.50892812755089e-10 6.04281683310101e-12
1.91812500000000e+02 1.26910520253398e-10 5.10513682249858e-12
1.93517500000000e+02 1.06739876187012e-10 4.31278871390786e-12
1.95222500000000e+02 8.97750725918533e-11 3.64327639614191e-12
1.96927500000000e+02 7.55065861679649e-11 3.07758100417815e-12
1.98632500000000e+02 6.35058751849750e-11 2.59962428692955e-12
2.00337500000000e+02 5.34125085994247e-11 2.19581464572505e-12
2.02042500000000e+02 4.49233408180569e-11 1.85466313289583e-12
2.03747500000000e+02 3.77834069803836e-11 1.56645864974611e-12
2.05452500000000e+02 3.17782653081642e-11 1.32299323470812e-12
2.07157500000000e+02 2.67275565308437e-11 1.11732973115896e-12
2.08862500000000e+02 2.24795869498237e-11 9.43605308812973e-13
2.10567500000000e+02 1.89067724485600e-11 7.96865315523249e-13
2.12272500000000e+02 1.59018066132407e-11 6.72922785471574e-13
2.13977500000000e+02 1.33744378768448e-11 5.68239648614541e-13
2.15682500000000e+02 1.12487588908696e-11 4.79826294814676e-13
2.17387500000000e+02 9.46092671333784e-12 4.05156661208986e-13
2.19092500000000e+02 7.95724534088842e-12 3.42096447365172e-13
2.20797500000000e+02 6.69255299545089e-12 2.88842431773161e-13
2.22502500000000e+02 5.62886572904360e-12 2.43871175489106e-13
2.24207500000000e+02 4.73423660853162e-12 2.05895662992097e-13
2.25912500000000e+02 3.98179621693856e-12 1.73828653900683e-13
2.27617500000000e+02 3.34894565359373e-12 1.46751708369025e-13
2.29322500000000e+02 2.81667779556719e-12 1.23889009026882e-13
2.31027500000000e+02 2.36900643506344e-12 1.04585237719784e-13
2.32732500000000e+02 1.99248614740539e-12 8.82868798353240e-14
2.34437500000000e+02 1.67580846925646e-12 7.45264258770327e-14
2.36142500000000e+02 1.40946225864039e-12 6.29090218847955e-14
2.37847500000000e+02 1.18544803596385e-12 5.31011895995378e-14
2.39552500000000e+02 9.97037726519999e-13 4.48212958757311e-14
2.41257500000000e+02 8.38572588545317e-13 3.78315004053161e-14
2.42962500000000e+02 7.05293257772716e-13 3.19309527246133e-14
2.44667500000000e+02 5.93196804014980e-13 2.69500449112053e-14
2.46372500000000e+02 4.98916506595874e-13 2.27455563386183e-14
2.48077500000000e+02 4.19620737787294e-13 1.91965521873304e-14
2.49782500000000e+02 3.52927917303366e-13 1.62009188255830e-14
2.51487500000000e+02 2.96834983582795e-13 1.36724372770533e-14
2.53192500000000e+02 2.49657233555884e-13 1.15383112958999e-14
2.54897500000000e+02 2.09977724035321e-13 9.73707950548615e-15
2.56602500000000e+02 1.76604715044974e-13 8.21685199097972e-15
2.58307500000000e+02 1.48535876933641e-13 6.93382097739615e-15
2.60012500000000e+02 1.24928186265170e-13 5.85100303511238e-15
2.61717500000000e+02 1.05072606333872e-13 4.93717685568890e-15
2.63422500000000e+02 8.83727918562678e-14 4.16598621908738e-15
2.65127500000000e+02 7.43271782528687e-14 3.51518248725946e-15
2.66832500000000e+02 6.25139175869761e-14 2.96598494236918e-15
2.68537500000000e+02 5.25782087243492e-14 2.50254065368725e-15
2.70242500000000e+02 4.42216411859808e-14 2.11146840107059e-15
2.71947500000000e+02 3.71932326457521e-14 1.78147358574084e-15
2.73652500000000e+02 3.12818908919099e-14 1.50302308912832e-15
2.75357500000000e+02 2.63100738538551e-14 1.26807075560808e-15
2.77062500000000e+02 2.21284572785955e-14 1.06982562384217e-15
2.78767500000000e+02 1.86114499051045e-14 9.02556255417573e-16
2.80472500000000e+02 1.56534214387041e-14 7.61425543407775e-16
2.82177500000000e+02 1.31655300359205e-14 6.42351256859628e-16
2.83882500000000e+02 1.10730540160473e-14 5.41888314924177e-16
2.85587500000000e+02 9.31314765966645e-15 4.57129407458736e-16
2.87292500000000e+02 7.83295369146154e-15 3.85621105214007e-16
2.88997500000000e+02 6.58801575736838e-15 3.25293047213709e-16
2.90702500000000e+02 5.54094321617721e-15 2.74398168334021e-16
2.92407500000000e+02 4.66028814374972e-15 2.31462247125553e-16
2.94112500000000e+02 3.91960082163738e-15 1.95241321656793e-16
2.95817500000000e+02 3.29663534251317e-15 1.64685747253624e-16
2.97522500000000e+02 2.77268147345856e-15 1.38909860934757e-16
2.99227500000000e+02 2.33200271019348e-15 1.17166378563591e-16
3.00932500000000e+02 1.96136364469094e-15 9.88247868703594e-17
3.02637500000000e+02 1.64963245106871e-15 8.33531074447007e-17
3.04342500000000e+02 1.38744655076329e-15 7.03025068525677e-17
3.06047500000000e+02 1.16693141552704e-15 5.92943089752705e-17
3.07752500000000e+02 9.81464062737980e-16 5.00090348528935e-17
3.09457500000000e+02 8.25474139807168e-16 4.21771537243534e-17
3.11162500000000e+02 6.94276623424671e-16 3.55712782685375e-17
3.12867500000000e+02 5.83931108909799e-16 2.99995786811896e-17
3.14572500000000e+02 4.91123463542084e-16 2.53002253662114e-17
3.16277500000000e+02 4.13066289432495e-16 2.13366996876246e-17
3.17982500000000e+02 3.47415206422752e-16 1.79938372722833e-17
3.19687500000000e+02 2.92198440641542e-16 1.51744894936056e-17
3.21392500000000e+02 2.45757603970433e-16 1.27967066111168e-17
3.23097500000000e+02 2.06697885781604e-16 1.07913611028486e-17
3.24802500000000e+02 1.73846160999051e-16 9.10014244110946e-18
3.26507500000000e+02 1.46215756294871e-16 7.67386529282314e-18
3.28212500000000e+02 1.22976816203596e-16 6.47104218253808e-18
3.29917500000000e+02 1.03431379126297e-16 5.45667930022945e-18
3.31622500000000e+02 8.69924146536402e-17 4.60126058740797e-18
3.33327500000000e+02 7.31661926119175e-17 3.87989067975828e-18
3.35032500000000e+02 6.15374543014849e-17 3.27157187953305e-18
3.36737500000000e+02 5.17569405585077e-17 2.75859420874367e-18
3.38442500000000e+02 4.35309020560550e-17 2.32602086667800e-18
3.40147500000000e+02 3.66122767954523e-17 2.13056593721015e-18
