Energy (eV)          EEDF (eV^-(3/2))     First Anisotropy
1.06122448979592e-04 2.15020599442455e+02 4.34539009462345e-02
3.18367346938776e-04 2.13511086993281e+02 7.17440603716798e-02
5.30612244897959e-04 2.12012171797913e+02 9.46819984266067e-02
7.42857142857143e-04 2.10523779460188e+02 1.12090922036510e-01
9.55102040816327e-04 2.09045836106294e+02 1.26595948346909e-01
1.16734693877551e-03 2.07578268381059e+02 1.39189805415401e-01
1.37959183673469e-03 2.06121003443921e+02 1.50386331616329e-01
1.59183673469388e-03 2.04673968966178e+02 1.60495878086745e-01
1.80408163265306e-03 2.03237093128086e+02 1.69724313364121e-01
2.01632653061224e-03 2.01810304611483e+02 1.78217167860857e-01
2.22857142857143e-03 2.00393532600231e+02 1.86082190860717e-01
2.44081632653061e-03 1.98986706775319e+02 1.93402024734652e-01
2.65306122448980e-03 1.97589757311417e+02 2.00241847606214e-01
2.86530612244898e-03 1.96202614874106e+02 2.06654239452992e-01
3.07755102040816e-03 1.94825210614216e+02 2.12682419424427e-01
3.28979591836735e-03 1.93457476166686e+02 2.18362477798357e-01
3.50204081632653e-03 1.92099343646391e+02 2.23724960652593e-01
3.71428571428571e-03 1.90750745644789e+02 2.28796024918120e-01
3.92653061224490e-03 1.89411615227067e+02 2.33598297923165e-01
4.13877551020408e-03 1.88081885927284e+02 2.38151530101870e-01
4.35102040816327e-03 1.86761491746634e+02 2.42473098736775e-01
4.56326530612245e-03 1.85450367149642e+02 2.46578401884059e-01
4.77551020408163e-03 1.84148447060914e+02 2.50481171422623e-01
4.98775510204082e-03 1.82855666862288e+02 2.54193723962575e-01
5.20000000000000e-03 1.81571962388463e+02 2.57727164856293e-01
5.41224489795918e-03 1.80297269924993e+02 2.61091555440220e-01
5.62448979591837e-03 1.79031526204726e+02 2.64296050909596e-01
5.83673469387755e-03 1.77774668404979e+02 2.67349015256109e-01
6.04897959183673e-03 1.76526634143469e+02 2.70258118052719e-01
6.26122448979592e-03 1.75287361476181e+02 2.73030416331389e-01
6.47346938775510e-03 1.74056788893961e+02 2.75672423834220e-01
6.68571428571429e-03 1.72834855319470e+02 2.78190170663879e-01
6.89795918367347e-03 1.71621500104407e+02 2.80589254262407e-01
7.11020408163265e-03 1.70416663025724e+02 2.82874883835979e-01
7.32244897959184e-03 1.69220284283420e+02 2.85051919004996e-01
7.53469387755102e-03 1.68032304497309e+02 2.87124903182948e-01
7.74693877551020e-03 1.66852664704068e+02 2.89098093183898e-01
7.95918367346939e-03 1.65681306354533e+02 2.90975484963703e-01
8.17142857142857e-03 1.64518171310141e+02 2.92760836665003e-01
8.38367346938776e-03 1.63363201840698e+02 2.94457689079877e-01
8.59591836734694e-03 1.62216340621294e+02 2.96069383527204e-01
8.80816326530612e-03 1.61077530729457e+02 2.97599078118062e-01
9.02040816326531e-03 1.59946715642509e+02 2.99049762023789e-01
9.23265306122449e-03 1.58823839234216e+02 3.00424268562572e-01
9.44489795918367e-03 1.57708845772551e+02 3.01725287002159e-01
9.65714285714286e-03 1.56601679916743e+02 3.02955372915586e-01
9.86938775510204e-03 1.55502286714531e+02 3.04116957833607e-01
1.00816326530612e-02 1.54410611599590e+02 3.05212357730342e-01
1.02938775510204e-02 1.53326600388358e+02 3.06243780992755e-01
1.05061224489796e-02 1.52250199277812e+02 3.07213335697677e-01
1.07183673469388e-02 1.51181354842647e+02 3.08123035983677e-01
1.09306122448980e-02 1.50120014032617e+02 3.08974808088361e-01
1.11428571428571e-02 1.49066124169910e+02 3.09770495829527e-01
1.13551020408163e-02 1.48019632946525e+02 3.10511865638742e-01
1.15673469387755e-02 1.46980488421681e+02 3.11200611190657e-01
1.17795918367347e-02 1.45948639019238e+02 3.11838357668148e-01
1.19918367346939e-02 1.44924033525135e+02 3.12426665698378e-01
1.22040816326531e-02 1.43906621084853e+02 3.12967034990806e-01
1.24163265306122e-02 1.42896351200884e+02 3.13460907704902e-01
1.26285714285714e-02 1.41893173730231e+02 3.13909671572129e-01
1.28408163265306e-02 1.40897038881915e+02 3.14314662794256e-01
1.30530612244898e-02 1.39907897214508e+02 3.14677168737705e-01
1.32653061224490e-02 1.38925699633672e+02 3.14998430441521e-01
1.34775510204082e-02 1.37950397389730e+02 3.15279644954974e-01
1.36897959183673e-02 1.36981942075243e+02 3.15521967518888e-01
1.39020408163265e-02 1.36020285622606e+02 3.15726513603648e-01
1.41142857142857e-02 1.35065380301664e+02 3.15894360815587e-01
1.43265306122449e-02 1.34117178717344e+02 3.16026550682058e-01
1.45387755102041e-02 1.33175633807300e+02 3.16124090324911e-01
1.47510204081633e-02 1.32240698839579e+02 3.16187954030940e-01
1.49632653061224e-02 1.31312327410301e+02 3.16219084727091e-01
1.51755102040816e-02 1.30390473441356e+02 3.16218395367682e-01
1.53877551020408e-02 1.29475091178116e+02 3.16186770240075e-01
1.56000000000000e-02 1.28566135187165e+02 3.16125066554550e-01
1.58122448979592e-02 1.27663560354859e+02 3.16034114523378e-01
1.60244897959184e-02 1.26767321882622e+02 3.15914719173469e-01
1.62367346938776e-02 1.25877375287208e+02 3.15767662114032e-01
1.64489795918367e-02 1.24993676397656e+02 3.15593701417787e-01
1.66612244897959e-02 1.24116181353102e+02 3.15393572912051e-01
1.68734693877551e-02 1.23244846600597e+02 3.15167991054612e-01
1.70857142857143e-02 1.22379628892948e+02 3.14917649763831e-01
1.72979591836735e-02 1.21520485286571e+02 3.14643223205888e-01
1.75102040816327e-02 1.20667373139359e+02 3.14345366541862e-01
1.77224489795918e-02 1.19820250108566e+02 3.14024716637303e-01
1.79346938775510e-02 1.18979074148706e+02 3.13681892736657e-01
1.81469387755102e-02 1.18143803509466e+02 3.13317497104639e-01
1.83591836734694e-02 1.17314396733632e+02 3.12932115636588e-01
1.85714285714286e-02 1.16490812655034e+02 3.12526318439762e-01
1.87836734693878e-02 1.15673010396500e+02 3.12100660387213e-01
1.89959183673469e-02 1.14860949367830e+02 3.11655681645927e-01
1.92081632653061e-02 1.14054589263779e+02 3.11191908180695e-01
1.94204081632653e-02 1.13253890062058e+02 3.10709852235115e-01
1.96326530612245e-02 1.12458812021347e+02 3.10210012791035e-01
1.98448979591837e-02 1.11669315679323e+02 3.09692876007624e-01
2.00571428571429e-02 1.10885361850701e+02 3.09158915641261e-01
2.02693877551020e-02 1.10106911625288e+02 3.08608593447265e-01
2.04816326530612e-02 1.09333926366053e+02 3.08042359564418e-01
2.06938775510204e-02 1.08566367707210e+02 3.07460652883257e-01
2.09061224489796e-02 1.07804197552313e+02 3.06863901398885e-01
2.11183673469388e-02 1.07047378072364e+02 3.06252522549470e-01
2.13306122448980e-02 1.06295871703937e+02 3.05626923540746e-01
2.15428571428571e-02 1.05549641147313e+02 3.04987501657216e-01
2.17551020408163e-02 1.04808649364628e+02 3.04334644561213e-01
2.19673469387755e-02 1.04072859578039e+02 3.03668730580014e-01
2.21795918367347e-02 1.03342235267890e+02 3.02990128981747e-01
2.23918367346939e-02 1.02616740170908e+02 3.02299200240635e-01
2.26040816326531e-02 1.01896338278398e+02 3.01596296292068e-01
2.28163265306122e-02 1.01180993834458e+02 3.00881760778023e-01
2.30285714285714e-02 1.00470671334205e+02 3.00155929283255e-01
2.32408163265306e-02 9.97653355220084e+01 2.99419129562776e-01
2.34530612244898e-02 9.90649513897456e+01 2.98671681760934e-01
2.36653061224490e-02 9.83694841750615e+01 2.97913898622520e-01
2.38775510204082e-02 9.76788993596435e+01 2.97146085696330e-01
2.40897959183673e-02 9.69931626675085e+01 2.96368541531396e-01
2.43020408163265e-02 9.63122400633018e+01 2.95581557866345e-01
2.45142857142857e-02 9.56360977506074e+01 2.94785419812097e-01
2.47265306122449e-02 9.49647021702708e+01 2.93980406028267e-01
2.49387755102041e-02 9.42980199987335e+01 2.93166788893511e-01
2.51510204081633e-02 9.36360181463788e+01 2.92344834670049e-01
2.53632653061224e-02 9.29786637558895e+01 2.91514803662687e-01
2.55755102040816e-02 9.23259242006173e+01 2.90676950372534e-01
2.57877551020408e-02 9.16777670829630e+01 2.89831523645612e-01
2.60000000000000e-02 9.10341602327689e+01 2.88978767014834e-01
2.62122448979592e-02 9.03950717060682e+01 2.88118918242822e-01
2.64244897959184e-02 8.97604697824533e+01 2.87252209856201e-01
2.66367346938776e-02 8.91303229645552e+01 2.86378869672287e-01
2.68489795918367e-02 8.85045999761263e+01 2.85499120327473e-01
2.70612244897959e-02 8.78832697604883e+01 2.84613179599261e-01
2.72734693877551e-02 8.72663014789905e+01 2.83721260524706e-01
2.74857142857143e-02 8.66536645094791e+01 2.82823571515224e-01
2.76979591836735e-02 8.60453284447777e+01 2.81920316467872e-01
2.79102040816327e-02 8.54412630911778e+01 2.81011694873265e-01
2.81224489795918e-02 8.48414384669403e+01 2.80097901920222e-01
2.83346938775510e-02 8.42458248008071e+01 2.79179128597314e-01
2.85469387755102e-02 8.36543925305241e+01 2.78255561791423e-01
2.87591836734694e-02 8.30671123013733e+01 2.77327384383367e-01
2.89714285714286e-02 8.24839549647161e+01 2.76394775340780e-01
2.91836734693878e-02 8.19048915765467e+01 2.75457909808311e-01
2.93959183673469e-02 8.13298933960550e+01 2.74516959195180e-01
2.96081632653061e-02 8.07589318842009e+01 2.73572091260303e-01
2.98204081632653e-02 8.01919787022970e+01 2.72623470195028e-01
3.00326530612245e-02 7.96290057106026e+01 2.71671256703489e-01
3.02448979591837e-02 7.90699849669267e+01 2.70715608080735e-01
3.04571428571429e-02 7.85148887252415e+01 2.69756678288766e-01
3.06693877551020e-02 7.79636894343051e+01 2.68794618030478e-01
3.08816326530612e-02 7.74163597362935e+01 2.67829574821481e-01
3.10938775510204e-02 7.68728724654440e+01 2.66861693060090e-01
3.13061224489796e-02 7.63332006467055e+01 2.65891114095438e-01
3.15183673469388e-02 7.57973174944005e+01 2.64917976293722e-01
3.17306122448980e-02 7.52651964108956e+01 2.63942415102770e-01
3.19428571428571e-02 7.47368109852808e+01 2.62964563114824e-01
3.21551020408163e-02 7.42121349920593e+01 2.61984550127703e-01
3.23673469387755e-02 7.36911423898454e+01 2.61002503204441e-01
3.25795918367347e-02 7.31738073200722e+01 2.60018546731328e-01
3.27918367346939e-02 7.26601041057082e+01 2.59032802474536e-01
3.30040816326531e-02 7.21500072499826e+01 2.58045389635255e-01
3.32163265306122e-02 7.16434914351200e+01 2.57056424903390e-01
3.34285714285714e-02 7.11405315210839e+01 2.56066022510042e-01
3.36408163265306e-02 7.06411025443286e+01 2.55074294278569e-01
3.38530612244898e-02 7.01451797165606e+01 2.54081349674441e-01
3.40653061224490e-02 6.96527384235077e+01 2.53087295853876e-01
3.42775510204082e-02 6.91637542236979e+01 2.52092237711190e-01
3.44897959183673e-02 6.86782028472460e+01 2.51096277925114e-01
3.47020408163265e-02 6.81960601946491e+01 2.50099517003965e-01
3.49142857142857e-02 6.77173023355904e+01 2.49102053329703e-01
3.51265306122449e-02 6.72419055077512e+01 2.48103983200914e-01
3.53387755102041e-02 6.67698461156322e+01 2.47105400874849e-01
3.55510204081633e-02 6.63011007293816e+01 2.46106398608416e-01
3.57632653061224e-02 6.58356460836328e+01 2.45107066698211e-01
3.59755102040816e-02 6.53734590763492e+01 2.44107493519661e-01
3.61877551020408e-02 6.49145167676780e+01 2.43107765565187e-01
3.64000000000000e-02 6.44587963788112e+01 2.42107967600418e-01
3.66122448979592e-02 6.40062752910306e+01 2.41108182342913e-01
3.68244897959184e-02 6.35569310440559e+01 2.40108490738517e-01
3.70367346938776e-02 6.31107413354622e+01 2.39108972231880e-01
3.72489795918367e-02 6.26676840193951e+01 2.38109704443597e-01
3.74612244897959e-02 6.22277371054707e+01 2.37110763322847e-01
3.76734693877551e-02 6.17908787576848e+01 2.36112223179922e-01
3.78857142857143e-02 6.13570872933287e+01 2.35114156718070e-01
3.80979591836735e-02 6.09263411819132e+01 2.34116635064571e-01
3.83102040816327e-02 6.04986190440999e+01 2.33119727801158e-01
3.85224489795918e-02 6.00738996506401e+01 2.32123502993795e-01
3.87346938775510e-02 5.96521619213212e+01 2.31128027221784e-01
3.89469387755102e-02 5.92333849239202e+01 2.30133365606236e-01
3.91591836734694e-02 5.88175478731651e+01 2.29139581837942e-01
3.93714285714286e-02 5.84046301297028e+01 2.28146738204651e-01
3.95836734693878e-02 5.79946111990752e+01 2.27154895617746e-01
3.97959183673469e-02 5.75874707307017e+01 2.26164113638351e-01
4.00081632653061e-02 5.71831885168692e+01 2.25174450502924e-01
4.02204081632653e-02 5.67817444917289e+01 2.24185963148266e-01
4.04326530612245e-02 5.63831187303010e+01 2.23198707236022e-01
4.06448979591837e-02 5.59872914474851e+01 2.22212737176690e-01
4.08571428571429e-02 5.55942429970784e+01 2.21228106153110e-01
4.10693877551020e-02 5.52039538708007e+01 2.20244866143458e-01
4.12816326530612e-02 5.48164046973262e+01 2.19263067943783e-01
4.14938775510204e-02 5.44315762413216e+01 2.18282761190086e-01
4.17061224489796e-02 5.40494494024922e+01 2.17303994379911e-01
4.19183673469388e-02 5.36700052146328e+01 2.16326814893583e-01
4.21306122448980e-02 5.32932248446875e+01 2.15351269014930e-01
4.23428571428571e-02 5.29190895918140e+01 2.14377401951601e-01
4.25551020408163e-02 5.25475808864561e+01 2.13405257855016e-01
4.27673469387755e-02 5.21786802894214e+01 2.12434879839856e-01
4.29795918367347e-02 5.18123694909669e+01 2.11466310003235e-01
4.31918367346939e-02 5.14486303098893e+01 2.10499589443449e-01
4.34040816326531e-02 5.10874446926234e+01 2.09534758278350e-01
4.36163265306122e-02 5.07287947123456e+01 2.08571855663370e-01
4.38285714285714e-02 5.03726625680843e+01 2.07610919809209e-01
4.40408163265306e-02 5.00190305838364e+01 2.06651987999145e-01
4.42530612244898e-02 4.96678812076897e+01 2.05695096606019e-01
4.44653061224490e-02 4.93191970109521e+01 2.04740281108900e-01
4.46775510204082e-02 4.89729606872865e+01 2.03787576109407e-01
4.48897959183674e-02 4.86291550518517e+01 2.02837015347737e-01
4.51020408163265e-02 4.82877630404493e+01 2.01888631718384e-01
4.53142857142857e-02 4.79487677086772e+01 2.00942457285539e-01
4.55265306122449e-02 4.76121522310883e+01 1.99998523298204e-01
4.57387755102041e-02 4.72778999003554e+01 1.99056860205044e-01
4.59510204081633e-02 4.69459941264419e+01 1.98117497668917e-01
4.61632653061224e-02 4.66164184357788e+01 1.97180464581133e-01
4.63755102040816e-02 4.62891564704465e+01 1.96245789075487e-01
4.65877551020408e-02 4.59641919873632e+01 1.95313498542004e-01
4.68000000000000e-02 4.56415088574787e+01 1.94383619714699e-01
4.70122448979592e-02 4.53210910650704e+01 1.93456178461134e-01
4.72244897959184e-02 4.50029227066567e+01 1.92531199946235e-01
4.74367346938776e-02 4.46869879905014e+01 1.91608708791693e-01
4.76489795918367e-02 4.43732712357312e+01 1.90688728865939e-01
4.78612244897959e-02 4.40617568715575e+01 1.89771283370866e-01
4.80734693877551e-02 4.37524294365033e+01 1.88856394853886e-01
4.82857142857143e-02 4.34452735776363e+01 1.87944085219754e-01
4.84979591836735e-02 4.31402740498066e+01 1.87034375742187e-01
4.87102040816327e-02 4.28374157148901e+01 1.86127287075288e-01
4.89224489795918e-02 4.25366835410369e+01 1.85222839264742e-01
4.91346938775510e-02 4.22380626019255e+01 1.84321051758788e-01
4.93469387755102e-02 4.19415380760222e+01 1.83421943419038e-01
4.95591836734694e-02 4.16470952458446e+01 1.82525532531066e-01
4.97714285714286e-02 4.13547194972322e+01 1.81631836814837e-01
4.99836734693878e-02 4.10643963186201e+01 1.80740873434927e-01
5.01959183673469e-02 4.07761113003194e+01 1.79852659010548e-01
5.04081632653061e-02 4.04898501338016e+01 1.78967209625434e-01
5.06204081632653e-02 4.02055986109889e+01 1.78084540837509e-01
5.08326530612245e-02 3.99233426235482e+01 1.77204667688418e-01
5.10448979591837e-02 3.96430681621919e+01 1.76327604712863e-01
5.12571428571429e-02 3.93647613159815e+01 1.75453365947806e-01
5.14693877551020e-02 3.90884082716380e+01 1.74581964941458e-01
5.16816326530612e-02 3.88139953128559e+01 1.73713414762150e-01
5.18938775510204e-02 3.85415088196225e+01 1.72847728007065e-01
5.21061224489796e-02 3.82709352675418e+01 1.71984916810752e-01
5.23183673469388e-02 3.80022612271634e+01 1.71124992853548e-01
5.25306122448980e-02 3.77354733633159e+01 1.70267967369847e-01
5.27428571428571e-02 3.74705584344450e+01 1.69413851156200e-01
5.29551020408163e-02 3.72075032919563e+01 1.68562654579286e-01
5.31673469387755e-02 3.69462948795625e+01 1.67714387583744e-01
5.33795918367347e-02 3.66869202326359e+01 1.66869059699878e-01
5.35918367346939e-02 3.64293664775642e+01 1.66026680051228e-01
5.38040816326531e-02 3.61736208311122e+01 1.65187257361990e-01
5.40163265306122e-02 3.59196705997870e+01 1.64350799964337e-01
5.42285714285714e-02 3.56675031792078e+01 1.63517315805600e-01
5.44408163265306e-02 3.54171060534809e+01 1.62686812455326e-01
5.46530612244898e-02 3.51684667945778e+01 1.61859297112210e-01
5.48653061224490e-02 3.49215730617188e+01 1.61034776610906e-01
5.50775510204082e-02 3.46764126007603e+01 1.60213257428753e-01
5.52897959183674e-02 3.44329732435869e+01 1.59394745692365e-01
5.55020408163265e-02 3.41912429075070e+01 1.58579247184085e-01
5.57142857142857e-02 3.39512095946532e+01 1.57766767348362e-01
5.59265306122449e-02 3.37128613913871e+01 1.56957311298029e-01
5.61387755102041e-02 3.34761864677078e+01 1.56150883820430e-01
5.63510204081633e-02 3.32411730766648e+01 1.55347489383491e-01
5.65632653061224e-02 3.30078095537745e+01 1.54547132141652e-01
5.67755102040816e-02 3.27760843164422e+01 1.53749815941715e-01
5.69877551020408e-02 3.25459858633864e+01 1.52955544328614e-01
5.72000000000000e-02 3.23175027740680e+01 1.52164320598668e-01
5.74122448979592e-02 3.20906237081802e+01 1.51376147661747e-01
5.76244897959184e-02 3.18653374049157e+01 1.50591028143560e-01
5.78367346938776e-02 3.16416326825784e+01 1.49808964484738e-01
5.80489795918367e-02 3.14194984379712e+01 1.49029958803727e-01
5.82612244897959e-02 3.11989236458451e+01 1.48254012949620e-01
5.84734693877551e-02 3.09798973583516e+01 1.47481128507259e-01
5.86857142857143e-02 3.07624087044996e+01 1.46711306802266e-01
5.88979591836735e-02 3.05464468896159e+01 1.45944548905980e-01
5.91102040816327e-02 3.03320011948091e+01 1.45180855640326e-01
5.93224489795918e-02 3.01190609764381e+01 1.44420227582597e-01
5.95346938775510e-02 2.99076156655833e+01 1.43662665070128e-01
5.97469387755102e-02 2.96976547675223e+01 1.42908168204932e-01
5.99591836734694e-02 2.94891678612090e+01 1.42156736858251e-01
6.01714285714286e-02 2.92821445987562e+01 1.41408370675018e-01
6.03836734693878e-02 2.90765747049223e+01 1.40663069078253e-01
6.05959183673469e-02 2.88724479766010e+01 1.39920831273382e-01
6.08081632653061e-02 2.86697542823152e+01 1.39181656252499e-01
6.10204081632653e-02 2.84684835617138e+01 1.38445542798550e-01
6.12326530612245e-02 2.82686258250726e+01 1.37712489489430e-01
6.14448979591837e-02 2.80701711527984e+01 1.36982494702038e-01
6.16571428571429e-02 2.78731096949367e+01 1.36255556616265e-01
6.18693877551020e-02 2.76774316706828e+01 1.35531673218899e-01
6.20816326530612e-02 2.74831273678963e+01 1.34810842307472e-01
6.22938775510204e-02 2.72901871426190e+01 1.34093061494048e-01
6.25061224489796e-02 2.70986014185965e+01 1.33378328208944e-01
6.27183673469388e-02 2.69083606868027e+01 1.32666639704405e-01
6.29306122448980e-02 2.67194555049677e+01 1.31957993058209e-01
6.31428571428571e-02 2.65318764971096e+01 1.31252385177208e-01
6.33551020408163e-02 2.63456143530685e+01 1.30549812800804e-01
6.35673469387755e-02 2.61606598280450e+01 1.29850272504386e-01
6.37795918367347e-02 2.59770037421411e+01 1.29153760702709e-01
6.39918367346939e-02 2.57946369799045e+01 1.28460273653205e-01
6.42040816326531e-02 2.56135504898763e+01 1.27769807459250e-01
6.44163265306122e-02 2.54337352841417e+01 1.27082358073378e-01
6.46285714285714e-02 2.52551824378837e+01 1.26397921300440e-01
6.48408163265306e-02 2.50778830889407e+01 1.25716492800715e-01
6.50530612244898e-02 2.49018284373660e+01 1.25038068092955e-01
6.52653061224490e-02 2.47270097449914e+01 1.24362642557399e-01
6.54775510204082e-02 2.45534183349933e+01 1.23690211438737e-01
6.56897959183673e-02 2.43810455914623e+01 1.23020769849016e-01
6.59020408163265e-02 2.42098829589753e+01 1.22354312770500e-01
6.61142857142857e-02 2.40399219421710e+01 1.21690835058484e-01
6.63265306122449e-02 2.38711541053282e+01 1.21030331444071e-01
6.65387755102041e-02 2.37035710719471e+01 1.20372796536900e-01
6.67510204081633e-02 2.35371645243336e+01 1.19718224827809e-01
6.69632653061225e-02 2.33719262031864e+01 1.19066610691491e-01
