Energy (eV)          EEDF (eV^-(3/2))     First Anisotropy
4.73913043478261e-03 7.93576323105129e-01 4.35082645958338e-04
1.42173913043478e-02 7.87635091703207e-01 7.18170083751187e-04
2.36956521739130e-02 7.81738340256159e-01 9.47337580399111e-04
3.31739130434783e-02 7.75885735740324e-01 1.12099527945638e-03
4.26521739130435e-02 7.70076947644567e-01 1.26546209348992e-03
5.21304347826087e-02 7.64311647944828e-01 1.39069775561249e-03
6.16086956521739e-02 7.58589511046102e-01 1.50186080736327e-03
7.10869565217391e-02 7.52910213804095e-01 1.60206891300790e-03
8.05652173913043e-02 7.47273435493589e-01 1.69339144777613e-03
9.00434782608696e-02 7.41678857797335e-01 1.77729218649588e-03
9.95217391304348e-02 7.36126164767091e-01 1.85485556369524e-03
1.09000000000000e-01 7.30615042804847e-01 1.92691383330297e-03
1.18478260869565e-01 7.25145180749502e-01 1.99412378240992e-03
1.27956521739130e-01 7.19716269652278e-01 2.05701557672364e-03
1.37434782608696e-01 7.14328002928519e-01 2.11602524966833e-03
1.46913043478261e-01 7.08980076288671e-01 2.17151712926068e-03
1.56391304347826e-01 7.03672187720866e-01 2.22379975691073e-03
1.65869565217391e-01 6.98404037474405e-01 2.27313749082144e-03
1.75347826086957e-01 6.93175328042764e-01 2.31975914804204e-03
1.84826086956522e-01 6.87985764146659e-01 2.36386456111923e-03
1.94304347826087e-01 6.82835052744159e-01 2.40562964999215e-03
2.03782608695652e-01 6.77722902932393e-01 2.44521038138932e-03
2.13260869565217e-01 6.72649026014439e-01 2.48274591002114e-03
2.22739130434783e-01 6.67613135454706e-01 2.51836111561193e-03
2.32217391304348e-01 6.62614946862577e-01 2.55216865147423e-03
2.41695652173913e-01 6.57654177976743e-01 2.58427062622889e-03
2.51173913043478e-01 6.52730548649055e-01 2.61475999205828e-03
2.60652173913043e-01 6.47843780847379e-01 2.64372171137935e-03
2.70130434782609e-01 6.42993598583063e-01 2.67123372553803e-03
2.79608695652174e-01 6.38179727953055e-01 2.69736777323082e-03
2.89086956521739e-01 6.33401897104901e-01 2.72219009884583e-03
2.98565217391304e-01 6.28659836221359e-01 2.74576204985138e-03
3.08043478260870e-01 6.23953277505176e-01 2.76814059321538e-03
3.17521739130435e-01 6.19281955164060e-01 2.78937876226441e-03
3.27000000000000e-01 6.14645605395599e-01 2.80952604317149e-03
3.36478260869565e-01 6.10043966385948e-01 2.82862872034743e-03
3.45956521739130e-01 6.05476778253791e-01 2.84673016989526e-03
3.55434782608696e-01 6.00943783077450e-01 2.86387111749793e-03
3.64913043478261e-01 5.96444724866207e-01 2.88008987626278e-03
3.74391304347826e-01 5.91979349545811e-01 2.89542255002275e-03
3.83869565217391e-01 5.87547404944193e-01 2.90990321614236e-03
3.93347826086957e-01 5.83148640777222e-01 2.92356408874646e-03
4.02826086956522e-01 5.78782808634550e-01 2.93643566316121e-03
4.12304347826087e-01 5.74449661976006e-01 2.94854685236930e-03
4.21782608695652e-01 5.70148956086064e-01 2.95992510172718e-03
4.31260869565217e-01 5.65880448091994e-01 2.97059649217869e-03
4.40739130434783e-01 5.61643896939364e-01 2.98058584217527e-03
4.50217391304348e-01 5.57439063378388e-01 2.98991679352232e-03
4.59695652173913e-01 5.53265709950500e-01 2.99861189107728e-03
4.69173913043478e-01 5.49123600974900e-01 3.00669265388532e-03
4.78652173913043e-01 5.45012502543715e-01 3.01417964605072e-03
4.88130434782609e-01 5.40932182483114e-01 3.02109253436802e-03
4.97608695652174e-01 5.36882410366146e-01 3.02745014087802e-03
5.07086956521739e-01 5.32862957490978e-01 3.03327049862501e-03
5.16565217391304e-01 5.28873596867982e-01 3.03857089711007e-03
5.26043478260870e-01 5.24914103206909e-01 3.04336792561715e-03
5.35521739130435e-01 5.20984252904196e-01 3.04767751321840e-03
5.45000000000000e-01 5.17083824030321e-01 3.05151496444695e-03
5.54478260869565e-01 5.13212596324154e-01 3.05489499752635e-03
5.63956521739130e-01 5.09370351159665e-01 3.05783177345915e-03
5.73434782608696e-01 5.05556871554635e-01 3.06033892282548e-03
5.82913043478261e-01 5.01771942151312e-01 3.06242957728719e-03
5.92391304347826e-01 4.98015349204240e-01 3.06411639375891e-03
6.01869565217391e-01 4.94286880568205e-01 3.06541157821905e-03
6.11347826086956e-01 4.90586325686258e-01 3.06632690794592e-03
6.20826086956522e-01 4.86913475577811e-01 3.06687375112922e-03
6.30304347826087e-01 4.83268122832546e-01 3.06706308982845e-03
6.39782608695652e-01 4.79650061581436e-01 3.06690553582528e-03
6.49260869565217e-01 4.76059087502537e-01 3.06641134531833e-03
6.58739130434783e-01 4.72494997803595e-01 3.06559043855409e-03
6.68217391304348e-01 4.68957591210571e-01 3.06445241368024e-03
6.77695652173913e-01 4.65446667956313e-01 3.06300656091737e-03
6.87173913043478e-01 4.61962029769254e-01 3.06126187485999e-03
6.96652173913043e-01 4.58503479867095e-01 3.05922707021595e-03
7.06130434782609e-01 4.55070822930928e-01 3.05691059154539e-03
7.15608695652174e-01 4.51663865109102e-01 3.05432062231492e-03
7.25086956521739e-01 4.48282414001264e-01 3.05146509871767e-03
7.34565217391304e-01 4.44926278647490e-01 3.04835171859578e-03
7.44043478260870e-01 4.41595269517504e-01 3.04498795091043e-03
7.53521739130435e-01 4.38289198499984e-01 3.04138104471736e-03
7.63000000000000e-01 4.35007878891932e-01 3.03753803673728e-03
7.72478260869565e-01 4.31751125392273e-01 3.03346576225744e-03
7.81956521739130e-01 4.28518754078857e-01 3.02917086089542e-03
7.91434782608696e-01 4.25310582410711e-01 3.02465978195825e-03
8.00913043478261e-01 4.22126429213482e-01 3.01993879425856e-03
8.10391304347826e-01 4.18966114669203e-01 3.01501399172605e-03
8.19869565217391e-01 4.15829460306142e-01 3.00989129967404e-03
8.29347826086956e-01 4.12716288988725e-01 3.00457648077299e-03
8.38826086956522e-01 4.09626424907531e-01 2.99907513989854e-03
8.48304347826087e-01 4.06559693572917e-01 2.99339273210563e-03
8.57782608695652e-01 4.03515921794416e-01 2.98753456610389e-03
8.67260869565217e-01 4.00494937681792e-01 2.98150580747936e-03
8.76739130434783e-01 3.97496570631689e-01 2.97531148602443e-03
8.86217391304348e-01 3.94520651317993e-01 2.96895649938116e-03
8.95695652173913e-01 3.91567011682284e-01 2.96244561736369e-03
9.05173913043478e-01 3.88635484924335e-01 2.95578348532978e-03
9.14652173913043e-01 3.85725905495816e-01 2.94897463046291e-03
9.24130434782609e-01 3.82838109081507e-01 2.94202346401166e-03
9.33608695652174e-01 3.79971932599532e-01 2.93493428335310e-03
9.43086956521739e-01 3.77127214188951e-01 2.92771127785426e-03
9.52565217391304e-01 3.74303793200617e-01 2.92035853142319e-03
9.62043478260870e-01 3.71501510188107e-01 2.91288002571943e-03
9.71521739130435e-01 3.68720206898722e-01 2.90527964324055e-03
9.81000000000000e-01 3.65959726264545e-01 2.89756116959105e-03
9.90478260869565e-01 3.63219912396288e-01 2.88972829843183e-03
9.99956521739130e-01 3.60500610566278e-01 2.88178463146431e-03
1.00943478260870e+00 3.57801667213200e-01 2.87373368304555e-03
1.01891304347826e+00 3.55122929917457e-01 2.86557888349528e-03
1.02839130434783e+00 3.52464247403218e-01 2.85732357804751e-03
1.03786956521739e+00 3.49825469527200e-01 2.84897103845091e-03
1.04734782608696e+00 3.47206447245704e-01 2.84052444501748e-03
1.05682608695652e+00 3.44607032680286e-01 2.83198690190148e-03
1.06630434782609e+00 3.42027079034685e-01 2.82336145242611e-03
1.07578260869565e+00 3.39466440611656e-01 2.81465106115652e-03
1.08526086956522e+00 3.36924972804742e-01 2.80585862255953e-03
1.09473913043478e+00 3.34402532090105e-01 2.79698696290222e-03
1.10421739130435e+00 3.31898976018399e-01 2.78803884206497e-03
1.11369565217391e+00 3.29414163206772e-01 2.77901695530563e-03
1.12317391304348e+00 3.26947953330863e-01 2.76992393497873e-03
1.13265217391304e+00 3.24500207116870e-01 2.76076235217591e-03
1.14213043478261e+00 3.22070786333687e-01 2.75153472399418e-03
1.15160869565217e+00 3.19659553764587e-01 2.74224349793579e-03
1.16108695652174e+00 3.17266373261506e-01 2.73289106489375e-03
1.17056521739130e+00 3.14891109674811e-01 2.72347977220774e-03
1.18004347826087e+00 3.12533628866691e-01 2.71401190753600e-03
1.18952173913043e+00 3.10193797703581e-01 2.70448970608872e-03
1.19900000000000e+00 3.07871484048641e-01 2.69491535193998e-03
1.20847826086957e+00 3.05566556754285e-01 2.68529097929368e-03
1.21795652173913e+00 3.03278885654787e-01 2.67561867370755e-03
1.22743478260870e+00 3.01008341558939e-01 2.66590047329014e-03
1.23691304347826e+00 2.98754796242742e-01 2.65613836985908e-03
1.24639130434783e+00 2.96518122442168e-01 2.64633431005863e-03
1.25586956521739e+00 2.94298193845973e-01 2.63649020139050e-03
1.26534782608696e+00 2.92094885071518e-01 2.62660789833829e-03
1.27482608695652e+00 2.89908071709219e-01 2.61668921340070e-03
1.28430434782609e+00 2.87737630263587e-01 2.60673592820248e-03
1.29378260869565e+00 2.85583438163699e-01 2.59674977919651e-03
1.30326086956522e+00 2.83445373756283e-01 2.58673246372315e-03
1.31273913043478e+00 2.81323316298843e-01 2.57668564092500e-03
1.32221739130435e+00 2.79217145952825e-01 2.56661093262151e-03
1.33169565217391e+00 2.77126743776884e-01 2.55650992416947e-03
1.34117391304348e+00 2.75051991720146e-01 2.54638416530742e-03
1.35065217391304e+00 2.72992772615546e-01 2.53623517096325e-03
1.36013043478261e+00 2.70948970173209e-01 2.52606442642106e-03
1.36960869565217e+00 2.68920468959382e-01 2.51587337487388e-03
1.37908695652174e+00 2.66907154433748e-01 2.50566342702898e-03
1.38856521739130e+00 2.64908912898788e-01 2.49543597079185e-03
1.39804347826087e+00 2.62925631508198e-01 2.48519235846603e-03
1.40752173913043e+00 2.60957198260518e-01 2.47493391197493e-03
1.41700000000000e+00 2.59003501992803e-01 2.46466192353416e-03
1.42647826086957e+00 2.57064432374343e-01 2.45437765630284e-03
1.43595652173913e+00 2.55139879900437e-01 2.44408234501663e-03
1.44543478260870e+00 2.53229735886214e-01 2.43377719661081e-03
1.45491304347826e+00 2.51333892460490e-01 2.42346339082609e-03
1.46439130434783e+00 2.49452242559676e-01 2.41314208079499e-03
1.47386956521739e+00 2.47584679921732e-01 2.40281439745576e-03
1.48334782608696e+00 2.45731099067940e-01 2.39248143851598e-03
1.49282608695652e+00 2.43891395333895e-01 2.38214427676725e-03
1.50230434782609e+00 2.42065464826373e-01 2.37180396847655e-03
1.51178260869565e+00 2.40253204429961e-01 2.36146154205337e-03
1.52126086956522e+00 2.38454511801238e-01 2.35111800253092e-03
1.53073913043478e+00 2.36669285362993e-01 2.34077433206224e-03
1.54021739130435e+00 2.34897424298479e-01 2.33043149039498e-03
1.54969565217391e+00 2.33138828545741e-01 2.32009041534066e-03
1.55917391304348e+00 2.31393398791953e-01 2.30975202323905e-03
1.56865217391304e+00 2.29661036467810e-01 2.29941720940208e-03
1.57813043478261e+00 2.27941643741963e-01 2.28908685196929e-03
1.58760869565217e+00 2.26235123504972e-01 2.27876180201200e-03
1.59708695652174e+00 2.24541379395612e-01 2.26844289086431e-03
1.60656521739130e+00 2.22860315763410e-01 2.25813093752722e-03
1.61604347826087e+00 2.21191837673994e-01 2.24782673851682e-03
1.62552173913043e+00 2.19535850903736e-01 2.23753107179028e-03
1.63500000000000e+00 2.17892261934427e-01 2.22724469712613e-03
1.64447826086957e+00 2.16260977947993e-01 2.21696835649287e-03
1.65395652173913e+00 2.14641906821259e-01 2.20670277440797e-03
1.66343478260870e+00 2.13034957120747e-01 2.19644865829399e-03
1.67291304347826e+00 2.11440038097512e-01 2.18620669882497e-03
1.68239130434783e+00 2.09857059682013e-01 2.17597757026274e-03
1.69186956521739e+00 2.08285932479031e-01 2.16576193380358e-03
1.70134782608696e+00 2.06726567753653e-01 2.15556042879501e-03
1.71082608695652e+00 2.05178877453348e-01 2.14537367915065e-03
1.72030434782609e+00 2.03642774175712e-01 2.13520229983265e-03
1.72978260869565e+00 2.02118171172694e-01 2.12504688784837e-03
1.73926086956522e+00 2.00604982345698e-01 2.11490802566702e-03
1.74873913043478e+00 1.99103122240716e-01 2.10478628151017e-03
1.75821739130435e+00 1.97612506043500e-01 2.09468220963025e-03
1.76769565217391e+00 1.96133049574785e-01 2.08459635058708e-03
1.77717391304348e+00 1.94664669285527e-01 2.07452923152242e-03
1.78665217391304e+00 1.93207282252183e-01 2.06448136642273e-03
1.79613043478261e+00 1.91760806172032e-01 2.05445325907461e-03
1.80560869565217e+00 1.90325159350748e-01 2.04444539517891e-03
1.81508695652174e+00 1.88900260721282e-01 2.03445824805054e-03
1.82456521739130e+00 1.87486029815621e-01 2.02449228438036e-03
1.83404347826087e+00 1.86082386768191e-01 2.01454795615580e-03
1.84352173913043e+00 1.84689252311343e-01 2.00462570368364e-03
1.85300000000000e+00 1.83306547770877e-01 1.99472595581877e-03
1.86247826086957e+00 1.81934195061601e-01 1.98484913018696e-03
1.87195652173913e+00 1.80572116682916e-01 1.97499563340183e-03
1.88143478260870e+00 1.79220235714449e-01 1.96516586128098e-03
1.89091304347826e+00 1.77878475811702e-01 1.95536019905655e-03
1.90039130434783e+00 1.76546761201742e-01 1.94557902157988e-03
1.90986956521739e+00 1.75225016678923e-01 1.93582269591229e-03
1.91934782608696e+00 1.73913167593955e-01 1.92609157431164e-03
1.92882608695652e+00 1.72611139869874e-01 1.91638599925399e-03
1.93830434782609e+00 1.71318859977534e-01 1.90670630851314e-03
1.94778260869565e+00 1.70036254938276e-01 1.89705282797864e-03
1.95726086956522e+00 1.68763252319808e-01 1.88742587430866e-03
1.96673913043478e+00 1.67499780232114e-01 1.87782575510978e-03
1.97621739130435e+00 1.66245767323390e-01 1.86825276910890e-03
1.98569565217391e+00 1.65001142776020e-01 1.85870720632471e-03
1.99517391304348e+00 1.63765836302581e-01 1.84918934823859e-03
2.00465217391304e+00 1.62539778141861e-01 1.83969946795769e-03
2.01413043478261e+00 1.61322899054932e-01 1.83023783251911e-03
2.02360869565217e+00 1.60115130315394e-01 1.82080469658181e-03
2.03308695652174e+00 1.58916403723127e-01 1.81140030691116e-03
2.04256521739130e+00 1.57726651582690e-01 1.80202490691675e-03
2.05204347826087e+00 1.56545806705455e-01 1.79267873019488e-03
2.06152173913043e+00 1.55373802405811e-01 1.78336200289044e-03
2.07100000000000e+00 1.54210572497401e-01 1.77407494384124e-03
2.08047826086957e+00 1.53056051289378e-01 1.76481776471800e-03
2.08995652173913e+00 1.51910173582704e-01 1.75559067016135e-03
2.09943478260870e+00 1.50772874666462e-01 1.74639385791866e-03
2.10891304347826e+00 1.49644090314205e-01 1.73722751897731e-03
2.11839130434783e+00 1.48523756780329e-01 1.72809183769464e-03
2.12786956521739e+00 1.47411810796468e-01 1.71898699383019e-03
2.13734782608696e+00 1.46308189562880e-01 1.70991315692386e-03
2.14682608695652e+00 1.45212830760139e-01 1.70087049026679e-03
2.15630434782609e+00 1.44125672530274e-01 1.69185915492002e-03
2.16578260869565e+00 1.43046653478422e-01 1.68287930396115e-03
2.17526086956522e+00 1.41975712669362e-01 1.67393108457002e-03
2.18473913043478e+00 1.40912789624076e-01 1.66501463814364e-03
2.19421739130435e+00 1.39857824316327e-01 1.65613010040606e-03
2.20369565217391e+00 1.38810757169277e-01 1.64727760151861e-03
2.21317391304348e+00 1.37771529052120e-01 1.63845726618980e-03
2.22265217391304e+00 1.36740081276742e-01 1.62966921378002e-03
2.23213043478261e+00 1.35716355594408e-01 1.62091356011810e-03
2.24160869565217e+00 1.34700294188035e-01 1.61219041243563e-03
2.25108695652174e+00 1.33691839682321e-01 1.60349987292629e-03
2.26056521739130e+00 1.32690935127020e-01 1.59484204234945e-03
2.27004347826087e+00 1.31697523998258e-01 1.58621701484706e-03
2.27952173913043e+00 1.30711550195334e-01 1.57762487980883e-03
2.28900000000000e+00 1.29732958037553e-01 1.56906572196574e-03
2.29847826086957e+00 1.28761692261082e-01 1.56053962148088e-03
2.30795652173913e+00 1.27797698015828e-01 1.55204665403814e-03
2.31743478260870e+00 1.26840920862347e-01 1.54358689093145e-03
2.32691304347826e+00 1.25891306768758e-01 1.53516039915140e-03
2.33639130434783e+00 1.24948802107705e-01 1.52676724146976e-03
2.34586956521739e+00 1.24013353653317e-01 1.51840747804907e-03
2.35534782608696e+00 1.23084908574355e-01 1.51008116191915e-03
2.36482608695652e+00 1.22163414442862e-01 1.50178834214008e-03
2.37430434782609e+00 1.21248819219490e-01 1.49352906700469e-03
2.38378260869565e+00 1.20341071254495e-01 1.48530337941160e-03
2.39326086956522e+00 1.19440119284814e-01 1.47711131851895e-03
2.40273913043478e+00 1.18545912431172e-01 1.46895291981967e-03
2.41221739130435e+00 1.17658400195211e-01 1.46082821521362e-03
2.42169565217391e+00 1.16777532456638e-01 1.45273723307977e-03
2.43117391304348e+00 1.15903259470391e-01 1.44467999834839e-03
2.44065217391304e+00 1.15035531863835e-01 1.43665653256996e-03
2.45013043478261e+00 1.14174300633969e-01 1.42866685535867e-03
2.45960869565217e+00 1.13319517141265e-01 1.42071098031007e-03
2.46908695652174e+00 1.12471133117176e-01 1.41278891784414e-03
2.47856521739130e+00 1.11629100651088e-01 1.40490067808507e-03
2.48804347826087e+00 1.10793372191076e-01 1.39704626668577e-03
2.49752173913043e+00 1.09963900541221e-01 1.38922568631166e-03
2.50700000000000e+00 1.09140638858944e-01 1.38143893670251e-03
2.51647826086957e+00 1.08323540652358e-01 1.37368601473244e-03
2.52595652173913e+00 1.07512559777646e-01 1.36596691446841e-03
2.53543478260870e+00 1.06707650436455e-01 1.35828162722920e-03
2.54491304347826e+00 1.05908767173307e-01 1.35063014164299e-03
2.55439130434783e+00 1.05115864873035e-01 1.34301244370326e-03
2.56386956521739e+00 1.04328898758234e-01 1.33542851805192e-03
2.57334782608696e+00 1.03547824383764e-01 1.32787834432779e-03
2.58282608695652e+00 1.02772597643199e-01 1.32036189970024e-03
2.59230434782609e+00 1.02003174757321e-01 1.31287916143540e-03
2.60178260869565e+00 1.01239512274672e-01 1.30543010316178e-03
2.61126086956522e+00 1.00481567069100e-01 1.29801469619024e-03
2.62073913043478e+00 9.97292963373238e-02 1.29063290956412e-03
2.63021739130435e+00 9.89826575965145e-02 1.28328471010693e-03
2.63969565217391e+00 9.82416086818988e-02 1.27597006247044e-03
2.64917391304348e+00 9.75061077443764e-02 1.26868892918292e-03
2.65865217391304e+00 9.67761132481570e-02 1.26144127069461e-03
2.66813043478261e+00 9.60515839684145e-02 1.25422704653208e-03
2.67760869565217e+00 9.53324789863338e-02 1.24704621199783e-03
2.68708695652174e+00 9.46187576947250e-02 1.23989872045249e-03
2.69656521739130e+00 9.39103797877548e-02 1.23278452562755e-03
2.70604347826087e+00 9.32073052613460e-02 1.22570357825074e-03
2.71552173913043e+00 9.25094944109179e-02 1.21865582723318e-03
2.72500000000000e+00 9.18169078291446e-02 1.21164121971049e-03
2.73447826086957e+00 9.11295064037285e-02 1.20465970108301e-03
2.74395652173913e+00 9.04472513151926e-02 1.19771121505480e-03
2.75343478260870e+00 8.97701040346885e-02 1.19079570367289e-03
2.76291304347826e+00 8.90980263218198e-02 1.18391310736572e-03
2.77239130434783e+00 8.84309802224830e-02 1.17706336498037e-03
2.78186956521739e+00 8.77689280667241e-02 1.17024641481157e-03
2.79134782608696e+00 8.71118324643104e-02 1.16346219164475e-03
2.80082608695652e+00 8.64596563095638e-02 1.15671062879432e-03
2.81030434782609e+00 8.58123627722771e-02 1.14999166016950e-03
2.81978260869565e+00 8.51699152979780e-02 1.14330521725111e-03
2.82926086956522e+00 8.45322776058652e-02 1.13665123015048e-03
2.83873913043478e+00 8.38994136867592e-02 1.13002962764289e-03
2.84821739130435e+00 8.32712878010678e-02 1.12344033719952e-03
2.85769565217391e+00 8.26478644767699e-02 1.11688328501950e-03
2.86717391304348e+00 8.20291085074112e-02 1.11035839606208e-03
2.87665217391304e+00 8.14149849501161e-02 1.10386559407727e-03
2.88613043478261e+00 8.08054591236140e-02 1.09740480253310e-03
2.89560869565217e+00 8.02004966042396e-02 1.09097594193939e-03
2.90508695652174e+00 7.96000632301520e-02 1.08457893168790e-03
2.91456521739130e+00 7.90041250932034e-02 1.07821369191706e-03
2.92404347826087e+00 7.84126485391045e-02 1.07188014077603e-03
2.93352173913043e+00 7.78256001655242e-02 1.06557819537943e-03
2.94300000000000e+00 7.72429468202031e-02 1.05930777183476e-03
2.95247826086957e+00 7.66646555990812e-02 1.05306878526909e-03
2.96195652173913e+00 7.60906938444395e-02 1.04686114985528e-03
2.97143478260870e+00 7.55210291430568e-02 1.04068477883807e-03
2.98091304347826e+00 7.49556293243786e-02 1.03453958456004e-03
2.99039130434783e+00 7.43944624587000e-02 1.02842547848633e-03
