Energy (eV)          EEDF (eV^-(3/2))     First Anisotropy
3.19047619047619e-02 1.46798867629916e-01 1.19471265880527e-04
9.57142857142857e-02 1.44400176871975e-01 1.96329253996365e-04
1.59523809523810e-01 1.42040680664640e-01 2.56667651142634e-04
2.23333333333333e-01 1.39719738596940e-01 3.01008540330359e-04
2.87142857142857e-01 1.37436720676986e-01 3.36769567483123e-04
3.50952380952381e-01 1.35191007225767e-01 3.66796444279201e-04
4.14761904761905e-01 1.32981988689223e-01 3.92582296900909e-04
4.78571428571429e-01 1.30809065473490e-01 4.15040889374122e-04
5.42380952380952e-01 1.28671647786149e-01 4.34786166826944e-04
6.06190476190476e-01 1.26569155463093e-01 4.52257577495090e-04
6.70000000000000e-01 1.24501017824699e-01 4.67784450575607e-04
7.33809523809524e-01 1.22466673516153e-01 4.81622362635913e-04
7.97619047619048e-01 1.20465570355158e-01 4.93975179171951e-04
8.61428571428572e-01 1.18497165182079e-01 5.05009163821058e-04
9.25238095238095e-01 1.16560923714659e-01 5.14862413477735e-04
9.89047619047619e-01 1.14656320396281e-01 5.23651396573757e-04
1.05285714285714e+00 1.12782838261966e-01 5.31475621951803e-04
1.11666666666667e+00 1.10939968796760e-01 5.38421061257117e-04
1.18047619047619e+00 1.09127211774277e-01 5.44562705696736e-04
1.24428571428571e+00 1.07344075173356e-01 5.49966522732662e-04
1.30809523809524e+00 1.05590074982543e-01 5.54690971735026e-04
1.37190476190476e+00 1.03864735127482e-01 5.58788196705644e-04
1.43571428571429e+00 1.02167587297849e-01 5.62304983490317e-04
1.49952380952381e+00 1.00498170824938e-01 5.65283523198543e-04
1.56333333333333e+00 9.88560325902686e-02 5.67762044494794e-04
1.62714285714286e+00 9.72407268573521e-02 5.69775330750026e-04
1.69095238095238e+00 9.56518151939449e-02 5.71355149721594e-04
1.75476190476190e+00 9.40888663208812e-02 5.72530618393913e-04
1.81857142857143e+00 9.25514559978524e-02 5.73328503050828e-04
1.88238095238095e+00 9.10391669340939e-02 5.73773481580135e-04
1.94619047619048e+00 8.95515886482476e-02 5.73888368106060e-04
2.01000000000000e+00 8.80883173592121e-02 5.73694299950985e-04
2.07380952380952e+00 8.66489558984523e-02 5.73210906523785e-04
2.13761904761905e+00 8.52331135729071e-02 5.72456453204133e-04
2.20142857142857e+00 8.38404060871412e-02 5.71447966903440e-04
2.26523809523810e+00 8.24704554179870e-02 5.70201349867329e-04
2.32904761904762e+00 8.11228897135468e-02 5.68731473801877e-04
2.39285714285714e+00 7.97973432097765e-02 5.67052268752038e-04
2.45666666666667e+00 7.84934561131027e-02 5.65176802161492e-04
2.52047619047619e+00 7.72108745040464e-02 5.63117344333234e-04
2.58428571428571e+00 7.59492502564288e-02 5.60885432536311e-04
2.64809523809524e+00 7.47082409225255e-02 5.58491926102055e-04
2.71190476190476e+00 7.34875096597964e-02 5.55947055839318e-04
2.77571428571429e+00 7.22867251247376e-02 5.53260471411510e-04
2.83952380952381e+00 7.11055613839585e-02 5.50441279266323e-04
2.90333333333333e+00 6.99436978382291e-02 5.47498081905655e-04
2.96714285714286e+00 6.88008191187411e-02 5.44439011439862e-04
3.03095238095238e+00 6.76766150177047e-02 5.41271760016436e-04
3.09476190476191e+00 6.65707803920614e-02 5.38003610048638e-04
3.15857142857143e+00 6.54830150814069e-02 5.34641457529353e-04
3.22238095238095e+00 6.44130238369477e-02 5.31191837287779e-04
3.28619047619048e+00 6.33605162306494e-02 5.27660946226963e-04
3.35000000000000e+00 6.23252065770598e-02 5.24054661149824e-04
3.41380952380952e+00 6.13068138650438e-02 5.20378559113951e-04
3.47761904761905e+00 6.03050616691384e-02 5.16637934473145e-04
3.54142857142857e+00 5.93196780865342e-02 5.12837814512292e-04
3.60523809523810e+00 5.83503956542965e-02 5.08982975889553e-04
3.66904761904762e+00 5.73969512772894e-02 5.05077956349340e-04
3.73285714285714e+00 5.64590861645953e-02 5.01127068751208e-04
3.79666666666667e+00 5.55365457512439e-02 4.97134414134265e-04
3.86047619047619e+00 5.46290796295604e-02 4.93103890971702e-04
3.92428571428571e+00 5.37364414882424e-02 4.89039206996938e-04
3.98809523809524e+00 5.28583890361237e-02 4.84943888799840e-04
4.05190476190476e+00 5.19946839455326e-02 4.80821290687882e-04
4.11571428571429e+00 5.11450917807781e-02 4.76674604571671e-04
4.17952380952381e+00 5.03093819348936e-02 4.72506866316771e-04
4.24333333333333e+00 4.94873275730476e-02 4.68320964542653e-04
4.30714285714286e+00 4.86787055629668e-02 4.64119647585967e-04
4.37095238095238e+00 4.78832964221666e-02 4.59905529943747e-04
4.43476190476191e+00 4.71008842525546e-02 4.55681099750908e-04
4.49857142857143e+00 4.63312566821285e-02 4.51448723221576e-04
4.56238095238095e+00 4.55742048124927e-02 4.47210651130620e-04
4.62619047619048e+00 4.48295231568811e-02 4.42969024924528e-04
4.69000000000000e+00 4.40970095846520e-02 4.38725880339005e-04
4.75380952380952e+00 4.33764652711072e-02 4.34483153162475e-04
4.81761904761905e+00 4.26676946372862e-02 4.30242683605785e-04
4.88142857142857e+00 4.19705053029608e-02 4.26006220350007e-04
4.94523809523810e+00 4.12847080298718e-02 4.21775425546512e-04
5.00904761904762e+00 4.06101166705900e-02 4.17551877395860e-04
5.07285714285714e+00 3.99465481220395e-02 4.13337074496409e-04
5.13666666666667e+00 3.92938222716631e-02 4.09132439963699e-04
5.20047619047619e+00 3.86517619487322e-02 4.04939323549584e-04
5.26428571428572e+00 3.80201928799551e-02 4.00759005604558e-04
5.32809523809524e+00 3.73989436372529e-02 3.96592699942324e-04
5.39190476190476e+00 3.67878455960290e-02 3.92441556490299e-04
5.45571428571429e+00 3.61867328858089e-02 3.88306664780745e-04
5.51952380952381e+00 3.55954423453906e-02 3.84189055472852e-04
5.58333333333333e+00 3.50138134817714e-02 3.80089703551419e-04
5.64714285714286e+00 3.44416884223030e-02 3.76009530562947e-04
5.71095238095238e+00 3.38789118760197e-02 3.71949406680914e-04
5.77476190476191e+00 3.33253310883649e-02 3.67910153546063e-04
5.83857142857143e+00 3.27807957998718e-02 3.63892545357577e-04
5.90238095238095e+00 3.22451582081855e-02 3.59897311339206e-04
5.96619047619048e+00 3.17182729250825e-02 3.55925138087128e-04
6.03000000000000e+00 3.11999969371392e-02 3.51976670465630e-04
6.09380952380952e+00 3.06901895694886e-02 3.48052513927568e-04
6.15761904761905e+00 3.01887124442083e-02 3.44153236051538e-04
6.22142857142857e+00 2.96954294461089e-02 3.40279367955773e-04
6.28523809523810e+00 2.92102066832851e-02 3.36431406379389e-04
6.34904761904762e+00 2.87329124508851e-02 3.32609814315093e-04
6.41285714285714e+00 2.82634171976197e-02 3.28815022810511e-04
6.47666666666667e+00 2.78015934882979e-02 3.25047432686443e-04
6.54047619047619e+00 2.73473159693367e-02 3.21307415049500e-04
6.60428571428571e+00 2.69004613368165e-02 3.17595313014097e-04
6.66809523809524e+00 2.64609083002452e-02 3.13911442779422e-04
6.73190476190476e+00 2.60285375523406e-02 3.10256094614327e-04
6.79571428571429e+00 2.56032317346236e-02 3.06629534414005e-04
6.85952380952381e+00 2.51848754056535e-02 3.03032004048392e-04
6.92333333333333e+00 2.47733550115211e-02 2.99463722806308e-04
6.98714285714286e+00 2.43685588525920e-02 2.95924888263020e-04
7.05095238095238e+00 2.39703770555682e-02 2.92415677069987e-04
7.11476190476191e+00 2.35787015418866e-02 2.88936246265656e-04
7.17857142857143e+00 2.31934259984576e-02 2.85486733500925e-04
7.24238095238095e+00 2.28144458504223e-02 2.82067258163795e-04
7.30619047619048e+00 2.24416582311251e-02 2.78677922454198e-04
7.37000000000000e+00 2.20749619542623e-02 2.75318811553516e-04
7.43380952380952e+00 2.17142574879066e-02 2.71989994724648e-04
7.49761904761905e+00 2.13594469255081e-02 2.68691525931325e-04
7.56142857142857e+00 2.10104339612591e-02 2.65423444396975e-04
7.62523809523810e+00 2.06671238625033e-02 2.62185775608606e-04
7.68904761904762e+00 2.03294234440830e-02 2.58978531408264e-04
7.75285714285714e+00 1.99972410443637e-02 2.55801710849041e-04
7.81666666666667e+00 1.96704864990134e-02 2.52655301013612e-04
7.88047619047619e+00 1.93490711165836e-02 2.49539277070618e-04
7.94428571428571e+00 1.90329076556568e-02 2.46453603122139e-04
8.00809523809524e+00 1.87219102995420e-02 2.43398232648213e-04
8.07190476190476e+00 1.84159946345706e-02 2.40373108903603e-04
8.13571428571429e+00 1.81150776259954e-02 2.37378165694561e-04
8.19952380952381e+00 1.78190775955016e-02 2.34413327385772e-04
8.26333333333333e+00 1.75279142001182e-02 2.31478509624731e-04
8.32714285714286e+00 1.72415084089703e-02 2.28573619702943e-04
8.39095238095238e+00 1.69597824832369e-02 2.25698556875613e-04
8.45476190476191e+00 1.66826599539973e-02 2.22853213027134e-04
8.51857142857143e+00 1.64100656015166e-02 2.20037472641240e-04
8.58238095238095e+00 1.61419254357899e-02 2.17251213361277e-04
8.64619047619048e+00 1.58781666754821e-02 2.14494306526120e-04
8.71000000000000e+00 1.56187177282114e-02 2.11766617124502e-04
8.77380952380953e+00 1.53635081720090e-02 2.09068004360492e-04
8.83761904761905e+00 1.51124687350177e-02 2.06398321912636e-04
8.90142857142857e+00 1.48655312778506e-02 2.03757418159609e-04
8.96523809523810e+00 1.46226287742281e-02 2.01145136701359e-04
9.02904761904762e+00 1.43836952928187e-02 1.98561316290951e-04
9.09285714285714e+00 1.41486659801367e-02 1.96005791269610e-04
9.15666666666667e+00 1.39174770421326e-02 1.93478391982793e-04
9.22047619047619e+00 1.36900657269087e-02 1.90978944702858e-04
9.28428571428572e+00 1.34663703084238e-02 1.88507272072980e-04
9.34809523809524e+00 1.32463300687576e-02 1.86063193291899e-04
9.41190476190476e+00 1.30298852825910e-02 1.83646524271428e-04
9.47571428571429e+00 1.28169772002760e-02 1.81257078046638e-04
9.53952380952381e+00 1.26075480319173e-02 1.78894664685471e-04
9.60333333333333e+00 1.24015409323441e-02 1.76559091671781e-04
9.66714285714286e+00 1.21988999848048e-02 1.74250164053787e-04
9.73095238095238e+00 1.19995701866472e-02 1.71967684568487e-04
9.79476190476191e+00 1.18034974337478e-02 1.69711453996107e-04
9.85857142857143e+00 1.16106285058514e-02 1.67481271060943e-04
9.92238095238095e+00 1.14209110527119e-02 1.65276932722415e-04
9.98619047619048e+00 1.12342935792866e-02 1.63098234298263e-04
1.00500000000000e+01 1.10507254325008e-02 1.60944970138122e-04
1.01138095238095e+01 1.08701567844485e-02 1.58816932571083e-04
1.01776190476190e+01 1.06925386251641e-02 1.56713912574278e-04
1.02414285714286e+01 1.05178227436957e-02 1.54635700911556e-04
1.03052380952381e+01 1.03459617168575e-02 1.52582087356410e-04
1.03690476190476e+01 1.01769088947507e-02 1.50552860151493e-04
1.04328571428571e+01 1.00106183929951e-02 1.48547806844897e-04
1.04966666666667e+01 9.84704507530985e-03 1.46566715141415e-04
1.05604761904762e+01 9.68614454293880e-03 1.44609372212434e-04
1.06242857142857e+01 9.52787312113211e-03 1.42675564186064e-04
1.06880952380952e+01 9.37218785176456e-03 1.40765076912117e-04
1.07519047619048e+01 9.21904647713788e-03 1.38877696741258e-04
1.08157142857143e+01 9.06840743004144e-03 1.37013209576009e-04
1.08795238095238e+01 8.92022982247565e-03 1.35171401602484e-04
1.09433333333333e+01 8.77447343323701e-03 1.33352058476762e-04
1.10071428571429e+01 8.63109870099504e-03 1.31554966006898e-04
1.10709523809524e+01 8.49006670950302e-03 1.29779910848490e-04
1.11347619047619e+01 8.35133917840712e-03 1.28026679910582e-04
1.11985714285714e+01 8.21487845165252e-03 1.26295059912148e-04
1.12623809523810e+01 8.08064749091736e-03 1.24584838006796e-04
1.13261904761905e+01 7.94860986185253e-03 1.22895802420201e-04
1.13900000000000e+01 7.81872972544653e-03 1.21227741893355e-04
1.14538095238095e+01 7.69097182719707e-03 1.19580445265077e-04
1.15176190476190e+01 7.56530149088818e-03 1.17953702044481e-04
1.15814285714286e+01 7.44168460578440e-03 1.16347302995426e-04
1.16452380952381e+01 7.32008761851914e-03 1.14761039614908e-04
1.17090476190476e+01 7.20047752298025e-03 1.13194703740297e-04
1.17728571428571e+01 7.08282185441618e-03 1.11648088074163e-04
1.18366666666667e+01 6.96708867751579e-03 1.10120986720380e-04
1.19004761904762e+01 6.85324657878966e-03 1.08613194695577e-04
1.19642857142857e+01 6.74126465712161e-03 1.07124507559794e-04
1.20280952380952e+01 6.63111251819000e-03 1.05654721897860e-04
1.20919047619048e+01 6.52276026336952e-03 1.04203635811337e-04
1.21557142857143e+01 6.41617848257651e-03 1.02771048259554e-04
1.22195238095238e+01 6.31133824628959e-03 1.01356759521644e-04
1.22833333333333e+01 6.20821109686757e-03 9.99605706277965e-05
1.23471428571429e+01 6.10676904334198e-03 9.85822837898418e-05
1.24109523809524e+01 6.00698455126772e-03 9.72217028418394e-05
1.24747619047619e+01 5.90883053611324e-03 9.58786328203736e-05
1.25385714285714e+01 5.81228035514868e-03 9.45528796448463e-05
1.26023809523810e+01 5.71730780252293e-03 9.32442505127573e-05
1.26661904761905e+01 5.62388709980987e-03 9.19525543043473e-05
1.27300000000000e+01 5.53199288980297e-03 9.06776011896883e-05
1.27938095238095e+01 5.44160022893554e-03 8.94192023283493e-05
1.28576190476190e+01 5.35268458262899e-03 8.81771702323932e-05
1.29214285714286e+01 5.26522181648543e-03 8.69513191381378e-05
1.29852380952381e+01 5.17918819046261e-03 8.57414646383506e-05
1.30490476190476e+01 5.09456035179091e-03 8.45474234002194e-05
1.31128571428571e+01 5.01131533057973e-03 8.33690134987993e-05
1.31766666666667e+01 4.92943053161090e-03 8.22060547586554e-05
1.32404761904762e+01 4.84888372887128e-03 8.10583684096179e-05
1.33042857142857e+01 4.76965305893343e-03 7.99257768220023e-05
1.33680952380952e+01 4.69171701680754e-03 7.88081038129930e-05
1.34319047619048e+01 4.61505444829340e-03 7.77051749607082e-05
1.34957142857143e+01 4.53964454484928e-03 7.66168171467315e-05
1.35595238095238e+01 4.46546683794583e-03 7.55428588510005e-05
1.36233333333333e+01 4.39250119298113e-03 7.44831297548400e-05
1.36871428571429e+01 4.32072780542064e-03 7.34374610156554e-05
1.37509523809524e+01 4.25012719379468e-03 7.24056855488274e-05
1.38147619047619e+01 4.18068019496117e-03 7.13876377321815e-05
1.38785714285714e+01 4.11236795841822e-03 7.03831531773083e-05
1.39423809523810e+01 4.04517194266288e-03 6.93920689821181e-05
1.40061904761905e+01 3.97907390866302e-03 6.84142239901376e-05
1.40700000000000e+01 3.91405591541233e-03 6.74494585139551e-05
1.41338095238095e+01 3.85010031461418e-03 6.64976141206477e-05
1.41976190476190e+01 3.78718974724783e-03 6.55585338640343e-05
1.42614285714286e+01 3.72530713748181e-03 6.46320625232353e-05
1.43252380952381e+01 3.66443568850346e-03 6.37180463438982e-05
1.43890476190476e+01 3.60455887754957e-03 6.28163328368773e-05
1.44528571428571e+01 3.54566045266923e-03 6.19267709918731e-05
1.45166666666667e+01 3.48772442704808e-03 6.10492114969690e-05
1.45804761904762e+01 3.43073507509578e-03 6.01835064964882e-05
1.46442857142857e+01 3.37467692780057e-03 5.93295094021548e-05
1.47080952380952e+01 3.31953476967835e-03 5.84870750896462e-05
1.47719047619048e+01 3.26529363347941e-03 5.76560601006534e-05
1.48357142857143e+01 3.21193879651816e-03 5.68363223250118e-05
1.48995238095238e+01 3.15945577667815e-03 5.60277211903264e-05
1.49633333333333e+01 3.10783032814035e-03 5.52301173848884e-05
1.50271428571429e+01 3.05704843855010e-03 5.44433730341898e-05
1.50909523809524e+01 3.00709632416623e-03 5.36673518825773e-05
1.51547619047619e+01 2.95796042647407e-03 5.29019190853816e-05
1.52185714285714e+01 2.90962740819179e-03 5.21469410459990e-05
1.52823809523810e+01 2.86208415060193e-03 5.14022855783618e-05
1.53461904761905e+01 2.81531774902618e-03 5.06678220742078e-05
1.54100000000000e+01 2.76931550964867e-03 4.99434213085856e-05
1.54738095238095e+01 2.72406494578201e-03 4.92289552870803e-05
1.55376190476190e+01 2.67955377535442e-03 4.85242973953722e-05
1.56014285714286e+01 2.63576991668793e-03 4.78293225532879e-05
1.56652380952381e+01 2.59270148551900e-03 4.71439070328291e-05
1.57290476190476e+01 2.55033679150728e-03 4.64679283149184e-05
1.57928571428571e+01 2.50866433586978e-03 4.58012652270987e-05
1.58566666666667e+01 2.46767280744174e-03 4.51437980854344e-05
1.59204761904762e+01 2.42735107988248e-03 4.44954085242560e-05
1.59842857142857e+01 2.38768820841098e-03 4.38559793618422e-05
1.60480952380952e+01 2.34867342757896e-03 4.32253947272238e-05
1.61119047619048e+01 2.31029614759508e-03 4.26035401909100e-05
1.61757142857143e+01 2.27254595170477e-03 4.19903025437156e-05
1.62395238095238e+01 2.23541259336342e-03 4.13855699193614e-05
1.63033333333333e+01 2.19888599323398e-03 4.07892316009314e-05
1.63671428571429e+01 2.16295623712214e-03 4.02011781348780e-05
1.64309523809524e+01 2.12761357260545e-03 3.96213014486854e-05
1.64947619047619e+01 2.09284840661610e-03 3.90494947046737e-05
1.65585714285714e+01 2.05865130263330e-03 3.84856521841751e-05
1.66223809523810e+01 2.02501297874058e-03 3.79296693925547e-05
1.66861904761905e+01 1.99192430447958e-03 3.73814431676386e-05
1.67500000000000e+01 1.95937629858360e-03 3.68408715429247e-05
1.68138095238095e+01 1.92736012635200e-03 3.63078536390107e-05
1.68776190476190e+01 1.89586709782271e-03 3.57822897603412e-05
1.69414285714286e+01 1.86488866483550e-03 3.52640814951370e-05
1.70052380952381e+01 1.83441641890694e-03 3.47531315874146e-05
1.70690476190476e+01 1.80444208877501e-03 3.42493438352100e-05
1.71328571428571e+01 1.77495753868019e-03 3.37526231797148e-05
1.71966666666667e+01 1.74595476562414e-03 3.32628757973888e-05
1.72604761904762e+01 1.71742589737726e-03 3.27800089802156e-05
1.73242857142857e+01 1.68936319018239e-03 3.23039310403042e-05
1.73880952380952e+01 1.66175902713842e-03 3.18345513920226e-05
1.74519047619048e+01 1.63460591564094e-03 3.13717806369096e-05
1.75157142857143e+01 1.60789648551443e-03 3.09155304095660e-05
1.75795238095238e+01 1.58162348701214e-03 3.04657134572228e-05
1.76433333333333e+01 1.55577978870370e-03 3.00222435044174e-05
1.77071428571429e+01 1.53035837597806e-03 2.95850353269035e-05
1.77709523809524e+01 1.50535234869519e-03 2.91540048281436e-05
1.78347619047619e+01 1.48075491946333e-03 2.87290689364499e-05
1.78985714285714e+01 1.45655941166341e-03 2.83101455227342e-05
1.79623809523810e+01 1.43275925804158e-03 2.78971534686275e-05
1.80261904761905e+01 1.40934799851661e-03 2.74900127370101e-05
1.80900000000000e+01 1.38631927856493e-03 2.70886442757654e-05
1.81538095238095e+01 1.36366684737281e-03 2.66929699406932e-05
1.82176190476190e+01 1.34138455651345e-03 2.63029125582950e-05
1.82814285714286e+01 1.31946635789951e-03 2.59183959908111e-05
1.83452380952381e+01 1.29790630226928e-03 2.55393450461665e-05
1.84090476190476e+01 1.27669853745836e-03 2.51656854057208e-05
1.84728571428571e+01 1.25583730715631e-03 2.47973436821449e-05
1.85366666666667e+01 1.23531694899463e-03 2.44342474793957e-05
1.86004761904762e+01 1.21513189312777e-03 2.40763253084533e-05
1.86642857142857e+01 1.19527666061650e-03 2.37235065196104e-05
1.87280952380952e+01 1.17574586225955e-03 2.33757213558230e-05
1.87919047619048e+01 1.15653419680791e-03 2.30329010080251e-05
1.88557142857143e+01 1.13763644963477e-03 2.26949775075917e-05
1.89195238095238e+01 1.11904749132041e-03 2.23618837781228e-05
1.89833333333333e+01 1.10076227616478e-03 2.20335535407250e-05
1.90471428571429e+01 1.08277584110639e-03 2.17099213620487e-05
1.91109523809524e+01 1.06508330408306e-03 2.13909227041493e-05
1.91747619047619e+01 1.04767986280552e-03 2.10764938520780e-05
1.92385714285714e+01 1.03056079336609e-03 2.07665718555016e-05
1.93023809523810e+01 1.01372144922300e-03 2.04610945729926e-05
1.93661904761905e+01 9.97157259669271e-04 2.01600007180213e-05
1.94300000000000e+01 9.80863728683202e-04 1.98632297911971e-05
1.94938095238095e+01 9.64836433627000e-04 1.95707220255592e-05
1.95576190476190e+01 9.49071024292564e-04 1.92824184274123e-05
1.96214285714286e+01 9.33563221471295e-04 1.89982608187526e-05
1.96852380952381e+01 9.18308815876791e-04 1.87181917738616e-05
1.97490476190476e+01 9.03303666927438e-04 1.84421545680356e-05
1.98128571428571e+01 8.88543701850118e-04 1.81700932152395e-05
1.98766666666667e+01 8.74024914344223e-04 1.79019525072447e-05
1.99404761904762e+01 8.59743363571995e-04 1.76376779542956e-05
2.00042857142857e+01 8.45695173019690e-04 1.73772157370627e-05
2.00680952380952e+01 8.31876529655752e-04 1.71205127413633e-05
2.01319047619048e+01 8.18283682682763e-04 1.68675165942696e-05
