Energy (eV)          EEDF (eV^-(3/2))     First Anisotropy
5.28571428571429e-04 6.85903152975878e+01 4.32637126720296e-02
1.58571428571429e-03 6.74722718763453e+01 7.10974493484972e-02
2.64285714285714e-03 6.63724529136990e+01 9.29517681673985e-02
3.70000000000000e-03 6.52905613406130e+01 1.09014144857551e-01
4.75714285714286e-03 6.42263049353125e+01 1.21970383246953e-01
5.81428571428571e-03 6.31793962392558e+01 1.32850802110323e-01
6.87142857142857e-03 6.21495524805691e+01 1.42195970677426e-01
7.92857142857143e-03 6.11364954943947e+01 1.50336688104485e-01
8.98571428571429e-03 6.01399516511569e+01 1.57495201546690e-01
1.00428571428571e-02 5.91596517821860e+01 1.63830582476385e-01
1.11000000000000e-02 5.81953311032848e+01 1.69462035789771e-01
1.21571428571429e-02 5.72467291535800e+01 1.74482066577535e-01
1.32142857142857e-02 5.63135897079813e+01 1.78964460161039e-01
1.42714285714286e-02 5.53956607271066e+01 1.82969390339968e-01
1.53285714285714e-02 5.44926942717844e+01 1.86546835098537e-01
1.63857142857143e-02 5.36044464483130e+01 1.89738943534156e-01
1.74428571428571e-02 5.27306773418445e+01 1.92581726562763e-01
1.85000000000000e-02 5.18711509416154e+01 1.95106294774836e-01
1.95571428571429e-02 5.10256350899336e+01 1.97339785414876e-01
2.06142857142857e-02 5.01939014078512e+01 1.99306069683625e-01
2.16714285714286e-02 4.93757252441305e+01 2.01026301542887e-01
2.27285714285714e-02 4.85708856047540e+01 2.02519349980152e-01
2.37857142857143e-02 4.77791651002896e+01 2.03802143752062e-01
2.48428571428571e-02 4.70003498868236e+01 2.04889950210659e-01
2.59000000000000e-02 4.62342296021587e+01 2.05796602524531e-01
2.69571428571429e-02 4.54805973168061e+01 2.06534687168334e-01
2.80142857142857e-02 4.47392494708004e+01 2.07115699850318e-01
2.90714285714286e-02 4.40099858255414e+01 2.07550176240868e-01
3.01285714285714e-02 4.32926094033085e+01 2.07847802481321e-01
3.11857142857143e-02 4.25869264387099e+01 2.08017509020832e-01
3.22428571428571e-02 4.18927463261410e+01 2.08067551292937e-01
3.33000000000000e-02 4.12098815642204e+01 2.08005578897079e-01
3.43571428571429e-02 4.05381477104560e+01 2.07838695660354e-01
3.54142857142857e-02 3.98773633264078e+01 2.07573511925684e-01
3.64714285714286e-02 3.92273499334297e+01 2.07216190272038e-01
3.75285714285714e-02 3.85879319599618e+01 2.06772485748129e-01
3.85857142857143e-02 3.79589366973997e+01 2.06247781234951e-01
3.96428571428571e-02 3.73401942533121e+01 2.05647119050100e-01
4.07000000000000e-02 3.67315375026229e+01 2.04975228809122e-01
4.17571428571429e-02 3.61328020462979e+01 2.04236552408163e-01
4.28142857142857e-02 3.55438261632957e+01 2.03435266399516e-01
4.38714285714286e-02 3.49644507703592e+01 2.02575302073138e-01
4.49285714285714e-02 3.43945193757343e+01 2.01660363600244e-01
4.59857142857143e-02 3.38338780393332e+01 2.00693944308815e-01
4.70428571428571e-02 3.32823753310618e+01 1.99679341654336e-01
4.81000000000000e-02 3.27398622877334e+01 1.98619670616499e-01
4.91571428571429e-02 3.22061923756953e+01 1.97517875992217e-01
5.02142857142857e-02 3.16812214485106e+01 1.96376743619640e-01
5.12714285714286e-02 3.11648077106472e+01 1.95198910626827e-01
5.23285714285714e-02 3.06568116766640e+01 1.93986874868045e-01
5.33857142857143e-02 3.01570961353869e+01 1.92743003490591e-01
5.44428571428571e-02 2.96655261127802e+01 1.91469541004707e-01
5.55000000000000e-02 2.91819688338150e+01 1.90168616555045e-01
5.65571428571429e-02 2.87062936888047e+01 1.88842250713472e-01
5.76142857142857e-02 2.82383721960151e+01 1.87492361767051e-01
5.86714285714286e-02 2.77780779689909e+01 1.86120771527769e-01
5.97285714285714e-02 2.73252866804663e+01 1.84729210759439e-01
6.07857142857143e-02 2.68798760302242e+01 1.83319324136253e-01
6.18428571428571e-02 2.64417257120117e+01 1.81892675013460e-01
6.29000000000000e-02 2.60107173797355e+01 1.80450749731747e-01
6.39571428571429e-02 2.55867346172183e+01 1.78994961697767e-01
6.50142857142857e-02 2.51696629050955e+01 1.77526655200134e-01
6.60714285714286e-02 2.47593895914817e+01 1.76047108963960e-01
6.71285714285714e-02 2.43558038600022e+01 1.74557539509693e-01
6.81857142857143e-02 2.39587967009997e+01 1.73059104229635e-01
6.92428571428571e-02 2.35682608820517e+01 1.71552904406533e-01
7.03000000000000e-02 2.31840909179670e+01 1.70039987929732e-01
7.13571428571429e-02 2.28061830436622e+01 1.68521351902725e-01
7.24142857142857e-02 2.24344351848137e+01 1.66997945100709e-01
7.34714285714286e-02 2.20687469315627e+01 1.65470670272418e-01
7.45285714285714e-02 2.17090195101615e+01 1.63940386336182e-01
7.55857142857143e-02 2.13551557572068e+01 1.62407910390464e-01
7.66428571428572e-02 2.10070600933643e+01 1.60874019723893e-01
7.77000000000000e-02 2.06646384967183e+01 1.59339453613495e-01
7.87571428571429e-02 2.03277984784758e+01 1.57804915070483e-01
7.98142857142857e-02 1.99964490569209e+01 1.56271072495562e-01
8.08714285714286e-02 1.96705007338703e+01 1.54738561235017e-01
8.19285714285714e-02 1.93498654695026e+01 1.53207985077516e-01
8.29857142857143e-02 1.90344566593170e+01 1.51679917620739e-01
8.40428571428571e-02 1.87241891107166e+01 1.50154903662962e-01
8.51000000000000e-02 1.84189790193201e+01 1.48633460437799e-01
8.61571428571429e-02 1.81187439472197e+01 1.47116078825351e-01
8.72142857142857e-02 1.78234027998489e+01 1.45603224506072e-01
8.82714285714286e-02 1.75328758049169e+01 1.44095339047821e-01
8.93285714285714e-02 1.72470844900493e+01 1.42592840959149e-01
9.03857142857143e-02 1.69659516621953e+01 1.41096126646571e-01
9.14428571428571e-02 1.66894013867574e+01 1.39605571407272e-01
9.25000000000000e-02 1.64173589665275e+01 1.38121530300970e-01
9.35571428571429e-02 1.61497509222423e+01 1.36644339013439e-01
9.46142857142857e-02 1.58865049720272e+01 1.35174314682336e-01
9.56714285714286e-02 1.56275500125602e+01 1.33711756676041e-01
9.67285714285714e-02 1.53728160991999e+01 1.32256947353277e-01
9.77857142857143e-02 1.51222344275877e+01 1.30810152749275e-01
9.88428571428571e-02 1.48757373150482e+01 1.29371623300540e-01
9.99000000000000e-02 1.46332581818515e+01 1.27941594451140e-01
1.00957142857143e-01 1.43947315343913e+01 1.26520287356428e-01
1.02014285714286e-01 1.41600929450729e+01 1.25107909435053e-01
1.03071428571429e-01 1.39292790373530e+01 1.23704654866447e-01
1.04128571428571e-01 1.37022274677454e+01 1.22310705253279e-01
1.05185714285714e-01 1.34788769089787e+01 1.20926230106068e-01
1.06242857142857e-01 1.32591670334375e+01 1.19551387346923e-01
1.07300000000000e-01 1.30430384968650e+01 1.18186323743429e-01
1.08357142857143e-01 1.28304329235046e+01 1.16831175521577e-01
1.09414285714286e-01 1.26212928867724e+01 1.15486068712227e-01
1.10471428571429e-01 1.24155618973550e+01 1.14151119457961e-01
1.11528571428571e-01 1.22131843867319e+01 1.12826434595358e-01
1.12585714285714e-01 1.20141056921641e+01 1.11512111987498e-01
1.13642857142857e-01 1.18182720419343e+01 1.10208240899909e-01
1.14700000000000e-01 1.16256305408206e+01 1.08914902319325e-01
1.15757142857143e-01 1.14361291567857e+01 1.07632169429457e-01
1.16814285714286e-01 1.12497167039544e+01 1.06360107860163e-01
1.17871428571429e-01 1.10663428317969e+01 1.05098775904332e-01
1.18928571428571e-01 1.08859580105124e+01 1.03848224974996e-01
1.19985714285714e-01 1.07085135176491e+01 1.02608499849166e-01
1.21042857142857e-01 1.05339614249479e+01 1.01379638951210e-01
1.22100000000000e-01 1.03622545853949e+01 1.00161674588820e-01
1.23157142857143e-01 1.01933466213049e+01 9.89546333263713e-02
1.24214285714286e-01 1.00271919093085e+01 9.77585361646124e-02
1.25271428571429e-01 9.86374557054801e+00 9.65733986936675e-02
1.26328571428571e-01 9.70296345770518e+00 9.53992314554739e-02
1.27385714285714e-01 9.54480214307502e+00 9.42360401233407e-02
1.28442857142857e-01 9.38921890683881e+00 9.30838257170815e-02
1.29500000000000e-01 9.23617172552391e+00 9.19425847784409e-02
1.30557142857143e-01 9.08561926134064e+00 9.08123096666257e-02
1.31614285714286e-01 8.93752084892740e+00 8.96929886876970e-02
1.32671428571429e-01 8.79183648648380e+00 8.85846062016197e-02
1.33728571428571e-01 8.64852682425101e+00 8.74871429119254e-02
1.34785714285714e-01 8.50755315388224e+00 8.64005759980237e-02
1.35842857142857e-01 8.36887739798972e+00 8.53248792792763e-02
1.36900000000000e-01 8.23246209985873e+00 8.42600233456014e-02
1.37957142857143e-01 8.09827041391021e+00 8.32059757929990e-02
1.39014285714286e-01 7.96626609398694e+00 8.21627013161015e-02
1.40071428571429e-01 7.83641348534806e+00 8.11301617818707e-02
1.41128571428571e-01 7.70867751443592e+00 8.01083164625638e-02
1.42185714285714e-01 7.58302367940176e+00 7.90971221329451e-02
1.43242857142857e-01 7.45941804078839e+00 7.80965331957267e-02
1.44300000000000e-01 7.33782721236216e+00 7.71065017786175e-02
1.45357142857143e-01 7.21821835258561e+00 7.61269779230403e-02
1.46414285714286e-01 7.10055915425697e+00 7.51579096494703e-02
1.47471428571429e-01 6.98481783729309e+00 7.41992430067799e-02
1.48528571428571e-01 6.87096313963590e+00 7.32509222605435e-02
1.49585714285714e-01 6.75896430880781e+00 7.23128899639605e-02
1.50642857142857e-01 6.64879109360671e+00 7.13850870537818e-02
1.51700000000000e-01 6.54041373593440e+00 7.04674529220387e-02
1.52757142857143e-01 6.43380296317457e+00 6.95599255678856e-02
1.53814285714286e-01 6.32892997902295e+00 6.86624416427369e-02
1.54871428571429e-01 6.22576645698888e+00 6.77749364817574e-02
1.55928571428571e-01 6.12428453231217e+00 6.68973442566798e-02
1.56985714285714e-01 6.02445679443621e+00 6.60295980269051e-02
1.58042857142857e-01 5.92625627960548e+00 6.51716298127264e-02
1.59100000000000e-01 5.82965646358190e+00 6.43233706478408e-02
1.60157142857143e-01 5.73463125483405e+00 6.34847507018896e-02
1.61214285714286e-01 5.64115498641612e+00 6.26556993105717e-02
1.62271428571429e-01 5.54920241012249e+00 6.18361449940318e-02
1.63328571428571e-01 5.45874868930107e+00 6.10260155812479e-02
1.64385714285714e-01 5.36976939214437e+00 6.02252382461554e-02
1.65442857142857e-01 5.28224048509135e+00 5.94337395632939e-02
1.66500000000000e-01 5.19613832633536e+00 5.86514455456767e-02
1.67557142857143e-01 5.11143965973953e+00 5.78782817439029e-02
1.68614285714286e-01 5.02812160764070e+00 5.71141732650626e-02
1.69671428571429e-01 4.94616166559620e+00 5.63590447815644e-02
1.70728571428571e-01 4.86553769599269e+00 5.56128206326119e-02
1.71785714285714e-01 4.78622792206638e+00 5.48754248489686e-02
1.72842857142857e-01 4.70821092202177e+00 5.41467811949467e-02
1.73900000000000e-01 4.63146562324524e+00 5.34268131950979e-02
1.74957142857143e-01 4.55597129687016e+00 5.27154442144924e-02
1.76014285714286e-01 4.48170755139758e+00 5.20125974692916e-02
1.77071428571429e-01 4.40865432797864e+00 5.13181960286241e-02
1.78128571428571e-01 4.33679189472991e+00 5.06321628975082e-02
1.79185714285714e-01 4.26610084140344e+00 4.99544210330157e-02
1.80242857142857e-01 4.19656207414458e+00 4.92848933756159e-02
1.81300000000000e-01 4.12815681033438e+00 4.86235028673276e-02
1.82357142857143e-01 4.06086657373605e+00 4.79701725167845e-02
1.83414285714286e-01 3.99467318883722e+00 4.73248254036451e-02
1.84471428571429e-01 3.92955877661629e+00 4.66873846754845e-02
1.85528571428571e-01 3.86550574948522e+00 4.60577736156198e-02
1.86585714285714e-01 3.80249680653882e+00 4.54359156527718e-02
1.87642857142857e-01 3.74051492888223e+00 4.48217343841083e-02
1.88700000000000e-01 3.67954337503382e+00 4.42151535868827e-02
1.89757142857143e-01 3.61956567659140e+00 4.36160972711657e-02
1.90814285714286e-01 3.56056563321264e+00 4.30244896797390e-02
1.91871428571429e-01 3.50252730881787e+00 4.24402552814741e-02
1.92928571428571e-01 3.44543502709045e+00 4.18633188268367e-02
1.93985714285714e-01 3.38927336724230e+00 4.12936053526584e-02
1.95042857142857e-01 3.33402715984915e+00 4.07310401986989e-02
1.96100000000000e-01 3.27968148275300e+00 4.01755490143394e-02
1.97157142857143e-01 3.22622165719304e+00 3.96270578012887e-02
1.98214285714286e-01 3.17363324335068e+00 3.90854929102124e-02
1.99271428571429e-01 3.12190203694559e+00 3.85507810317093e-02
2.00328571428571e-01 3.07101406523157e+00 3.80228492417205e-02
2.01385714285714e-01 3.02095558322233e+00 3.75016250026566e-02
2.02442857142857e-01 2.97171306997925e+00 3.69870361749179e-02
2.03500000000000e-01 2.92327322495919e+00 3.64790110198488e-02
2.04557142857143e-01 2.87562296456058e+00 3.59774782342740e-02
2.05614285714286e-01 2.82874941816851e+00 3.54823669448201e-02
2.06671428571429e-01 2.78263992510456e+00 3.49936066973176e-02
2.07728571428571e-01 2.73728203106328e+00 3.45111274939334e-02
2.08785714285714e-01 2.69266348474809e+00 3.40348597916122e-02
2.09842857142857e-01 2.64877223456246e+00 3.35647345096714e-02
2.10900000000000e-01 2.60559642535459e+00 3.31006830299680e-02
2.11957142857143e-01 2.56312439533456e+00 3.26426372247661e-02
2.13014285714286e-01 2.52134467256233e+00 3.21905294494703e-02
2.14071428571429e-01 2.48024597221572e+00 3.17442925310891e-02
2.15128571428571e-01 2.43981719341860e+00 3.13038597985602e-02
2.16185714285714e-01 2.40004741624247e+00 3.08691650792429e-02
2.17242857142857e-01 2.36092589875712e+00 3.04401427034851e-02
2.18300000000000e-01 2.32244207412912e+00 3.00167275027305e-02
2.19357142857143e-01 2.28458554787036e+00 2.95988548319343e-02
2.20414285714286e-01 2.24734609471867e+00 2.91864605612695e-02
2.21471428571429e-01 2.21071365619160e+00 2.87794810641140e-02
2.22528571428571e-01 2.17467833776305e+00 2.83778532417719e-02
2.23585714285714e-01 2.13923040619066e+00 2.79815145185942e-02
2.24642857142857e-01 2.10436028688700e+00 2.75904028442168e-02
2.25700000000000e-01 2.07005856133340e+00 2.72044566901783e-02
2.26757142857143e-01 2.03631596462444e+00 2.68236150678817e-02
2.27814285714286e-01 2.00312338269673e+00 2.64478175196924e-02
2.28871428571429e-01 1.97047185013923e+00 2.60770041067903e-02
2.29928571428571e-01 1.93835254767987e+00 2.57111154292765e-02
2.30985714285714e-01 1.90675679980335e+00 2.53500926203663e-02
2.32042857142857e-01 1.87567607240804e+00 2.49938773468536e-02
2.33100000000000e-01 1.84510197050078e+00 2.46424118046829e-02
2.34157142857143e-01 1.81502623600581e+00 2.42956387332686e-02
2.35214285714286e-01 1.78544074530221e+00 2.39535014062980e-02
2.36271428571429e-01 1.75633750726457e+00 2.36159436197065e-02
2.37328571428571e-01 1.72770866102524e+00 2.32829097079796e-02
2.38385714285714e-01 1.69954647385112e+00 2.29543445377565e-02
2.39442857142857e-01 1.67184333905507e+00 2.26301935069641e-02
2.40500000000000e-01 1.64459177394133e+00 2.23104025396814e-02
2.41557142857143e-01 1.61778441785039e+00 2.19949180974872e-02
2.42614285714286e-01 1.59141402997043e+00 2.16836871702042e-02
2.43671428571429e-01 1.56547348758444e+00 2.13766572641739e-02
2.44728571428571e-01 1.53995578407789e+00 2.10737764154277e-02
2.45785714285714e-01 1.51485402704620e+00 2.07749931829593e-02
2.46842857142857e-01 1.49016143643313e+00 2.04802566468750e-02
2.47900000000000e-01 1.46587134269947e+00 2.01895164028196e-02
2.48957142857143e-01 1.44197718507863e+00 1.99027225708939e-02
2.50014285714286e-01 1.41847250963127e+00 1.96198257865160e-02
2.51071428571429e-01 1.39535096767747e+00 1.93407771891255e-02
2.52128571428571e-01 1.37260631402275e+00 1.90655284327720e-02
2.53185714285714e-01 1.35023240527117e+00 1.87940316792542e-02
2.54242857142857e-01 1.32822319816611e+00 1.85262395955617e-02
2.55300000000000e-01 1.30657274795789e+00 1.82621053480680e-02
2.56357142857143e-01 1.28527520684748e+00 1.80015826094657e-02
2.57414285714286e-01 1.26432482225702e+00 1.77446255498688e-02
2.58471428571429e-01 1.24371593542781e+00 1.74911888260317e-02
2.59528571428571e-01 1.22344297984070e+00 1.72412275898141e-02
2.60585714285714e-01 1.20350047971244e+00 1.69946974813333e-02
2.61642857142857e-01 1.18388304851681e+00 1.67515546259144e-02
2.62700000000000e-01 1.16458538752960e+00 1.65117556282032e-02
2.63757142857143e-01 1.14560228444028e+00 1.62752575774899e-02
2.64814285714286e-01 1.12692861181413e+00 1.60420180391422e-02
2.65871428571429e-01 1.10855932583885e+00 1.58119950443907e-02
2.66928571428571e-01 1.09048946491785e+00 1.55851470970480e-02
2.67985714285714e-01 1.07271414833005e+00 1.53614331667848e-02
2.69042857142857e-01 1.05522857491167e+00 1.51408126857575e-02
2.70100000000000e-01 1.03802802175937e+00 1.49232455427582e-02
2.71157142857143e-01 1.02110784299174e+00 1.47086920872287e-02
2.72214285714286e-01 1.00446346838168e+00 1.44971131210857e-02
2.73271428571429e-01 9.88090402236102e-01 1.42884698891026e-02
2.74328571428571e-01 9.71984222143058e-01 1.40827240841936e-02
2.75385714285714e-01 9.56140577777273e-01 1.38798378408942e-02
2.76442857142857e-01 9.40555189725142e-01 1.36797737317996e-02
2.77500000000000e-01 9.25223848328824e-01 1.34824947618341e-02
2.78557142857143e-01 9.10142412581395e-01 1.32879643712104e-02
2.79614285714286e-01 8.95306808910615e-01 1.30961464276812e-02
2.80671428571429e-01 8.80713030177555e-01 1.29070052175280e-02
2.81728571428571e-01 8.66357134560889e-01 1.27205054496723e-02
2.82785714285714e-01 8.52235244492171e-01 1.25366122494152e-02
2.83842857142857e-01 8.38343545608543e-01 1.23552911547872e-02
2.84900000000000e-01 8.24678285722442e-01 1.21765081110030e-02
2.85957142857143e-01 8.11235773836068e-01 1.20002294725671e-02
2.87014285714286e-01 7.98012379059592e-01 1.18264219959739e-02
2.88071428571429e-01 7.85004529716305e-01 1.16550528313049e-02
2.89128571428571e-01 7.72208712348932e-01 1.14860895253793e-02
2.90185714285714e-01 7.59621470770618e-01 1.13195000157873e-02
2.91242857142857e-01 7.47239405131442e-01 1.11552526272337e-02
2.92300000000000e-01 7.35059171000086e-01 1.09933160662194e-02
2.93357142857143e-01 7.23077478484778e-01 1.08336594224628e-02
2.94414285714286e-01 7.11291091270970e-01 1.06762521620587e-02
2.95471428571429e-01 6.99696825821798e-01 1.05210641196686e-02
2.96528571428571e-01 6.88291550493029e-01 1.03680655008882e-02
2.97585714285714e-01 6.77072184687183e-01 1.02172268766024e-02
2.98642857142857e-01 6.66035698021488e-01 1.00685191793765e-02
2.99700000000000e-01 6.55179109509350e-01 9.92191369839511e-03
3.00757142857143e-01 6.44499486776284e-01 9.77738208034041e-03
3.01814285714286e-01 6.33993945203795e-01 9.63489632300490e-03
3.02871428571429e-01 6.23659647215080e-01 9.49442876805725e-03
3.03928571428571e-01 6.13493801486715e-01 9.35595210277557e-03
3.04985714285714e-01 6.03493662194695e-01 9.21943935473245e-03
3.06042857142857e-01 5.93656528272810e-01 9.08486388828145e-03
3.07100000000000e-01 5.83979742683066e-01 8.95219939976906e-03
3.08157142857143e-01 5.74460691716369e-01 8.82141991798376e-03
3.09214285714286e-01 5.65096804230818e-01 8.69249979821426e-03
3.10271428571429e-01 5.55885551013639e-01 8.56541371556676e-03
3.11328571428571e-01 5.46824444079005e-01 8.44013666618636e-03
3.12385714285714e-01 5.37911035996016e-01 8.31664396227628e-03
3.13442857142857e-01 5.29142919227665e-01 8.19491122870925e-03
3.14500000000000e-01 5.20517725480542e-01 8.07491439852328e-03
3.15557142857143e-01 5.12033125081135e-01 7.95662971303383e-03
3.16614285714286e-01 5.03686826298061e-01 7.84003371632475e-03
3.17671428571429e-01 4.95476574772159e-01 7.72510324908932e-03
3.18728571428571e-01 4.87400152891017e-01 7.61181544943969e-03
3.19785714285714e-01 4.79455379189983e-01 7.50014774825856e-03
3.20842857142857e-01 4.71640107762963e-01 7.39007786595792e-03
3.21900000000000e-01 4.63952227682793e-01 7.28158380826002e-03
3.22957142857143e-01 4.56389662444997e-01 7.17464386604875e-03
3.24014285714286e-01 4.48950369364662e-01 7.06923661027628e-03
3.25071428571429e-01 4.41632339067456e-01 6.96534088629901e-03
3.26128571428571e-01 4.34433594932470e-01 6.86293581435750e-03
3.27185714285714e-01 4.27352192558319e-01 6.76200078525386e-03
3.28242857142857e-01 4.20386219237969e-01 6.66251545727245e-03
3.29300000000000e-01 4.13533793442104e-01 6.56445975224205e-03
3.30357142857143e-01 4.06793064323044e-01 6.46781385519055e-03
3.31414285714286e-01 4.00162211178015e-01 6.37255820964566e-03
3.32471428571429e-01 3.93639442994622e-01 6.27867351243576e-03
3.33528571428571e-01 3.87222997954523e-01 6.18614071391083e-03
