Energy (eV)          EEDF (eV^-(3/2))     First Anisotropy
7.40000000000000e-04 1.24560946495061e+02 9.19936462382817e-02
2.22000000000000e-03 1.20341572769218e+02 1.49838527387576e-01
3.70000000000000e-03 1.16265125981059e+02 1.92397037334626e-01
5.18000000000000e-03 1.12326764627834e+02 2.21612792404154e-01
6.66000000000000e-03 1.08521811207708e+02 2.43521668726637e-01
8.14000000000000e-03 1.04845746664398e+02 2.60506553135295e-01
9.62000000000000e-03 1.01294205019998e+02 2.73850167555716e-01
1.11000000000000e-02 9.78629681896052e+01 2.84355706614949e-01
1.25800000000000e-02 9.45479609715966e+01 2.92573876078960e-01
1.40600000000000e-02 9.13452462076054e+01 2.98905869446260e-01
1.55400000000000e-02 8.82510201064481e+01 3.03656887565158e-01
1.70200000000000e-02 8.52616077264485e+01 3.07066728724574e-01
1.85000000000000e-02 8.23734586107932e+01 3.09328552788309e-01
1.99800000000000e-02 7.95831425707353e+01 3.10601039608456e-01
2.14600000000000e-02 7.68873456116376e+01 3.11016620658139e-01
2.29400000000000e-02 7.42828659970167e+01 3.10687256483251e-01
2.44200000000000e-02 7.17666104459139e+01 3.09708615685634e-01
2.59000000000000e-02 6.93355904590758e+01 3.08163176052940e-01
2.73800000000000e-02 6.69869187695821e+01 3.06122577069383e-01
2.88600000000000e-02 6.47178059137049e+01 3.03649439014397e-01
3.03400000000000e-02 6.25255569179257e+01 3.00798793407838e-01
3.18200000000000e-02 6.04075680981776e+01 2.97619224644376e-01
3.33000000000000e-02 5.83613239675087e+01 2.94153793221697e-01
3.47800000000000e-02 5.63843942484957e+01 2.90440791196710e-01
3.62600000000000e-02 5.44744309868595e+01 2.86514366934517e-01
3.77400000000000e-02 5.26291657628526e+01 2.82405046717799e-01
3.92200000000000e-02 5.08464069971096e+01 2.78140174019316e-01
4.07000000000000e-02 4.91240373477580e+01 2.73744282343599e-01
4.21800000000000e-02 4.74600111956996e+01 2.69239413947647e-01
4.36600000000000e-02 4.58523522150757e+01 2.64645394073511e-01
4.51400000000000e-02 4.42991510260298e+01 2.59980068308476e-01
4.66200000000000e-02 4.27985629269805e+01 2.55259509151131e-01
4.81000000000000e-02 4.13488057037123e+01 2.50498196677437e-01
4.95800000000000e-02 3.99481575126796e+01 2.45709177279866e-01
5.10600000000000e-02 3.85949548360133e+01 2.40904203729739e-01
5.25400000000000e-02 3.72875905057976e+01 2.36093859240545e-01
5.40200000000000e-02 3.60245117952746e+01 2.31287667753382e-01
5.55000000000000e-02 3.48042185747051e+01 2.26494192298453e-01
5.69800000000000e-02 3.36252615296993e+01 2.21721122989260e-01
5.84600000000000e-02 3.24862404398992e+01 2.16975355963899e-01
5.99400000000000e-02 3.13858025159687e+01 2.12263064389047e-01
6.14200000000000e-02 3.03226407929167e+01 2.07589762478307e-01
6.29000000000000e-02 2.92954925778446e+01 2.02960363340544e-01
6.43800000000000e-02 2.83031379502747e+01 1.98379231360321e-01
6.58600000000000e-02 2.73443983132785e+01 1.93850229717452e-01
6.73400000000000e-02 2.64181349936845e+01 1.89376763572491e-01
6.88200000000000e-02 2.55232478897013e+01 1.84961819377180e-01
7.03000000000000e-02 2.46586741643523e+01 1.80608000711206e-01
7.17800000000000e-02 2.38233869831687e+01 1.76317560997399e-01
7.32600000000000e-02 2.30163942946411e+01 1.72092433405359e-01
7.47400000000000e-02 2.22367376519828e+01 1.67934258217153e-01
7.62200000000000e-02 2.14834910748049e+01 1.63844407897487e-01
7.77000000000000e-02 2.07557599493496e+01 1.59824010083539e-01
7.91800000000000e-02 2.00526799659789e+01 1.55873968686103e-01
8.06600000000000e-02 1.93734160926530e+01 1.51994983273082e-01
8.21400000000000e-02 1.87171615831821e+01 1.48187566888417e-01
8.36200000000000e-02 1.80831370190724e+01 1.44452062443688e-01
8.51000000000000e-02 1.74705893838288e+01 1.40788657805795e-01
8.65800000000000e-02 1.68787911686136e+01 1.37197399691837e-01
8.80600000000000e-02 1.63070395082020e+01 1.33678206471477e-01
8.95400000000000e-02 1.57546553462040e+01 1.30230879967464e-01
9.10200000000000e-02 1.52209826285656e+01 1.26855116336456e-01
9.25000000000000e-02 1.47053875243876e+01 1.23550516104663e-01
9.39800000000000e-02 1.42072576731398e+01 1.20316593426052e-01
9.54600000000000e-02 1.37260014573736e+01 1.17152784624754e-01
9.69400000000000e-02 1.32610473000724e+01 1.14058456077881e-01
9.84200000000000e-02 1.28118429858017e+01 1.11032911490062e-01
9.99000000000000e-02 1.23778550048564e+01 1.08075398606592e-01
1.01380000000000e-01 1.19585679196224e+01 1.05185115408117e-01
1.02860000000000e-01 1.15534837524040e+01 1.02361215826205e-01
1.04340000000000e-01 1.11621213939871e+01 9.96028150158770e-02
1.05820000000000e-01 1.07840160322361e+01 9.69089942182634e-02
1.07300000000000e-01 1.04187186000478e+01 9.42788052438363e-02
1.08780000000000e-01 1.00657952420044e+01 9.17112746042967e-02
1.10260000000000e-01 9.72482679909357e+00 8.92054073189345e-02
1.11740000000000e-01 9.39540831088235e+00 8.67601904192893e-02
1.13220000000000e-01 9.07714853455539e+00 8.43745961741104e-02
1.14700000000000e-01 8.76966948024456e+00 8.20475850549066e-02
1.16180000000000e-01 8.47260596209908e+00 7.97781084608613e-02
1.17660000000000e-01 8.18560516456259e+00 7.75651112204755e-02
1.19140000000000e-01 7.90832622334221e+00 7.54075338860042e-02
1.20620000000000e-01 7.64043982057179e+00 7.33043148355681e-02
1.22100000000000e-01 7.38162779368857e+00 7.12543921967354e-02
1.23580000000000e-01 7.13158275755883e+00 6.92567056043625e-02
1.25060000000000e-01 6.89000773940352e+00 6.73101978045598e-02
1.26540000000000e-01 6.65661582609053e+00 6.54138161158007e-02
1.28020000000000e-01 6.43112982337446e+00 6.35665137574027e-02
1.29500000000000e-01 6.21328192667941e+00 6.17672510548885e-02
1.30980000000000e-01 6.00281340303356e+00 6.00149965310597e-02
1.32460000000000e-01 5.79947428377790e+00 5.83087278910016e-02
1.33940000000000e-01 5.60302306768425e+00 5.66474329086648e-02
1.35420000000000e-01 5.41322643412968e+00 5.50301102221345e-02
1.36900000000000e-01 5.22985896598698e+00 5.34557700442076e-02
1.38380000000000e-01 5.05270288190186e+00 5.19234347944421e-02
1.39860000000000e-01 4.88154777763905e+00 5.04321396584233e-02
1.41340000000000e-01 4.71619037618993e+00 4.89809330795953e-02
1.42820000000000e-01 4.55643428634516e+00 4.75688771886353e-02
1.44300000000000e-01 4.40208976944522e+00 4.61950481750220e-02
1.45780000000000e-01 4.25297351403222e+00 4.48585366051247e-02
1.47260000000000e-01 4.10890841813503e+00 4.35584476908460e-02
1.48740000000000e-01 3.96972337892934e+00 4.22939015125818e-02
1.50220000000000e-01 3.83525308952269e+00 4.10640332000080e-02
1.51700000000000e-01 3.70533784262330e+00 3.98679930739607e-02
1.53180000000000e-01 3.57982334085936e+00 3.87049467524610e-02
1.54660000000000e-01 3.45856051352355e+00 3.75740752237316e-02
1.56140000000000e-01 3.34140533952516e+00 3.64745748888488e-02
1.57620000000000e-01 3.22821867633956e+00 3.54056575765083e-02
1.59100000000000e-01 3.11886609475176e+00 3.43665505322103e-02
1.60580000000000e-01 3.01321771919795e+00 3.33564963840077e-02
1.62060000000000e-01 2.91114807351521e+00 3.23747530868252e-02
1.63540000000000e-01 2.81253593191637e+00 3.14205938472142e-02
1.65020000000000e-01 2.71726417501290e+00 3.04933070302818e-02
1.66500000000000e-01 2.62521965071487e+00 2.95921960504182e-02
1.67980000000000e-01 2.53629303984284e+00 2.87165792473300e-02
1.69460000000000e-01 2.45037872629192e+00 2.78657897487841e-02
1.70940000000000e-01 2.36737467159397e+00 2.70391753213731e-02
1.72420000000000e-01 2.28718229372882e+00 2.62360982105191e-02
1.73900000000000e-01 2.20970635004066e+00 2.54559349708489e-02
1.75380000000000e-01 2.13485482412053e+00 2.46980762879943e-02
1.76860000000000e-01 2.06253881652050e+00 2.39619267927962e-02
1.78340000000000e-01 1.99267243916985e+00 2.32469048688242e-02
1.79820000000000e-01 1.92517271336778e+00 2.25524424540526e-02
1.81300000000000e-01 1.85995947123145e+00 2.18779848374814e-02
1.82780000000000e-01 1.79695526048250e+00 2.12229904514262e-02
1.84260000000000e-01 1.73608525245865e+00 2.05869306601514e-02
1.85740000000000e-01 1.67727715324149e+00 1.99692895454717e-02
1.87220000000000e-01 1.62046111779462e+00 1.93695636898990e-02
1.88700000000000e-01 1.56556966701025e+00 1.87872619578669e-02
1.90180000000000e-01 1.51253760756586e+00 1.82219052755284e-02
1.91660000000000e-01 1.46130195449558e+00 1.76730264095806e-02
1.93140000000000e-01 1.41180185638433e+00 1.71401697455347e-02
1.94620000000000e-01 1.36397852309604e+00 1.66228910658193e-02
1.96100000000000e-01 1.31777515594993e+00 1.61207573280700e-02
1.97580000000000e-01 1.27313688026200e+00 1.56333464439328e-02
1.99060000000000e-01 1.23001068017163e+00 1.51602470586775e-02
2.00540000000000e-01 1.18834533567587e+00 1.47010583318952e-02
2.02020000000000e-01 1.14809136179659e+00 1.42553897195305e-02
2.03500000000000e-01 1.10920094980831e+00 1.38228607574722e-02
2.04980000000000e-01 1.07162791045687e+00 1.34031008469121e-02
2.06460000000000e-01 1.03532761910149e+00 1.29957490416561e-02
2.07940000000000e-01 1.00025696271515e+00 1.26004538375592e-02
2.09420000000000e-01 9.66374288680160e-01 1.22168729642333e-02
2.10900000000000e-01 9.33639355318376e-01 1.18446731791671e-02
2.12380000000000e-01 9.02013284097019e-01 1.14835300643783e-02
2.13860000000000e-01 8.71458513453558e-01 1.11331278257060e-02
2.15340000000000e-01 8.41938754184690e-01 1.07931590948399e-02
2.16820000000000e-01 8.13418946346486e-01 1.04633247341687e-02
2.18300000000000e-01 7.85865217614494e-01 1.01433336445217e-02
2.19780000000000e-01 7.59244843054355e-01 9.83290257586462e-03
2.21260000000000e-01 7.33526206255142e-01 9.53175594100335e-03
2.22740000000000e-01 7.08678761779277e-01 9.23962563234057e-03
2.24220000000000e-01 6.84672998884406e-01 8.95625084172026e-03
2.25700000000000e-01 6.61480406474167e-01 8.68137788338877e-03
2.27180000000000e-01 6.39073439236213e-01 8.41476002009437e-03
2.28660000000000e-01 6.17425484927272e-01 8.15615729234063e-03
2.30140000000000e-01 5.96510832766394e-01 7.90533635080217e-03
2.31620000000000e-01 5.76304642898844e-01 7.66207029190679e-03
2.33100000000000e-01 5.56782916894372e-01 7.42613849658247e-03
2.34580000000000e-01 5.37922469244829e-01 7.19732647216326e-03
2.36060000000000e-01 5.19700899827264e-01 6.97542569744383e-03
2.37540000000000e-01 5.02096567299814e-01 6.76023347086796e-03
2.39020000000000e-01 4.85088563398771e-01 6.55155276183396e-03
2.40500000000000e-01 4.68656688106322e-01 6.34919206509504e-03
2.41980000000000e-01 4.52781425659442e-01 6.15296525823126e-03
2.43460000000000e-01 4.37443921371473e-01 5.96269146216576e-03
2.44940000000000e-01 4.22625959238840e-01 5.77819490469625e-03
2.46420000000000e-01 4.08309940306323e-01 5.59930478701048e-03
2.47900000000000e-01 3.94478861765175e-01 5.42585515315180e-03
2.49380000000000e-01 3.81116296759279e-01 5.25768476239982e-03
2.50860000000000e-01 3.68206374875343e-01 5.09463696452953e-03
2.52340000000000e-01 3.55733763293975e-01 4.93655957791022e-03
2.53820000000000e-01 3.43683648579242e-01 4.78330477040515e-03
2.55300000000000e-01 3.32041719085090e-01 4.63472894303103e-03
2.56780000000000e-01 3.20794147957729e-01 4.49069261633588e-03
2.58260000000000e-01 3.09927576713798e-01 4.35106031945329e-03
2.59740000000000e-01 2.99429099374794e-01 4.21570048178975e-03
2.61220000000000e-01 2.89286247138938e-01 4.08448532730160e-03
2.62700000000000e-01 2.79486973572268e-01 3.95729077131740e-03
2.64180000000000e-01 2.70019640301357e-01 3.83399631986186e-03
2.65660000000000e-01 2.60873003190688e-01 3.71448497143632e-03
2.67140000000000e-01 2.52036198988252e-01 3.59864312121099e-03
2.68620000000000e-01 2.43498732423505e-01 3.48636046758433e-03
2.70100000000000e-01 2.35250463742383e-01 3.37752992106445e-03
2.71580000000000e-01 2.27281596664542e-01 3.27204751542789e-03
2.73060000000000e-01 2.19582666748541e-01 3.16981232111083e-03
2.74540000000000e-01 2.12144530151143e-01 3.07072636078833e-03
2.76020000000000e-01 2.04958352767379e-01 2.97469452709720e-03
2.77500000000000e-01 1.98015599738483e-01 2.88162450245862e-03
2.78980000000000e-01 1.91308025315238e-01 2.79142668095638e-03
2.80460000000000e-01 1.84827663064684e-01 2.70401409222763e-03
2.81940000000000e-01 1.78566816408571e-01 2.61930232732314e-03
2.83420000000000e-01 1.72518049482307e-01 2.53720946649437e-03
2.84900000000000e-01 1.66674178303551e-01 2.45765600886530e-03
2.86380000000000e-01 1.61028262239964e-01 2.38056480394742e-03
2.87860000000000e-01 1.55573595765974e-01 2.30586098495651e-03
2.89340000000000e-01 1.50303700498782e-01 2.23347190389095e-03
2.90820000000000e-01 1.45212317504128e-01 2.16332706833118e-03
2.92300000000000e-01 1.40293399862703e-01 2.09535807992097e-03
2.93780000000000e-01 1.35541105488361e-01 2.02949857449153e-03
2.95260000000000e-01 1.30949790189602e-01 1.96568416379015e-03
2.96740000000000e-01 1.26514000966101e-01 1.90385237877547e-03
2.98220000000000e-01 1.22228469532298e-01 1.84394261444261e-03
2.99700000000000e-01 1.18088106060379e-01 1.78589607614114e-03
3.01180000000000e-01 1.14087993135205e-01 1.72965572735045e-03
3.02660000000000e-01 1.10223379914005e-01 1.67516623887693e-03
3.04140000000000e-01 1.06489676483916e-01 1.62237393943855e-03
3.05620000000000e-01 1.02882448410640e-01 1.57122676760269e-03
3.07100000000000e-01 9.93974114717750e-02 1.52167422504387e-03
3.08580000000000e-01 9.60304265685381e-02 1.47366733108864e-03
3.10060000000000e-01 9.27774948098525e-02 1.42715857851566e-03
3.11540000000000e-01 8.96347527629570e-02 1.38210189057918e-03
3.13020000000000e-01 8.65984678648945e-02 1.33845257922540e-03
3.14500000000000e-01 8.36650339894323e-02 1.29616730447124e-03
3.15980000000000e-01 8.08309671641487e-02 1.25520403491606e-03
3.17460000000000e-01 7.80929014325978e-02 1.21552200935730e-03
3.18940000000000e-01 7.54475848566405e-02 1.17708169948161e-03
3.20420000000000e-01 7.28918756541918e-02 1.13984477360371e-03
3.21900000000000e-01 7.04227384677976e-02 1.10377406142586e-03
3.23380000000000e-01 6.80372407596102e-02 1.06883351979136e-03
3.24860000000000e-01 6.57325493284801e-02 1.03498819940595e-03
3.26340000000000e-01 6.35059269450278e-02 1.00220421250190e-03
3.27820000000000e-01 6.13547291006987e-02 9.70448701419745e-04
3.29300000000000e-01 5.92764008669407e-02 9.39689808083483e-04
3.30780000000000e-01 5.72684738607743e-02 9.09896644345549e-04
3.32260000000000e-01 5.53285633131500e-02 8.81039263178293e-04
3.33740000000000e-01 5.34543652366129e-02 8.53088630689363e-04
3.35220000000000e-01 5.16436536889093e-02 8.26016598938911e-04
3.36700000000000e-01 4.98942781292858e-02 7.99795879537008e-04
3.38180000000000e-01 4.82041608643416e-02 7.74400018000175e-04
3.39660000000000e-01 4.65712945803989e-02 7.49803368846549e-04
3.41140000000000e-01 4.49937399594626e-02 7.25981071409506e-04
3.42620000000000e-01 4.34696233759367e-02 7.02909026350250e-04
3.44100000000000e-01 4.19971346713617e-02 6.80563872850221e-04
3.45580000000000e-01 4.05745250045311e-02 6.58922966464662e-04
3.47060000000000e-01 3.92001047744323e-02 6.37964357619272e-04
3.48540000000000e-01 3.78722416135461e-02 6.17666770732114e-04
3.50020000000000e-01 3.65893584491212e-02 5.98009583943563e-04
3.51500000000000e-01 3.53499316301211e-02 5.78972809437450e-04
3.52980000000000e-01 3.41524891176179e-02 5.60537074336958e-04
3.54460000000000e-01 3.29956087364861e-02 5.42683602159301e-04
3.55940000000000e-01 3.18779164863171e-02 5.25394194813580e-04
3.57420000000000e-01 3.07980849095506e-02 5.08651215126629e-04
3.58900000000000e-01 2.97548315148834e-02 4.92437569882046e-04
3.60380000000000e-01 2.87469172540838e-02 4.76736693358018e-04
3.61860000000000e-01 2.77731450504024e-02 4.61532531349841e-04
3.63340000000000e-01 2.68323583768313e-02 4.46809525663514e-04
3.64820000000000e-01 2.59234398825234e-02 4.32552599067089e-04
3.66300000000000e-01 2.50453100657403e-02 4.18747140686761e-04
3.67780000000000e-01 2.41969259917529e-02 4.05378991835126e-04
3.69260000000000e-01 2.33772800541712e-02 3.92434432259285e-04
3.70740000000000e-01 2.25853987782339e-02 3.79900166796835e-04
3.72220000000000e-01 2.18203416646341e-02 3.67763312428122e-04
3.73700000000000e-01 2.10812000725097e-02 3.56011385713392e-04
3.75180000000000e-01 2.03670961402719e-02 3.44632290603827e-04
3.76660000000000e-01 1.96771817429886e-02 3.33614306615756e-04
3.78140000000000e-01 1.90106374850860e-02 3.22946077357549e-04
3.79620000000000e-01 1.83666717271712e-02 3.12616599399085e-04
3.81100000000000e-01 1.77445196458199e-02 3.02615211473893e-04
3.82580000000000e-01 1.71434423252136e-02 2.92931584004325e-04
3.84060000000000e-01 1.65627258795454e-02 2.83555708940470e-04
3.85540000000000e-01 1.60016806051550e-02 2.74477889903681e-04
3.87020000000000e-01 1.54596401613827e-02 2.65688732625845e-04
3.88500000000000e-01 1.49359607791724e-02 2.57179135675856e-04
3.89980000000000e-01 1.44300204964811e-02 2.48940281464886e-04
3.91460000000000e-01 1.39412184195895e-02 2.40963627522340e-04
3.92940000000000e-01 1.34689740094339e-02 2.33240898034587e-04
3.94420000000000e-01 1.30127263921131e-02 2.25764075638776e-04
3.95900000000000e-01 1.25719336927515e-02 2.18525393464282e-04
3.97380000000000e-01 1.21460723919267e-02 2.11517327414514e-04
3.98860000000000e-01 1.17346367038973e-02 2.04732588682015e-04
4.00340000000000e-01 1.13371379758926e-02 1.98164116490017e-04
4.01820000000000e-01 1.09531041077512e-02 1.91805071053772e-04
4.03300000000000e-01 1.05820789912184e-02 1.85648826755181e-04
4.04780000000000e-01 1.02236219682363e-02 1.79688965524427e-04
4.06260000000000e-01 9.87730730758516e-03 1.73919270422506e-04
4.07740000000000e-01 9.54272369925132e-03 1.68333719418694e-04
4.09220000000000e-01 9.21947376592420e-03 1.62926479357189e-04
4.10700000000000e-01 8.90717359104018e-03 1.57691900107319e-04
4.12180000000000e-01 8.60545226281366e-03 1.52624508891865e-04
4.13660000000000e-01 8.31395143371364e-03 1.47719004788200e-04
4.15140000000000e-01 8.03232489486250e-03 1.42970253397104e-04
4.16620000000000e-01 7.76023816485169e-03 1.38373281674274e-04
4.18100000000000e-01 7.49736809248570e-03 1.33923272919664e-04
4.19580000000000e-01 7.24340247298285e-03 1.29615561919937e-04
4.21060000000000e-01 6.99803967717678e-03 1.25445630239487e-04
4.22540000000000e-01 6.76098829327834e-03 1.21409101655544e-04
4.24020000000000e-01 6.53196678077253e-03 1.17501737733088e-04
4.25500000000000e-01 6.31070313603918e-03 1.13719433535349e-04
4.26980000000000e-01 6.09693456930054e-03 1.10058213465858e-04
4.28460000000000e-01 5.89040719251179e-03 1.06514227238063e-04
4.29940000000000e-01 5.69087571782409e-03 1.03083745968715e-04
4.31420000000000e-01 5.49810316626171e-03 9.97631583912663e-05
4.32900000000000e-01 5.31186058626758e-03 9.65489671856898e-05
4.34380000000000e-01 5.13192678178275e-03 9.34377854212023e-05
4.35860000000000e-01 4.95808804953684e-03 9.04263331084875e-05
4.37340000000000e-01 4.79013792523759e-03 8.75114338581104e-05
4.38820000000000e-01 4.62787693835791e-03 8.46900116419184e-05
4.40300000000000e-01 4.47111237522930e-03 8.19590876543126e-05
4.41780000000000e-01 4.31965805016021e-03 7.93157772703658e-05
4.43260000000000e-01 4.17333408430760e-03 7.67572870978585e-05
4.44740000000000e-01 4.03196669203888e-03 7.42809121203755e-05
4.46220000000000e-01 3.89538797453070e-03 7.18840329287086e-05
4.47700000000000e-01 3.76343572035938e-03 6.95641130378835e-05
4.49180000000000e-01 3.63595321284610e-03 6.73186962872047e-05
4.50660000000000e-01 3.51278904392804e-03 6.51454043207953e-05
4.52140000000000e-01 3.39379693433453e-03 6.30419341461838e-05
4.53620000000000e-01 3.27883555985447e-03 6.10060557685593e-05
4.55100000000000e-01 3.16776838348882e-03 5.90356098983845e-05
4.56580000000000e-01 3.06046349328868e-03 5.71285057301382e-05
4.58060000000000e-01 2.95679344568652e-03 5.52827187900071e-05
4.59540000000000e-01 2.85663511413437e-03 5.34962888504247e-05
4.61020000000000e-01 2.75986954286920e-03 5.17673179094146e-05
4.62500000000000e-01 2.66638180563188e-03 5.00939682327513e-05
4.63980000000000e-01 2.57606086917191e-03 4.84744604570224e-05
4.65460000000000e-01 2.48879946137576e-03 4.69070717517222e-05
4.66940000000000e-01 2.40449394386221e-03 4.53901340385666e-05
