Energy (eV)          EEDF (eV^-(3/2))     First Anisotropy
5.98484848484849e-03 3.25341936932518e-01 1.49717549632062e-04
1.79545454545455e-02 3.23643788095145e-01 2.47412772349091e-04
2.99242424242424e-02 3.21954502895215e-01 3.27107456052350e-04
4.18939393939394e-02 3.20274035056205e-01 3.87954089169129e-04
5.38636363636364e-02 3.18602338555357e-01 4.38951525982763e-04
6.58333333333333e-02 3.16939367613170e-01 4.83493955408576e-04
7.78030303030303e-02 3.15285076682987e-01 5.23333880525441e-04
8.97727272727273e-02 3.13639420458915e-01 5.59527238749831e-04
1.01742424242424e-01 3.12002353871491e-01 5.92772810747360e-04
1.13712121212121e-01 3.10373832083276e-01 6.23563401732521e-04
1.25681818181818e-01 3.08753810497701e-01 6.52263017251228e-04
1.37651515151515e-01 3.07142244747250e-01 6.79150188450523e-04
1.49621212121212e-01 3.05539090695993e-01 7.04444069462484e-04
1.61590909090909e-01 3.03944304438373e-01 7.28321041244223e-04
1.73560606060606e-01 3.02357842298001e-01 7.50925745759202e-04
1.85530303030303e-01 3.00779660826463e-01 7.72378685871181e-04
1.97500000000000e-01 2.99209716802129e-01 7.92781617586564e-04
2.09469696969697e-01 2.97647967236562e-01 8.12221478486544e-04
2.21439393939394e-01 2.96094369350073e-01 8.30773305978817e-04
2.33409090909091e-01 2.94548880594353e-01 8.48502449353858e-04
2.45378787878788e-01 2.93011458643166e-01 8.65466279529800e-04
2.57348484848485e-01 2.91482061391200e-01 8.81715523337690e-04
2.69318181818182e-01 2.89960646952908e-01 8.97295322034275e-04
2.81287878787879e-01 2.88447173661367e-01 9.12246080381367e-04
2.93257575757576e-01 2.86941600067133e-01 9.26604155036369e-04
3.05227272727273e-01 2.85443884937111e-01 9.40402418097283e-04
3.17196969696970e-01 2.83953987253419e-01 9.53670722537293e-04
3.29166666666667e-01 2.82471866212273e-01 9.66436289731450e-04
3.41136363636364e-01 2.80997481222866e-01 9.78724034524857e-04
3.53106060606061e-01 2.79530791906255e-01 9.90556839785490e-04
3.65075757575758e-01 2.78071758094257e-01 1.00195578976885e-03
3.77045454545455e-01 2.76620339828350e-01 1.01294036964579e-03
3.89015151515152e-01 2.75176497358579e-01 1.02352863703803e-03
4.00984848484848e-01 2.73740191142464e-01 1.03373737024601e-03
4.12954545454545e-01 2.72311381843916e-01 1.04358219694788e-03
4.24924242424242e-01 2.70890030332168e-01 1.05307770644839e-03
4.36893939393939e-01 2.69476097680701e-01 1.06223754799503e-03
4.48863636363636e-01 2.68069545166171e-01 1.07107451722885e-03
4.60833333333333e-01 2.66670334267357e-01 1.07960063248962e-03
4.72803030303030e-01 2.65278426664100e-01 1.08782720240450e-03
4.84772727272727e-01 2.63893784236259e-01 1.09576488595615e-03
4.96742424242424e-01 2.62516369062659e-01 1.10342374603647e-03
5.08712121212121e-01 2.61146143420061e-01 1.11081329733594e-03
5.20681818181818e-01 2.59783069782124e-01 1.11794254929120e-03
5.32651515151515e-01 2.58427110818380e-01 1.12482004470450e-03
5.44621212121212e-01 2.57078229393207e-01 1.13145389456215e-03
5.56590909090909e-01 2.55736388564818e-01 1.13785180950307e-03
5.68560606060606e-01 2.54401551584245e-01 1.14402112832745e-03
5.80530303030303e-01 2.53073681894336e-01 1.14996884388210e-03
5.92500000000000e-01 2.51752743128749e-01 1.15570162614436e-03
6.04469696969697e-01 2.50438699113127e-01 1.16122584511736e-03
6.16439393939394e-01 2.49131513857544e-01 1.16654758949882e-03
6.28409090909091e-01 2.47831151562145e-01 1.17167268368848e-03
6.40378787878788e-01 2.46537576613936e-01 1.17660670570176e-03
6.52348484848485e-01 2.45250753585806e-01 1.18135500181686e-03
6.64318181818182e-01 2.43970647235561e-01 1.18592270049841e-03
6.76287878787879e-01 2.42697222504954e-01 1.19031472523104e-03
6.88257575757576e-01 2.41430444518729e-01 1.19453580636658e-03
7.00227272727273e-01 2.40170278583663e-01 1.19859049207684e-03
7.12196969696970e-01 2.38916690187618e-01 1.20248315849494e-03
7.24166666666667e-01 2.37669644998593e-01 1.20621801911795e-03
7.36136363636364e-01 2.36429108863788e-01 1.20979913353673e-03
7.48106060606061e-01 2.35195047808664e-01 1.21323041555189e-03
7.60075757575758e-01 2.33967428036016e-01 1.21651564072796e-03
7.72045454545455e-01 2.32746215925045e-01 1.21965845343391e-03
7.84015151515152e-01 2.31531378030441e-01 1.22266237341300e-03
7.95984848484849e-01 2.30322881081461e-01 1.22553080191983e-03
8.07954545454545e-01 2.29120691981022e-01 1.22826702745903e-03
8.19924242424242e-01 2.27924777804796e-01 1.23087423115873e-03
8.31893939393939e-01 2.26735105800304e-01 1.23335549180669e-03
8.43863636363636e-01 2.25551643386023e-01 1.23571379057422e-03
8.55833333333333e-01 2.24374358150490e-01 1.23795201545295e-03
8.67803030303030e-01 2.23203217851418e-01 1.24007296542503e-03
8.79772727272727e-01 2.22038190414810e-01 1.24207935438655e-03
8.91742424242424e-01 2.20879243934082e-01 1.24397381484269e-03
9.03712121212121e-01 2.19726346669190e-01 1.24575890139004e-03
9.15681818181818e-01 2.18579467045758e-01 1.24743709400201e-03
9.27651515151515e-01 2.17438573654216e-01 1.24901080113076e-03
9.39621212121212e-01 2.16303635248940e-01 1.25048236263777e-03
9.51590909090909e-01 2.15174620747391e-01 1.25185405256581e-03
9.63560606060606e-01 2.14051499229273e-01 1.25312808176180e-03
9.75530303030303e-01 2.12934239935676e-01 1.25430660036110e-03
9.87500000000000e-01 2.11822812268243e-01 1.25539169983540e-03
9.99469696969697e-01 2.10717185789423e-01 1.25638541767699e-03
1.01143939393939e+00 2.09617330212889e-01 1.25728973219089e-03
1.02340909090909e+00 2.08523215429915e-01 1.25810657420227e-03
1.03537878787879e+00 2.07434811465280e-01 1.25883782697430e-03
1.04734848484848e+00 2.06352088510961e-01 1.25948531584381e-03
1.05931818181818e+00 2.05275016924680e-01 1.26005082853702e-03
1.07128787878788e+00 2.04203567198529e-01 1.26053610792633e-03
1.08325757575758e+00 2.03137709988804e-01 1.26094284484528e-03
1.09522727272727e+00 2.02077416114612e-01 1.26127269692781e-03
1.10719696969697e+00 2.01022656528043e-01 1.26152728144644e-03
1.11916666666667e+00 1.99973402342495e-01 1.26170817094378e-03
1.13113636363636e+00 1.98929624822148e-01 1.26181690040359e-03
1.14310606060606e+00 1.97891295390236e-01 1.26185497378222e-03
1.15507575757576e+00 1.96858385600941e-01 1.26182385976449e-03
1.16704545454545e+00 1.95830867166051e-01 1.26172498477156e-03
1.17901515151515e+00 1.94808711953652e-01 1.26155975018755e-03
1.19098484848485e+00 1.93791891961334e-01 1.26132952540477e-03
1.20295454545455e+00 1.92780379341517e-01 1.26103564094291e-03
1.21492424242424e+00 1.91774146400238e-01 1.26067940501995e-03
1.22689393939394e+00 1.90773165571547e-01 1.26026209673467e-03
1.23886363636364e+00 1.89777409441664e-01 1.25978495932325e-03
1.25083333333333e+00 1.88786850747755e-01 1.25924921611981e-03
1.26280303030303e+00 1.87801462353519e-01 1.25865606386457e-03
1.27477272727273e+00 1.86821217272209e-01 1.25800666849417e-03
1.28674242424242e+00 1.85846088657932e-01 1.25730217100321e-03
1.29871212121212e+00 1.84876049812358e-01 1.25654369278686e-03
1.31068181818182e+00 1.83911074161587e-01 1.25573233159080e-03
1.32265151515152e+00 1.82951135277895e-01 1.25486915505612e-03
1.33462121212121e+00 1.81996206878628e-01 1.25395521548898e-03
1.34659090909091e+00 1.81046262804041e-01 1.25299154347275e-03
1.35856060606061e+00 1.80101277038081e-01 1.25197914155656e-03
1.37053030303030e+00 1.79161223707303e-01 1.25091899852657e-03
1.38250000000000e+00 1.78226077059649e-01 1.24981208315971e-03
1.39446969696970e+00 1.77295811484328e-01 1.24865934022706e-03
1.40643939393939e+00 1.76370401504229e-01 1.24746169564429e-03
1.41840909090909e+00 1.75449821781677e-01 1.24622006117008e-03
1.43037878787879e+00 1.74534047098283e-01 1.24493533057254e-03
1.44234848484848e+00 1.73623052373788e-01 1.24360837362643e-03
1.45431818181818e+00 1.72716812665038e-01 1.24224004939750e-03
1.46628787878788e+00 1.71815303146648e-01 1.24083120030462e-03
1.47825757575758e+00 1.70918499129032e-01 1.23938264625559e-03
1.49022727272727e+00 1.70026376057422e-01 1.23789519751272e-03
1.50219696969697e+00 1.69138909493296e-01 1.23636964889779e-03
1.51416666666667e+00 1.68256075131668e-01 1.23480677604274e-03
1.52613636363636e+00 1.67377848794414e-01 1.23320733997574e-03
1.53810606060606e+00 1.66504206435263e-01 1.23157209130733e-03
1.55007575757576e+00 1.65635124122109e-01 1.22990176663866e-03
1.56204545454545e+00 1.64770578053449e-01 1.22819708300290e-03
1.57401515151515e+00 1.63910544557448e-01 1.22645874989169e-03
1.58598484848485e+00 1.63055000074933e-01 1.22468746375572e-03
1.59795454545455e+00 1.62203921175156e-01 1.22288390257463e-03
1.60992424242424e+00 1.61357284554894e-01 1.22104873752496e-03
1.62189393939394e+00 1.60515067022087e-01 1.21918262761865e-03
1.63386363636364e+00 1.59677245510973e-01 1.21728621440848e-03
1.64583333333333e+00 1.58843797081204e-01 1.21536013331309e-03
1.65780303030303e+00 1.58014698902105e-01 1.21340500838075e-03
1.66977272727273e+00 1.57189928267217e-01 1.21142144888421e-03
1.68174242424242e+00 1.56369462588596e-01 1.20941005330819e-03
1.69371212121212e+00 1.55553279400989e-01 1.20737141299303e-03
1.70568181818182e+00 1.54741356346793e-01 1.20530610887381e-03
1.71765151515152e+00 1.53933671189914e-01 1.20321470646186e-03
1.72962121212121e+00 1.53130201814941e-01 1.20109776647492e-03
1.74159090909091e+00 1.52330926212643e-01 1.19895583987923e-03
1.75356060606061e+00 1.51535822493302e-01 1.19678946299380e-03
1.76553030303030e+00 1.50744868885901e-01 1.19459916782130e-03
1.77750000000000e+00 1.49958043724148e-01 1.19238547720918e-03
1.78946969696970e+00 1.49175325459309e-01 1.19014890168479e-03
1.80143939393939e+00 1.48396692655124e-01 1.18788994307063e-03
1.81340909090909e+00 1.47622123991465e-01 1.18560909779117e-03
1.82537878787879e+00 1.46851598250973e-01 1.18330685384141e-03
1.83734848484848e+00 1.46085094331299e-01 1.18098368615019e-03
1.84931818181818e+00 1.45322591244335e-01 1.17864006630022e-03
1.86128787878788e+00 1.44564068103316e-01 1.17627645794379e-03
1.87325757575758e+00 1.43809504134607e-01 1.17389331227654e-03
1.88522727272727e+00 1.43058878676952e-01 1.17149107749369e-03
1.89719696969697e+00 1.42312171169023e-01 1.16907019431735e-03
1.90916666666667e+00 1.41569361160782e-01 1.16663109305913e-03
1.92113636363636e+00 1.40830428308933e-01 1.16417419691435e-03
1.93310606060606e+00 1.40095352380140e-01 1.16169992497635e-03
1.94507575757576e+00 1.39364113239095e-01 1.15920868942257e-03
1.95704545454545e+00 1.38636690859390e-01 1.15670089122850e-03
1.96901515151515e+00 1.37913065322795e-01 1.15417692908177e-03
1.98098484848485e+00 1.37193216807728e-01 1.15163719514248e-03
1.99295454545455e+00 1.36477125599731e-01 1.14908207085649e-03
2.00492424242424e+00 1.35764772090776e-01 1.14651193563520e-03
2.01689393939394e+00 1.35056136768112e-01 1.14392716272018e-03
2.02886363636364e+00 1.34351200224379e-01 1.14132811509892e-03
2.04083333333333e+00 1.33649943156919e-01 1.13871515395839e-03
2.05280303030303e+00 1.32952346356998e-01 1.13608863464538e-03
2.06477272727273e+00 1.32258390719571e-01 1.13344890401063e-03
2.07674242424242e+00 1.31568057239310e-01 1.13079630333816e-03
2.08871212121212e+00 1.30881327013348e-01 1.12813117102778e-03
2.10068181818182e+00 1.30198181230941e-01 1.12545384005015e-03
2.11265151515152e+00 1.29518601182807e-01 1.12276463407403e-03
2.12462121212121e+00 1.28842568260475e-01 1.12006387545153e-03
2.13659090909091e+00 1.28170063946277e-01 1.11735188138996e-03
2.14856060606061e+00 1.27501069822369e-01 1.11462896017099e-03
2.16053030303030e+00 1.26835567570090e-01 1.11189541893337e-03
2.17250000000000e+00 1.26173538960280e-01 1.10915155993396e-03
2.18446969696970e+00 1.25514965861993e-01 1.10639767808305e-03
2.19643939393939e+00 1.24859830238920e-01 1.10363406363400e-03
2.20840909090909e+00 1.24208114151822e-01 1.10086100464838e-03
2.22037878787879e+00 1.23559799749221e-01 1.09807878463284e-03
2.23234848484848e+00 1.22914869275758e-01 1.09528767895360e-03
2.24431818181818e+00 1.22273305071588e-01 1.09248796219800e-03
2.25628787878788e+00 1.21635089563359e-01 1.08967990462779e-03
2.26825757575758e+00 1.21000205272289e-01 1.08686376867623e-03
2.28022727272727e+00 1.20368634813575e-01 1.08403981612724e-03
2.29219696969697e+00 1.19740360887655e-01 1.08120830465191e-03
2.30416666666667e+00 1.19115366288018e-01 1.07836948551984e-03
2.31613636363636e+00 1.18493633897968e-01 1.07552360607548e-03
2.32810606060606e+00 1.17875146692785e-01 1.07267091200860e-03
2.34007575757576e+00 1.17259887731321e-01 1.06981164515919e-03
2.35204545454545e+00 1.16647840163507e-01 1.06694604019499e-03
2.36401515151515e+00 1.16038987229777e-01 1.06407433140981e-03
2.37598484848485e+00 1.15433312252923e-01 1.06119674943513e-03
2.38795454545455e+00 1.14830798645349e-01 1.05831351799202e-03
2.39992424242424e+00 1.14231429908517e-01 1.05542486052425e-03
2.41189393939394e+00 1.13635189625041e-01 1.05253099698742e-03
2.42386363636364e+00 1.13042061465715e-01 1.04963214067740e-03
2.43583333333333e+00 1.12452029188960e-01 1.04672850470307e-03
2.44780303030303e+00 1.11865076633165e-01 1.04382029884723e-03
2.45977272727273e+00 1.11281187723488e-01 1.04090772749329e-03
2.47174242424242e+00 1.10700346468988e-01 1.03799099185130e-03
2.48371212121212e+00 1.10122536964498e-01 1.03507029200077e-03
2.49568181818182e+00 1.09547743383242e-01 1.03214582490108e-03
2.50765151515152e+00 1.08975949983373e-01 1.02921778137872e-03
2.51962121212121e+00 1.08407141107445e-01 1.02628635226455e-03
2.53159090909091e+00 1.07841301175254e-01 1.02335172541352e-03
2.54356060606061e+00 1.07278414690166e-01 1.02041408276067e-03
2.55553030303030e+00 1.06718466238601e-01 1.01747360631306e-03
2.56750000000000e+00 1.06161440483082e-01 1.01453047523630e-03
2.57946969696970e+00 1.05607322168369e-01 1.01158486392696e-03
2.59143939393939e+00 1.05056096118847e-01 1.00863694407077e-03
2.60340909090909e+00 1.04507747240200e-01 1.00568688653224e-03
2.61537878787879e+00 1.03962260512710e-01 1.00273485950404e-03
2.62734848484848e+00 1.03419620997153e-01 9.99781025709928e-04
2.63931818181818e+00 1.02879813834309e-01 9.96825548091025e-04
2.65128787878788e+00 1.02342824238456e-01 9.93868587037242e-04
2.66325757575758e+00 1.01808637503079e-01 9.90910297652367e-04
2.67522727272727e+00 1.01277239000395e-01 9.87950835307844e-04
2.68719696969697e+00 1.00748614175028e-01 9.84990352936463e-04
2.69916666666667e+00 1.00222748549552e-01 9.82028999239214e-04
2.71113636363636e+00 9.96996277221061e-02 9.79066920591067e-04
2.72310606060606e+00 9.91792373678971e-02 9.76104262791316e-04
2.73507575757576e+00 9.86615632330996e-02 9.73141169341443e-04
2.74704545454545e+00 9.81465911401928e-02 9.70177778846235e-04
2.75901515151515e+00 9.76343069874962e-02 9.67214230288119e-04
2.77098484848485e+00 9.71246967432455e-02 9.64250660453331e-04
2.78295454545455e+00 9.66177464507642e-02 9.61287201389479e-04
2.79492424242424e+00 9.61134422280112e-02 9.58323985558768e-04
2.80689393939394e+00 9.56117702618218e-02 9.55361143322304e-04
2.81886363636364e+00 9.51127168129255e-02 9.52398800454896e-04
2.83083333333333e+00 9.46162682154996e-02 9.49437083180696e-04
2.84280303030303e+00 9.41224108715725e-02 9.46476115711807e-04
2.85477272727273e+00 9.36311312558935e-02 9.43516018618594e-04
2.86674242424242e+00 9.31424159138071e-02 9.40556910554581e-04
2.87871212121212e+00 9.26562514625584e-02 9.37598909841561e-04
2.89068181818182e+00 9.21726245858896e-02 9.34642132903853e-04
2.90265151515152e+00 9.16915220387295e-02 9.31686691903662e-04
2.91462121212121e+00 9.12129306467671e-02 9.28732699527477e-04
2.92659090909091e+00 9.07368373011957e-02 9.25780266645197e-04
2.93856060606061e+00 9.02632289632647e-02 9.22829499997346e-04
2.95053030303030e+00 8.97920926638603e-02 9.19880506873910e-04
2.96250000000000e+00 8.93234154983943e-02 9.16933392824266e-04
2.97446969696970e+00 8.88571846312234e-02 9.13988260138532e-04
2.98643939393939e+00 8.83933872937010e-02 9.11045209449446e-04
2.99840909090909e+00 8.79320107853517e-02 9.08104341204805e-04
3.01037878787879e+00 8.74730424689335e-02 9.05165754208188e-04
3.02234848484848e+00 8.70164697746982e-02 9.02229543418030e-04
3.03431818181818e+00 8.65622801999886e-02 8.99295804397580e-04
3.04628787878788e+00 8.61104613044345e-02 8.96364631135276e-04
3.05825757575758e+00 8.56610007140881e-02 8.93436113890903e-04
3.07022727272727e+00 8.52138861210299e-02 8.90510343546663e-04
3.08219696969697e+00 8.47691052786933e-02 8.87587409474930e-04
3.09416666666667e+00 8.43266460058819e-02 8.84667398122831e-04
3.10613636363636e+00 8.38864961849807e-02 8.81750394500877e-04
3.11810606060606e+00 8.34486437630141e-02 8.78836483551988e-04
3.13007575757576e+00 8.30130767471276e-02 8.75925748790992e-04
3.14204545454545e+00 8.25797832084633e-02 8.73018270254709e-04
3.15401515151515e+00 8.21487512817803e-02 8.70114128642494e-04
3.16598484848485e+00 8.17199691610555e-02 8.67213403285288e-04
3.17795454545455e+00 8.12934251032482e-02 8.64316170138701e-04
3.18992424242424e+00 8.08691074279280e-02 8.61422505832637e-04
3.20189393939394e+00 8.04470045129924e-02 8.58532485684605e-04
3.21386363636364e+00 8.00271047983240e-02 8.55646181736522e-04
3.22583333333333e+00 7.96093967854247e-02 8.52763666715612e-04
3.23780303030303e+00 7.91938690332464e-02 8.49885012089240e-04
3.24977272727273e+00 7.87805101617458e-02 8.47010286774907e-04
3.26174242424242e+00 7.83693088502788e-02 8.44139558493775e-04
3.27371212121212e+00 7.79602538385270e-02 8.41272895016102e-04
3.28568181818182e+00 7.75533339224651e-02 8.38410362920686e-04
3.29765151515152e+00 7.71485379577916e-02 8.35552025724086e-04
3.30962121212121e+00 7.67458548595779e-02 8.32697947652604e-04
3.32159090909091e+00 7.63452735983397e-02 8.29848191789758e-04
3.33356060606061e+00 7.59467832033721e-02 8.27002818245151e-04
3.34553030303030e+00 7.55503727624043e-02 8.24161887844837e-04
3.35750000000000e+00 7.51560314177735e-02 8.21325460317494e-04
3.36946969696970e+00 7.47637483696676e-02 8.18493593090435e-04
3.38143939393939e+00 7.43735128746448e-02 8.15666342550192e-04
3.39340909090909e+00 7.39853142464721e-02 8.12843765202444e-04
3.40537878787879e+00 7.35991418524225e-02 8.10025916514108e-04
3.41734848484848e+00 7.32149851164058e-02 8.07212849168553e-04
3.42931818181818e+00 7.28328335186379e-02 8.04404616581172e-04
3.44128787878788e+00 7.24526765920319e-02 8.01601271170728e-04
3.45325757575758e+00 7.20745039252430e-02 7.98802862651148e-04
3.46522727272727e+00 7.16983051623432e-02 7.96009441471639e-04
3.47719696969697e+00 7.13240699993051e-02 7.93221057124547e-04
3.48916666666667e+00 7.09517881869632e-02 7.90437757020980e-04
3.50113636363636e+00 7.05814495296489e-02 7.87659587665537e-04
3.51310606060606e+00 7.02130438859486e-02 7.84886595737953e-04
3.52507575757576e+00 6.98465611652998e-02 7.82118827011286e-04
3.53704545454545e+00 6.94819913308529e-02 7.79356324723761e-04
3.54901515151515e+00 6.91193243991577e-02 7.76599132857646e-04
3.56098484848485e+00 6.87585504368455e-02 7.73847294525438e-04
3.57295454545455e+00 6.83996595634115e-02 7.71100850375156e-04
3.58492424242424e+00 6.80426419509089e-02 7.68359841799384e-04
3.59689393939394e+00 6.76874878207130e-02 7.65624309355655e-04
3.60886363636364e+00 6.73341874462298e-02 7.62894291205425e-04
3.62083333333333e+00 6.69827311525931e-02 7.60169826255150e-04
3.63280303030303e+00 6.66331093135116e-02 7.57450952608857e-04
3.64477272727273e+00 6.62853123539044e-02 7.54737706541058e-04
3.65674242424242e+00 6.59393307486678e-02 7.52030123568318e-04
3.66871212121212e+00 6.55951550233437e-02 7.49328239436115e-04
3.68068181818182e+00 6.52527757510650e-02 7.46632089130405e-04
3.69265151515152e+00 6.49121835551015e-02 7.43941705388247e-04
3.70462121212121e+00 6.45733691085710e-02 7.41257121693167e-04
3.71659090909091e+00 6.42363231314595e-02 7.38578370799561e-04
3.72856060606061e+00 6.39010363930998e-02 7.35905483274327e-04
3.74053030303030e+00 6.35674997118867e-02 7.33238490429330e-04
3.75250000000000e+00 6.32357039523713e-02 7.30577422875953e-04
3.76446969696970e+00 6.29056400276744e-02 7.27922309564703e-04
3.77643939393939e+00 6.25772988983464e-02 7.25273178785635e-04
