Energy (eV)          EEDF (eV^-(3/2))     First Anisotropy
3.07547169811321e-04 3.88692351857535e+01 1.71022675540821e-02
9.22641509433962e-04 3.86163904769341e+01 2.82438018227985e-02
1.53773584905660e-03 3.83651905250114e+01 3.72932247278236e-02
2.15283018867925e-03 3.81156246309426e+01 4.41731411144333e-02
2.76792452830189e-03 3.78676821651606e+01 4.99152173195515e-02
3.38301886792453e-03 3.76213525672497e+01 5.49092998875920e-02
3.99811320754717e-03 3.73766253454906e+01 5.93570301240261e-02
4.61320754716981e-03 3.71334900764124e+01 6.33801115457434e-02
5.22830188679245e-03 3.68919364043492e+01 6.70592195583183e-02
5.84339622641509e-03 3.66519540409988e+01 7.04513453799847e-02
6.45849056603774e-03 3.64135327649847e+01 7.35986558463157e-02
7.07358490566038e-03 3.61766624214200e+01 7.65334705040698e-02
7.68867924528302e-03 3.59413329214761e+01 7.92812617576618e-02
8.30377358490566e-03 3.57075342419518e+01 8.18625647805339e-02
8.91886792452830e-03 3.54752564250434e+01 8.42942476555579e-02
9.53396226415094e-03 3.52444895773166e+01 8.65903867185555e-02
1.01490566037736e-02 3.50152238699055e+01 8.87628881711859e-02
1.07641509433962e-02 3.47874495373911e+01 9.08219407202486e-02
1.13792452830189e-02 3.45611568794893e+01 9.27763528218800e-02
1.19943396226415e-02 3.43363362564000e+01 9.46338081265995e-02
1.26094339622642e-02 3.41129780939757e+01 9.64010627485738e-02
1.32245283018868e-02 3.38910728788045e+01 9.80840999960591e-02
1.38396226415094e-02 3.36706111582340e+01 9.96882523225280e-02
1.44547169811321e-02 3.34515835435177e+01 1.01218299999626e-01
1.50698113207547e-02 3.32339807046540e+01 1.02678550790986e-01
1.56849056603774e-02 3.30177933745674e+01 1.04072905214999e-01
1.63000000000000e-02 3.28030123453041e+01 1.05404910854054e-01
1.69150943396226e-02 3.25896284679076e+01 1.06677806888458e-01
1.75301886792453e-02 3.23776326548370e+01 1.07894562104832e-01
1.81452830188679e-02 3.21670158766782e+01 1.09057907018172e-01
1.87603773584906e-02 3.19577691619670e+01 1.10170360605052e-01
1.93754716981132e-02 3.17498835992457e+01 1.11234253814696e-01
1.99905660377358e-02 3.15433503334285e+01 1.12251749488827e-01
2.06056603773585e-02 3.13381605685830e+01 1.13224859580082e-01
2.12207547169811e-02 3.11343055651919e+01 1.14155460419530e-01
2.18358490566038e-02 3.09317766399319e+01 1.15045305449899e-01
2.24509433962264e-02 3.07305651673324e+01 1.15896036963661e-01
2.30660377358491e-02 3.05306625767004e+01 1.16709196154180e-01
2.36811320754717e-02 3.03320603543921e+01 1.17486231986584e-01
2.42962264150943e-02 3.01347500414763e+01 1.18228509340409e-01
2.49113207547170e-02 2.99387232334881e+01 1.18937315712114e-01
2.55264150943396e-02 2.97439715817930e+01 1.19613867721990e-01
2.61415094339623e-02 2.95504867909329e+01 1.20259316683391e-01
2.67566037735849e-02 2.93582606205168e+01 1.20874753593796e-01
2.73716981132075e-02 2.91672848831889e+01 1.21461213882413e-01
2.79867924528302e-02 2.89775514443695e+01 1.22019681199257e-01
2.86018867924528e-02 2.87890522233925e+01 1.22551091325831e-01
2.92169811320755e-02 2.86017791911803e+01 1.23056335487556e-01
2.98320754716981e-02 2.84157243718396e+01 1.23536263356694e-01
3.04471698113208e-02 2.82308798408699e+01 1.23991686022872e-01
3.10622641509434e-02 2.80472377248980e+01 1.24423378248105e-01
3.16773584905660e-02 2.78647902026369e+01 1.24832080974700e-01
3.22924528301887e-02 2.76835295028246e+01 1.25218503407530e-01
3.29075471698113e-02 2.75034479055866e+01 1.25583324918258e-01
3.35226415094340e-02 2.73245377408378e+01 1.25927197014427e-01
3.41377358490566e-02 2.71467913880155e+01 1.26250744731077e-01
3.47528301886792e-02 2.69702012768943e+01 1.26554568327562e-01
3.53679245283019e-02 2.67947598857417e+01 1.26839244655833e-01
3.59830188679245e-02 2.66204597424911e+01 1.27105328419824e-01
3.65981132075472e-02 2.64472934233052e+01 1.27353353545441e-01
3.72132075471698e-02 2.62752535523072e+01 1.27583834059892e-01
3.78283018867925e-02 2.61043328022806e+01 1.27797265292746e-01
3.84433962264151e-02 2.59345238930045e+01 1.27994124808169e-01
3.90584905660377e-02 2.57658195922715e+01 1.28174873266831e-01
3.96735849056604e-02 2.55982127145852e+01 1.28339955419171e-01
4.02886792452830e-02 2.54316961208942e+01 1.28489800667651e-01
4.09037735849057e-02 2.52662627191944e+01 1.28624823950378e-01
4.15188679245283e-02 2.51019054630178e+01 1.28745426395513e-01
4.21339622641509e-02 2.49386173523205e+01 1.28851995928051e-01
4.27490566037736e-02 2.47763914322951e+01 1.28944908015938e-01
4.33641509433962e-02 2.46152207931079e+01 1.29024526029248e-01
4.39792452830189e-02 2.44550985704202e+01 1.29091201912326e-01
4.45943396226415e-02 2.42960179440081e+01 1.29145276654774e-01
4.52094339622642e-02 2.41379721385418e+01 1.29187080728763e-01
4.58245283018868e-02 2.39809544224965e+01 1.29216934666993e-01
4.64396226415094e-02 2.38249581078938e+01 1.29235149288171e-01
4.70547169811321e-02 2.36699765507545e+01 1.29242026223290e-01
4.76698113207547e-02 2.35160031498324e+01 1.29237858261810e-01
4.82849056603774e-02 2.33630313473006e+01 1.29222929673074e-01
4.89000000000000e-02 2.32110546277481e+01 1.29197516666156e-01
4.95150943396226e-02 2.30600665179265e+01 1.29161887525319e-01
5.01301886792453e-02 2.29100605871444e+01 1.29116303004091e-01
5.07452830188679e-02 2.27610304463143e+01 1.29061016698689e-01
5.13603773584906e-02 2.26129697477026e+01 1.28996275144882e-01
5.19754716981132e-02 2.24658721852892e+01 1.28922318191649e-01
5.25905660377358e-02 2.23197314936597e+01 1.28839379220699e-01
5.32056603773585e-02 2.21745414485650e+01 1.28747685349710e-01
5.38207547169811e-02 2.20302958660372e+01 1.28647457765913e-01
5.44358490566038e-02 2.18869886021463e+01 1.28538911773382e-01
5.50509433962264e-02 2.17446135533129e+01 1.28422257103340e-01
5.56660377358491e-02 2.16031646552827e+01 1.28297698082260e-01
5.62811320754717e-02 2.14626358836228e+01 1.28165433786967e-01
5.68962264150943e-02 2.13230212528998e+01 1.28025658324787e-01
5.75113207547170e-02 2.11843148164422e+01 1.27878560846251e-01
5.81264150943396e-02 2.10465106666140e+01 1.27724325807348e-01
5.87415094339623e-02 2.09096029338610e+01 1.27563133099755e-01
5.93566037735849e-02 2.07735857871532e+01 1.27395158170423e-01
5.99716981132075e-02 2.06384534332176e+01 1.27220572260688e-01
6.05867924528302e-02 2.05042001163070e+01 1.27039542394690e-01
6.12018867924528e-02 2.03708201184395e+01 1.26852231604418e-01
6.18169811320755e-02 2.02383077585091e+01 1.26658799031596e-01
6.24320754716981e-02 2.01066573926805e+01 1.26459400020648e-01
6.30471698113207e-02 1.99758634136719e+01 1.26254186325691e-01
6.36622641509434e-02 1.98459202505300e+01 1.26043306081836e-01
6.42773584905660e-02 1.97168223688389e+01 1.25826904000919e-01
6.48924528301887e-02 1.95885642698899e+01 1.25605121451857e-01
6.55075471698113e-02 1.94611404910337e+01 1.25378096533385e-01
6.61226415094340e-02 1.93345456050083e+01 1.25145964255436e-01
6.67377358490566e-02 1.92087742197208e+01 1.24908856498470e-01
6.73528301886792e-02 1.90838209784289e+01 1.24666902185665e-01
6.79679245283019e-02 1.89596805589643e+01 1.24420227346725e-01
6.85830188679245e-02 1.88363476740477e+01 1.24168955175054e-01
6.91981132075472e-02 1.87138170706578e+01 1.23913206188404e-01
6.98132075471698e-02 1.85920835298185e+01 1.23653098179911e-01
7.04283018867924e-02 1.84711418667580e+01 1.23388746371052e-01
7.10433962264151e-02 1.83509869301800e+01 1.23120263462648e-01
7.16584905660377e-02 1.82316136025458e+01 1.22847759679913e-01
7.22735849056604e-02 1.81130167994803e+01 1.22571342916026e-01
7.28886792452830e-02 1.79951914695662e+01 1.22291118677592e-01
7.35037735849057e-02 1.78781325944817e+01 1.22007190221713e-01
7.41188679245283e-02 1.77618351883160e+01 1.21719658596876e-01
7.47339622641509e-02 1.76462942978221e+01 1.21428622678514e-01
7.53490566037736e-02 1.75315050018571e+01 1.21134179298359e-01
7.59641509433962e-02 1.74174624111821e+01 1.20836423186259e-01
7.65792452830189e-02 1.73041616685823e+01 1.20535447093932e-01
7.71943396226415e-02 1.71915979482221e+01 1.20231341827872e-01
7.78094339622641e-02 1.70797664558721e+01 1.19924196277382e-01
7.84245283018868e-02 1.69686624283813e+01 1.19614097531931e-01
7.90396226415094e-02 1.68582811334822e+01 1.19301130820780e-01
7.96547169811321e-02 1.67486178698948e+01 1.18985379625422e-01
8.02698113207547e-02 1.66396679667192e+01 1.18666925706121e-01
8.08849056603774e-02 1.65314267836391e+01 1.18345849123961e-01
8.15000000000000e-02 1.64238897104228e+01 1.18022228347944e-01
8.21150943396226e-02 1.63170521667342e+01 1.17696140193502e-01
8.27301886792453e-02 1.62109096022225e+01 1.17367659909553e-01
8.33452830188679e-02 1.61054574960409e+01 1.17036861262837e-01
8.39603773584906e-02 1.60006913566608e+01 1.16703816476526e-01
8.45754716981132e-02 1.58966067219528e+01 1.16368596327550e-01
8.51905660377359e-02 1.57931991586342e+01 1.16031270165476e-01
8.58056603773585e-02 1.56904642624383e+01 1.15691905927425e-01
8.64207547169811e-02 1.55883976576584e+01 1.15350570231300e-01
8.70358490566038e-02 1.54869949969680e+01 1.15007328314439e-01
8.76509433962264e-02 1.53862519614896e+01 1.14662244123245e-01
8.82660377358491e-02 1.52861642602725e+01 1.14315380328363e-01
8.88811320754717e-02 1.51867276304443e+01 1.13966798336209e-01
8.94962264150943e-02 1.50879378367788e+01 1.13616558375088e-01
9.01113207547170e-02 1.49897906715218e+01 1.13264719434327e-01
9.07264150943396e-02 1.48922819544489e+01 1.12911339347201e-01
9.13415094339623e-02 1.47954075323716e+01 1.12556474803091e-01
9.19566037735849e-02 1.46991632792726e+01 1.12200181356221e-01
9.25716981132075e-02 1.46035450958964e+01 1.11842513505512e-01
9.31867924528302e-02 1.45085489095795e+01 1.11483524634609e-01
9.38018867924528e-02 1.44141706742997e+01 1.11123267088826e-01
9.44169811320755e-02 1.43204063702074e+01 1.10761792184833e-01
9.50320754716981e-02 1.42272520037474e+01 1.10399150217135e-01
9.56471698113208e-02 1.41347036072692e+01 1.10035390532344e-01
9.62622641509434e-02 1.40427572388630e+01 1.09670561470368e-01
9.68773584905660e-02 1.39514089824004e+01 1.09304710436044e-01
9.74924528301887e-02 1.38606549470898e+01 1.08937883906779e-01
9.81075471698113e-02 1.37704912675855e+01 1.08570127437176e-01
9.87226415094340e-02 1.36809141036169e+01 1.08201485728315e-01
9.93377358490566e-02 1.35919196398299e+01 1.07832002570300e-01
9.99528301886792e-02 1.35035040858200e+01 1.07461720861761e-01
1.00567924528302e-01 1.34156636759625e+01 1.07090682841210e-01
1.01183018867925e-01 1.33283946683099e+01 1.06718929710643e-01
1.01798113207547e-01 1.32416933465148e+01 1.06346501828896e-01
1.02413207547170e-01 1.31555560177688e+01 1.05973439120946e-01
1.03028301886792e-01 1.30699790126857e+01 1.05599780382753e-01
1.03643396226415e-01 1.29849586869607e+01 1.05225563650997e-01
1.04258490566038e-01 1.29004914193832e+01 1.04850826563639e-01
1.04873584905660e-01 1.28165736117211e+01 1.04475605683889e-01
1.05488679245283e-01 1.27332016903159e+01 1.04099936858714e-01
1.06103773584906e-01 1.26503721041666e+01 1.03723855568775e-01
1.06718867924528e-01 1.25680813248150e+01 1.03347396270931e-01
1.07333962264151e-01 1.24863258478796e+01 1.02970592745940e-01
1.07949056603774e-01 1.24051021912080e+01 1.02593478438169e-01
1.08564150943396e-01 1.23244068947624e+01 1.02216085816093e-01
1.09179245283019e-01 1.22442365220960e+01 1.01838446709569e-01
1.09794339622641e-01 1.21645876585698e+01 1.01460592639717e-01
1.10409433962264e-01 1.20854569112395e+01 1.01082554196825e-01
1.11024528301887e-01 1.20068409102762e+01 1.00704361367638e-01
1.11639622641509e-01 1.19287363072453e+01 1.00326043855745e-01
1.12254716981132e-01 1.18511397749948e+01 9.99476304763517e-02
1.12869811320755e-01 1.17740480090227e+01 9.95691494739456e-02
1.13484905660377e-01 1.16974577258152e+01 9.91906288335346e-02
1.14100000000000e-01 1.16213656627363e+01 9.88120956917796e-02
1.14715094339623e-01 1.15457685793447e+01 9.84335767402342e-02
1.15330188679245e-01 1.14706632553165e+01 9.80550981474530e-02
1.15945283018868e-01 1.13960464922282e+01 9.76766854608326e-02
1.16560377358491e-01 1.13219151119823e+01 9.72983640050836e-02
1.17175471698113e-01 1.12482659566992e+01 9.69201583171838e-02
1.17790566037736e-01 1.11750958899600e+01 9.65420924414094e-02
1.18405660377358e-01 1.11024017952853e+01 9.61641902186159e-02
1.19020754716981e-01 1.10301805760289e+01 9.57864747363445e-02
1.19635849056604e-01 1.09584291565748e+01 9.54089686154989e-02
1.20250943396226e-01 1.08871444808670e+01 9.50316942914353e-02
1.20866037735849e-01 1.08163235123051e+01 9.46546734787790e-02
1.21481132075472e-01 1.07459632348973e+01 9.42779274500325e-02
1.22096226415094e-01 1.06760606518398e+01 9.39014773087500e-02
1.22711320754717e-01 1.06066127854131e+01 9.35253434686014e-02
1.23326415094340e-01 1.05376166780944e+01 9.31495459242177e-02
1.23941509433962e-01 1.04690693911829e+01 9.27741045167093e-02
1.24556603773585e-01 1.04009680046983e+01 9.23990384265533e-02
1.25171698113208e-01 1.03333096184533e+01 9.20243664369145e-02
1.25786792452830e-01 1.02660913507235e+01 9.16501071917739e-02
1.26401886792453e-01 1.01993103381484e+01 9.12762787022437e-02
1.27016981132075e-01 1.01329637367646e+01 9.09028986026015e-02
1.27632075471698e-01 1.00670487207198e+01 9.05299844012869e-02
1.28247169811321e-01 1.00015624821747e+01 9.01575530002204e-02
1.28862264150943e-01 9.93650223230019e+00 8.97856209438185e-02
1.29477358490566e-01 9.87186520003267e+00 8.94142046630722e-02
1.30092452830189e-01 9.80764863197766e+00 8.90433200074810e-02
1.30707547169811e-01 9.74384979337149e+00 8.86729824872855e-02
1.31322641509434e-01 9.68046596687697e+00 8.83032075108582e-02
1.31937735849057e-01 9.61749445248849e+00 8.79340099289036e-02
1.32552830188679e-01 9.55493256845989e+00 8.75654042700641e-02
1.33167924528302e-01 9.49277765013882e+00 8.71974049718988e-02
1.33783018867925e-01 9.43102704987311e+00 8.68300259369858e-02
1.34398113207547e-01 9.36967813790644e+00 8.64632807620678e-02
1.35013207547170e-01 9.30872830124977e+00 8.60971829628506e-02
1.35628301886792e-01 9.24817494358916e+00 8.57317455416535e-02
1.36243396226415e-01 9.18801548615030e+00 8.53669812103139e-02
1.36858490566038e-01 9.12824736660587e+00 8.50029026090080e-02
1.37473584905660e-01 9.06886803898451e+00 8.46395218851026e-02
1.38088679245283e-01 9.00987497450574e+00 8.42768509099966e-02
1.38703773584906e-01 8.95126566052163e+00 8.39149014921633e-02
1.39318867924528e-01 8.89303760042719e+00 8.35536849668779e-02
1.39933962264151e-01 8.83518831446663e+00 8.31932124072031e-02
1.40549056603774e-01 8.77771533870825e+00 8.28334948314123e-02
1.41164150943396e-01 8.72061622495609e+00 8.24745428032897e-02
1.41779245283019e-01 8.66388854152875e+00 8.21163666374420e-02
1.42394339622642e-01 8.60752987226622e+00 8.17589766012684e-02
1.43009433962264e-01 8.55153781644280e+00 8.14023825255305e-02
1.43624528301887e-01 8.49590998951959e+00 8.10465940041675e-02
1.44239622641509e-01 8.44064402218203e+00 8.06916205909831e-02
1.44854716981132e-01 8.38573756025417e+00 8.03374714201896e-02
1.45469811320755e-01 8.33118826542576e+00 7.99841554009018e-02
1.46084905660377e-01 8.27699381431943e+00 7.96316814086769e-02
1.46700000000000e-01 8.22315189840628e+00 7.92800579157587e-02
1.47315094339623e-01 8.16966022470858e+00 7.89292932396368e-02
1.47930188679245e-01 8.11651651463511e+00 7.85793954922131e-02
1.48545283018868e-01 8.06371850494136e+00 7.82303725157180e-02
1.49160377358491e-01 8.01126394684119e+00 7.78822321293857e-02
1.49775471698113e-01 7.95915060592481e+00 7.75349817741140e-02
1.50390566037736e-01 7.90737626282506e+00 7.71886286941803e-02
1.51005660377358e-01 7.85593871235609e+00 7.68431801162885e-02
1.51620754716981e-01 7.80483576343277e+00 7.64986429032626e-02
1.52235849056604e-01 7.75406523971472e+00 7.61550237310289e-02
1.52850943396226e-01 7.70362497877106e+00 7.58123292629925e-02
1.53466037735849e-01 7.65351283200115e+00 7.54705658125049e-02
1.54081132075472e-01 7.60372666525733e+00 7.51297395152566e-02
1.54696226415094e-01 7.55426435803472e+00 7.47898564991340e-02
1.55311320754717e-01 7.50512380339336e+00 7.44509225552021e-02
1.55926415094340e-01 7.45630290856039e+00 7.41129433056519e-02
1.56541509433962e-01 7.40779959414404e+00 7.37759243692575e-02
1.57156603773585e-01 7.35961179405720e+00 7.34398710406426e-02
1.57771698113208e-01 7.31173745609972e+00 7.31047884539230e-02
1.58386792452830e-01 7.26417454119582e+00 7.27706817438780e-02
1.59001886792453e-01 7.21692102331905e+00 7.24375557332740e-02
1.59616981132075e-01 7.16997489005545e+00 7.21054150923194e-02
1.60232075471698e-01 7.12333414186361e+00 7.17742644956945e-02
1.60847169811321e-01 7.07699679200087e+00 7.14441083177065e-02
1.61462264150943e-01 7.03096086706822e+00 7.11149507876669e-02
1.62077358490566e-01 6.98522440629206e+00 7.07867961428990e-02
1.62692452830189e-01 6.93978546145181e+00 7.04596483315056e-02
1.63307547169811e-01 6.89464209740704e+00 7.01335111637928e-02
1.63922641509434e-01 6.84979239140035e+00 6.98083884613740e-02
1.64537735849057e-01 6.80523443298625e+00 6.94842837673507e-02
1.65152830188679e-01 6.76096632454120e+00 6.91612004938716e-02
1.65767924528302e-01 6.71698618058696e+00 6.88391420674526e-02
1.66383018867925e-01 6.67329212772062e+00 6.85181116463799e-02
1.66998113207547e-01 6.62988230510823e+00 6.81981122644958e-02
1.67613207547170e-01 6.58675486382795e+00 6.78791469728652e-02
1.68228301886792e-01 6.54390796680114e+00 6.75612185641833e-02
1.68843396226415e-01 6.50133978927027e+00 6.72443297128977e-02
1.69458490566038e-01 6.45904851816108e+00 6.69284831133311e-02
1.70073584905660e-01 6.41703235201489e+00 6.66136812109087e-02
1.70688679245283e-01 6.37528950145118e+00 6.62999263387114e-02
1.71303773584906e-01 6.33381818854828e+00 6.59872208521532e-02
1.71918867924528e-01 6.29261664677675e+00 6.56755668668471e-02
1.72533962264151e-01 6.25168312144728e+00 6.53649663916864e-02
1.73149056603774e-01 6.21101586910921e+00 6.50554214601722e-02
1.73764150943396e-01 6.17061315748506e+00 6.47469338747448e-02
1.74379245283019e-01 6.13047326590419e+00 6.44395053364972e-02
1.74994339622641e-01 6.09059448471864e+00 6.41331375732342e-02
1.75609433962264e-01 6.05097511523869e+00 6.38278320900854e-02
1.76224528301887e-01 6.01161347015290e+00 6.35235902959505e-02
1.76839622641509e-01 5.97250787296061e+00 6.32204136284001e-02
1.77454716981132e-01 5.93365665790861e+00 6.29183033103966e-02
1.78069811320755e-01 5.89505817039793e+00 6.26172604735479e-02
1.78684905660377e-01 5.85671076643254e+00 6.23172862799235e-02
1.79300000000000e-01 5.81861281255708e+00 6.20183816847454e-02
1.79915094339623e-01 5.78076268625091e+00 6.17205475944602e-02
1.80530188679245e-01 5.74315877524146e+00 6.14237848335655e-02
1.81145283018868e-01 5.70579947804779e+00 6.11280941026860e-02
1.81760377358491e-01 5.66868320345377e+00 6.08334761358803e-02
1.82375471698113e-01 5.63180837044772e+00 6.05399314723177e-02
1.82990566037736e-01 5.59517340859723e+00 6.02474605718085e-02
1.83605660377358e-01 5.55877675753723e+00 5.99560639290145e-02
1.84220754716981e-01 5.52261686691076e+00 5.96657418506934e-02
1.84835849056604e-01 5.48669219673204e+00 5.93764945683868e-02
1.85450943396226e-01 5.45100121688893e+00 5.90883223497839e-02
1.86066037735849e-01 5.41554240708474e+00 5.88012252813874e-02
1.86681132075472e-01 5.38031425719009e+00 5.85152033784321e-02
1.87296226415094e-01 5.34531526675920e+00 5.82302566934971e-02
1.87911320754717e-01 5.31054394497281e+00 5.79463851044408e-02
1.88526415094340e-01 5.27599881097910e+00 5.76635884216180e-02
1.89141509433962e-01 5.24167839342348e+00 5.73818664938214e-02
1.89756603773585e-01 5.20758123039254e+00 5.71012190013446e-02
1.90371698113208e-01 5.17370586974443e+00 5.68216455605741e-02
1.90986792452830e-01 5.14005086865172e+00 5.65431458273235e-02
1.91601886792453e-01 5.10661479354637e+00 5.62657192949022e-02
1.92216981132075e-01 5.07339622043990e+00 5.59893653961461e-02
1.92832075471698e-01 5.04039373447895e+00 5.57140836042146e-02
1.93447169811321e-01 5.00760592989122e+00 5.54398732355363e-02
1.94062264150943e-01 4.97503141029583e+00 5.51667335493480e-02
