Energy (eV)          EEDF (eV^-(3/2))     First Anisotropy
4.77450980392157e-03 6.71005881099609e-01 3.49643210801501e-04
1.43235294117647e-02 6.66479810889745e-01 5.77354065052613e-04
2.38725490196078e-02 6.61984269944241e-01 7.62156222913991e-04
3.34215686274510e-02 6.57519052331266e-01 9.02541818992629e-04
4.29705882352941e-02 6.53083953513384e-01 1.01961685755577e-03
5.25196078431373e-02 6.48678770333073e-01 1.12135968109718e-03
6.20686274509804e-02 6.44303301003239e-01 1.21189832030272e-03
7.16176470588235e-02 6.39957345091539e-01 1.29372511511826e-03
8.11666666666667e-02 6.35640703531280e-01 1.36849272921956e-03
9.07156862745098e-02 6.31353178590998e-01 1.43736902030935e-03
1.00264705882353e-01 6.27094573873046e-01 1.50121834150155e-03
1.09813725490196e-01 6.22864694291873e-01 1.56070339763690e-03
1.19362745098039e-01 6.18663346126088e-01 1.61634666373042e-03
1.28911764705882e-01 6.14490336888965e-01 1.66856947881448e-03
1.38460784313725e-01 6.10345475429768e-01 1.71771803894833e-03
1.48009803921569e-01 6.06228571917210e-01 1.76408134073370e-03
1.57558823529412e-01 6.02139437739730e-01 1.80790389868388e-03
1.67107843137255e-01 5.98077885613607e-01 1.84939501977349e-03
1.76656862745098e-01 5.94043729467746e-01 1.88873571077483e-03
1.86205882352941e-01 5.90036784511217e-01 1.92608390487408e-03
1.95754901960784e-01 5.86056867221016e-01 1.96157851866631e-03
2.05303921568627e-01 5.82103795269055e-01 1.99534260614766e-03
2.14852941176471e-01 5.78177387597191e-01 2.02748587064169e-03
2.24401960784314e-01 5.74277464331231e-01 2.05810668307353e-03
2.33950980392157e-01 5.70403846828771e-01 2.08729370755983e-03
2.43500000000000e-01 5.66556357668832e-01 2.11512725455545e-03
2.53049019607843e-01 5.62734820594392e-01 2.14168037957768e-03
2.62598039215686e-01 5.58939060568245e-01 2.16701980749937e-03
2.72147058823529e-01 5.55168903704675e-01 2.19120670980808e-03
2.81696078431373e-01 5.51424177305362e-01 2.21429735120785e-03
2.91245098039216e-01 5.47704709849989e-01 2.23634365845196e-03
3.00794117647059e-01 5.44010330949021e-01 2.25739368949288e-03
3.10343137254902e-01 5.40340871387110e-01 2.27749204507920e-03
3.19892156862745e-01 5.36696163066613e-01 2.29668022573054e-03
3.29441176470588e-01 5.33076039035565e-01 2.31499693276891e-03
3.38990196078431e-01 5.29480333478885e-01 2.33247834788243e-03
3.48539215686274e-01 5.25908881678432e-01 2.34915836230774e-03
3.58088235294118e-01 5.22361520047714e-01 2.36506878578092e-03
3.67637254901961e-01 5.18838086083923e-01 2.38023953192481e-03
3.77186274509804e-01 5.15338418390246e-01 2.39469877439193e-03
3.86735294117647e-01 5.11862356667563e-01 2.40847310092294e-03
3.96284313725490e-01 5.08409741679899e-01 2.42158763781272e-03
4.05833333333333e-01 5.04980415274402e-01 2.43406616089738e-03
4.15382352941176e-01 5.01574220373306e-01 2.44593120823960e-03
4.24931372549020e-01 4.98191000941698e-01 2.45720416768615e-03
4.34480392156863e-01 4.94830602013233e-01 2.46790536229526e-03
4.44029411764706e-01 4.91492869651357e-01 2.47805412822682e-03
4.53578431372549e-01 4.88177650965580e-01 2.48766887824095e-03
4.63127450980392e-01 4.84884794103870e-01 2.49676717267493e-03
4.72676470588235e-01 4.81614148224098e-01 2.50536577137588e-03
4.82225490196078e-01 4.78365563515495e-01 2.51348068700794e-03
4.91774509803922e-01 4.75138891164363e-01 2.52112723432963e-03
5.01323529411765e-01 4.71933983367483e-01 2.52832006881910e-03
5.10872549019608e-01 4.68750693324875e-01 2.53507323432170e-03
5.20421568627451e-01 4.65588875214216e-01 2.54140019514960e-03
5.29970588235294e-01 4.62448384208935e-01 2.54731387111456e-03
5.39519607843137e-01 4.59329076447563e-01 2.55282667030560e-03
5.49068627450980e-01 4.56230809044900e-01 2.55795051338572e-03
5.58617647058824e-01 4.53153440085047e-01 2.56269686732890e-03
5.68166666666667e-01 4.50096828598322e-01 2.56707676584065e-03
5.77715686274510e-01 4.47060834576628e-01 2.57110083339545e-03
5.87264705882353e-01 4.44045318945835e-01 2.57477930797093e-03
5.96813725490196e-01 4.41050143575113e-01 2.57812205667593e-03
6.06362745098039e-01 4.38075171270240e-01 2.58113860073730e-03
6.15911764705882e-01 4.35120265752604e-01 2.58383812972633e-03
6.25460784313726e-01 4.32185291667722e-01 2.58622951468330e-03
6.35009803921569e-01 4.29270114578700e-01 2.58832132942705e-03
6.44558823529412e-01 4.26374600946225e-01 2.59012186076917e-03
6.54107843137255e-01 4.23498618140725e-01 2.59163912268119e-03
6.63656862745098e-01 4.20642034418488e-01 2.59288086991176e-03
6.73205882352941e-01 4.17804718928819e-01 2.59385460582490e-03
6.82754901960784e-01 4.14986541707762e-01 2.59456759913285e-03
6.92303921568628e-01 4.12187373659728e-01 2.59502689056466e-03
7.01852941176471e-01 4.09407086567969e-01 2.59523930343739e-03
7.11401960784314e-01 4.06645553072720e-01 2.59521145391775e-03
7.20950980392157e-01 4.03902646677218e-01 2.59494975609144e-03
7.30500000000000e-01 4.01178241741665e-01 2.59446043549203e-03
7.40049019607843e-01 3.98472213466279e-01 2.59374953340545e-03
7.49598039215686e-01 3.95784437900356e-01 2.59282291495721e-03
7.59147058823529e-01 3.93114791922157e-01 2.59168627703641e-03
7.68696078431373e-01 3.90463153243979e-01 2.59034515149648e-03
7.78245098039216e-01 3.87829400406345e-01 2.58880491636806e-03
7.87794117647059e-01 3.85213412762299e-01 2.58707079855154e-03
7.97343137254902e-01 3.82615070485268e-01 2.58514788014223e-03
8.06892156862745e-01 3.80034254550485e-01 2.58304110468191e-03
8.16441176470588e-01 3.77470846739260e-01 2.58075527907626e-03
8.25990196078431e-01 3.74924729633369e-01 2.57829508308303e-03
8.35539215686275e-01 3.72395786600470e-01 2.57566507088737e-03
8.45088235294118e-01 3.69883901800925e-01 2.57286967614732e-03
8.54637254901961e-01 3.67388960170586e-01 2.56991321702027e-03
8.64186274509804e-01 3.64910847424383e-01 2.56679989718527e-03
8.73735294117647e-01 3.62449450050906e-01 2.56353381401449e-03
8.83284313725490e-01 3.60004655298815e-01 2.56011896005064e-03
8.92833333333333e-01 3.57576351180097e-01 2.55655922435157e-03
9.02382352941177e-01 3.55164426464781e-01 2.55285840003816e-03
9.11931372549020e-01 3.52768770667834e-01 2.54902018471385e-03
9.21480392156863e-01 3.50389274054689e-01 2.54504818410876e-03
9.31029411764706e-01 3.48025827625847e-01 2.54094591575897e-03
9.40578431372549e-01 3.45678323119594e-01 2.53671680909251e-03
9.50127450980392e-01 3.43346653006897e-01 2.53236421207780e-03
9.59676470588235e-01 3.41030710479148e-01 2.52789139119456e-03
9.69225490196079e-01 3.38730389452969e-01 2.52330153446081e-03
9.78774509803922e-01 3.36445584555847e-01 2.51859775451604e-03
9.88323529411765e-01 3.34176191128373e-01 2.51378308834321e-03
9.97872549019608e-01 3.31922105219330e-01 2.50886050379006e-03
1.00742156862745e+00 3.29683223571983e-01 2.50383289799918e-03
1.01697058823529e+00 3.27459443632772e-01 2.49870309939362e-03
1.02651960784314e+00 3.25250663537653e-01 2.49347387270035e-03
1.03606862745098e+00 3.23056782109673e-01 2.48814791834816e-03
1.04561764705882e+00 3.20877698854337e-01 2.48272787488087e-03
1.05516666666667e+00 3.18713313955006e-01 2.47721632068670e-03
1.06471568627451e+00 3.16563528268322e-01 2.47161577566469e-03
1.07426470588235e+00 3.14428243319670e-01 2.46592870283048e-03
1.08381372549020e+00 3.12307361298665e-01 2.46015750986488e-03
1.09336274509804e+00 3.10200785054672e-01 2.45430454528561e-03
1.10291176470588e+00 3.08108418110999e-01 2.44837211594680e-03
1.11246078431373e+00 3.06030164604146e-01 2.44236247767288e-03
1.12200980392157e+00 3.03965929336155e-01 2.43627782573690e-03
1.13155882352941e+00 3.01915617751196e-01 2.43012031253387e-03
1.14110784313725e+00 2.99879135931239e-01 2.42389204334357e-03
1.15065686274510e+00 2.97856390591747e-01 2.41759507754180e-03
1.16020588235294e+00 2.95847289077407e-01 2.41123142977165e-03
1.16975490196078e+00 2.93851739357882e-01 2.40480307107593e-03
1.17930392156863e+00 2.91869650023601e-01 2.39831192999330e-03
1.18885294117647e+00 2.89900930281566e-01 2.39175989361899e-03
1.19840196078431e+00 2.87945489951196e-01 2.38514880863053e-03
1.20795098039216e+00 2.86003239460196e-01 2.37848048228204e-03
1.21750000000000e+00 2.84074089840454e-01 2.37175668336794e-03
1.22704901960784e+00 2.82157952723960e-01 2.36497914315423e-03
1.23659803921569e+00 2.80254740338766e-01 2.35814955628047e-03
1.24614705882353e+00 2.78364365504966e-01 2.35126958163788e-03
1.25569607843137e+00 2.76486741630700e-01 2.34434084321970e-03
1.26524509803922e+00 2.74621782708185e-01 2.33736493094373e-03
1.27479411764706e+00 2.72769403309780e-01 2.33034340145182e-03
1.28434313725490e+00 2.70929518584070e-01 2.32327777888522e-03
1.29389215686275e+00 2.69102044251977e-01 2.31616955563722e-03
1.30344117647059e+00 2.67286896602905e-01 2.30902019308347e-03
1.31299019607843e+00 2.65483992490901e-01 2.30183112229161e-03
1.32253921568627e+00 2.63693249330848e-01 2.29460374471077e-03
1.33208823529412e+00 2.61914585094683e-01 2.28733943284048e-03
1.34163725490196e+00 2.60147918307636e-01 2.28003952685017e-03
1.35118627450980e+00 2.58393168057257e-01 2.27270534737271e-03
1.36073529411765e+00 2.56650253951188e-01 2.26533818797654e-03
1.37028431372549e+00 2.54919096152258e-01 2.25793930753255e-03
1.37983333333333e+00 2.53199615361817e-01 2.25050994319497e-03
1.38938235294118e+00 2.51491732816096e-01 2.24305130681021e-03
1.39893137254902e+00 2.49795370282606e-01 2.23556458546681e-03
1.40848039215686e+00 2.48110450056551e-01 2.22805094203073e-03
1.41802941176471e+00 2.46436894957270e-01 2.22051151566623e-03
1.42757843137255e+00 2.44774628324700e-01 2.21294742234360e-03
1.43712745098039e+00 2.43123574015864e-01 2.20535975533254e-03
1.44667647058824e+00 2.41483656401386e-01 2.19774958568323e-03
1.45622549019608e+00 2.39854800362025e-01 2.19011796269500e-03
1.46577450980392e+00 2.38236931285235e-01 2.18246591437381e-03
1.47532352941176e+00 2.36629975061740e-01 2.17479444787438e-03
1.48487254901961e+00 2.35033858082152e-01 2.16710454993396e-03
1.49442156862745e+00 2.33448507233592e-01 2.15939718729754e-03
1.50397058823529e+00 2.31873849896342e-01 2.15167330712800e-03
1.51351960784314e+00 2.30309813940520e-01 2.14393383740796e-03
1.52306862745098e+00 2.28756327722771e-01 2.13617968733162e-03
1.53261764705882e+00 2.27213320082991e-01 2.12841174768656e-03
1.54216666666667e+00 2.25680720341065e-01 2.12063089122665e-03
1.55171568627451e+00 2.24158458293630e-01 2.11283797303581e-03
1.56126470588235e+00 2.22646464210856e-01 2.10503383088265e-03
1.57081372549020e+00 2.21144668833256e-01 2.09721928556712e-03
1.58036274509804e+00 2.19653003368514e-01 2.08939513812213e-03
1.58991176470588e+00 2.18171399497475e-01 2.08156217960354e-03
1.59946078431373e+00 2.16699789343407e-01 2.07372118508110e-03
1.60900980392157e+00 2.15238105496680e-01 2.06587290754965e-03
1.61855882352941e+00 2.13786281002355e-01 2.05801808787997e-03
1.62810784313725e+00 2.12344249357119e-01 2.05015745188725e-03
1.63765686274510e+00 2.10911944506235e-01 2.04229171062444e-03
1.64720588235294e+00 2.09489300840520e-01 2.03442156066892e-03
1.65675490196078e+00 2.08076253193336e-01 2.02654768440249e-03
1.66630392156863e+00 2.06672736837610e-01 2.01867075028541e-03
1.67585294117647e+00 2.05278687482864e-01 2.01079141312394e-03
1.68540196078431e+00 2.03894041272271e-01 2.00291031433211e-03
1.69495098039216e+00 2.02518734779733e-01 1.99502808218764e-03
1.70450000000000e+00 2.01152705006973e-01 1.98714533208216e-03
1.71404901960784e+00 1.99795889380649e-01 1.97926266676591e-03
1.72359803921569e+00 1.98448225749488e-01 1.97138067658584e-03
1.73314705882353e+00 1.97109652381441e-01 1.96349993972057e-03
1.74269607843137e+00 1.95780107960855e-01 1.95562102241022e-03
1.75224509803922e+00 1.94459531585663e-01 1.94774447917957e-03
1.76179411764706e+00 1.93147862764593e-01 1.93987085305753e-03
1.77134313725490e+00 1.91845041414400e-01 1.93200067579177e-03
1.78089215686275e+00 1.90551007857114e-01 1.92413446805853e-03
1.79044117647059e+00 1.89265702817302e-01 1.91627273966831e-03
1.79999019607843e+00 1.87989067419358e-01 1.90841598976693e-03
1.80953921568627e+00 1.86721043184801e-01 1.90056470703273e-03
1.81908823529412e+00 1.85461572029601e-01 1.89271936986956e-03
1.82863725490196e+00 1.84210596261517e-01 1.88488044414962e-03
1.83818627450980e+00 1.82968058584085e-01 1.87704839077480e-03
1.84773529411765e+00 1.81733902073974e-01 1.86922366092255e-03
1.85728431372549e+00 1.80508070198526e-01 1.86140669122873e-03
1.86683333333333e+00 1.79290506806403e-01 1.85359791148067e-03
1.87638235294118e+00 1.78081156125024e-01 1.84579774226787e-03
1.88593137254902e+00 1.76879962757999e-01 1.83800659514904e-03
1.89548039215686e+00 1.75686871682604e-01 1.83022487281530e-03
1.90502941176471e+00 1.74501828247250e-01 1.82245296925053e-03
1.91457843137255e+00 1.73324778168985e-01 1.81469126988854e-03
1.92412745098039e+00 1.72155667531007e-01 1.80694015176693e-03
1.93367647058824e+00 1.70994442780193e-01 1.79919998367797e-03
1.94322549019608e+00 1.69841050724646e-01 1.79147112631648e-03
1.95277450980392e+00 1.68695438531261e-01 1.78375393242563e-03
1.96232352941176e+00 1.67557553723298e-01 1.77604874693769e-03
1.97187254901961e+00 1.66427344177989e-01 1.76835590711357e-03
1.98142156862745e+00 1.65304758124140e-01 1.76067574268080e-03
1.99097058823529e+00 1.64189744139768e-01 1.75300857596683e-03
2.00051960784314e+00 1.63082251149738e-01 1.74535472203071e-03
2.01006862745098e+00 1.61982228423430e-01 1.73771448879192e-03
2.01961764705882e+00 1.60889625572411e-01 1.73008817715699e-03
2.02916666666667e+00 1.59804392548127e-01 1.72247608114353e-03
2.03871568627451e+00 1.58726479639613e-01 1.71487848800193e-03
2.04826470588235e+00 1.57655837471215e-01 1.70729567833495e-03
2.05781372549020e+00 1.56592417000326e-01 1.69972792621491e-03
2.06736274509804e+00 1.55536169515140e-01 1.69217549735623e-03
2.07691176470588e+00 1.54487046637381e-01 1.68463865508552e-03
2.08646078431373e+00 1.53445000305125e-01 1.67711765653414e-03
2.09600980392157e+00 1.52409982785650e-01 1.66961274878075e-03
2.10555882352941e+00 1.51381946668198e-01 1.66212417492778e-03
2.11510784313725e+00 1.50360844861806e-01 1.65465217220605e-03
2.12465686274510e+00 1.49346630593151e-01 1.64719697207735e-03
2.13420588235294e+00 1.48339257404403e-01 1.63975880033540e-03
2.14375490196078e+00 1.47338679151100e-01 1.63233787720493e-03
2.15330392156863e+00 1.46344850000036e-01 1.62493441743889e-03
2.16285294117647e+00 1.45357724427155e-01 1.61754863041411e-03
2.17240196078431e+00 1.44377257215474e-01 1.61018072022492e-03
2.18195098039216e+00 1.43403403453004e-01 1.60283088577536e-03
2.19150000000000e+00 1.42436118530699e-01 1.59549932086972e-03
2.20104901960784e+00 1.41475358140409e-01 1.58818621430110e-03
2.21059803921569e+00 1.40521078272849e-01 1.58089174993840e-03
2.22014705882353e+00 1.39573235215590e-01 1.57361610681226e-03
2.22969607843137e+00 1.38631785551049e-01 1.56635945919944e-03
2.23924509803922e+00 1.37696686154504e-01 1.55912197670536e-03
2.24879411764706e+00 1.36767894192118e-01 1.55190382434513e-03
2.25834313725490e+00 1.35845367118978e-01 1.54470516262346e-03
2.26789215686275e+00 1.34929062677143e-01 1.53752614761299e-03
2.27744117647059e+00 1.34018938893712e-01 1.53036693103123e-03
2.28699019607843e+00 1.33114954078897e-01 1.52322766031634e-03
2.29653921568627e+00 1.32217066824120e-01 1.51610847870128e-03
2.30608823529412e+00 1.31325236000109e-01 1.50900952528688e-03
2.31563725490196e+00 1.30439420755018e-01 1.50193093357435e-03
2.32518627450980e+00 1.29559580516266e-01 1.49487283617756e-03
2.33473529411765e+00 1.28685674977481e-01 1.48783536178745e-03
2.34428431372549e+00 1.27817664107917e-01 1.48081863209682e-03
2.35383333333333e+00 1.26955508146842e-01 1.47382276659821e-03
2.36338235294118e+00 1.26099167601720e-01 1.46684788106452e-03
2.37293137254902e+00 1.25248603246397e-01 1.45989408761362e-03
2.38248039215686e+00 1.24403776119310e-01 1.45296149477220e-03
2.39202941176471e+00 1.23564647521700e-01 1.44605020753818e-03
2.40157843137255e+00 1.22731179015836e-01 1.43916032744176e-03
2.41112745098039e+00 1.21903332423259e-01 1.43229195260611e-03
2.42067647058824e+00 1.21081069823032e-01 1.42544517780684e-03
2.43022549019608e+00 1.20264353550001e-01 1.41862009453023e-03
2.43977450980392e+00 1.19453146193071e-01 1.41181679103089e-03
2.44932352941176e+00 1.18647410593493e-01 1.40503535238773e-03
2.45887254901961e+00 1.17847109843161e-01 1.39827586055924e-03
2.46842156862745e+00 1.17052207282921e-01 1.39153839443860e-03
2.47797058823529e+00 1.16262666500894e-01 1.38482302990729e-03
2.48751960784314e+00 1.15478451330806e-01 1.37812983988779e-03
2.49706862745098e+00 1.14699525850329e-01 1.37145889439521e-03
2.50661764705882e+00 1.13925854379442e-01 1.36481026058844e-03
2.51616666666667e+00 1.13157401478791e-01 1.35818400282035e-03
2.52571568627451e+00 1.12394131948069e-01 1.35158018268702e-03
2.53526470588235e+00 1.11636010824401e-01 1.34499885907632e-03
2.54481372549020e+00 1.10883003380742e-01 1.33844008821570e-03
2.55436274509804e+00 1.10135075124292e-01 1.33190392248143e-03
2.56391176470588e+00 1.09392191797748e-01 1.32539041417621e-03
2.57346078431373e+00 1.08654319369173e-01 1.31889961307919e-03
2.58300980392157e+00 1.07921424039049e-01 1.31243156396325e-03
2.59255882352941e+00 1.07193472235846e-01 1.30598631044201e-03
2.60210784313725e+00 1.06470430614477e-01 1.29956389373904e-03
2.61165686274510e+00 1.05752266054777e-01 1.29316435273002e-03
2.62120588235294e+00 1.05038945659982e-01 1.28678772398483e-03
2.63075490196078e+00 1.04330436755223e-01 1.28043404180871e-03
2.64030392156863e+00 1.03626706886031e-01 1.27410333828251e-03
2.64985294117647e+00 1.02927723816847e-01 1.26779564330265e-03
2.65940196078431e+00 1.02233455529550e-01 1.26151098462042e-03
2.66895098039216e+00 1.01543870221983e-01 1.25524938788032e-03
2.67850000000000e+00 1.00858936306507e-01 1.24901087665806e-03
2.68804901960784e+00 1.00178622408542e-01 1.24279547249786e-03
2.69759803921569e+00 9.95028973651405e-02 1.23660319494894e-03
2.70714705882353e+00 9.88317302235522e-02 1.23043406160184e-03
2.71669607843137e+00 9.81650902398111e-02 1.22428808812411e-03
2.72624509803922e+00 9.75029468773249e-02 1.21816528829504e-03
2.73579411764706e+00 9.68452698054768e-02 1.21206567404015e-03
2.74534313725490e+00 9.61920288982363e-02 1.20598925546503e-03
2.75489215686275e+00 9.55431942327787e-02 1.19993604088877e-03
2.76444117647059e+00 9.48987360881151e-02 1.19390603687658e-03
2.77399019607843e+00 9.42586249437305e-02 1.18789924827211e-03
2.78353921568627e+00 9.36228314782315e-02 1.18191567822924e-03
2.79308823529412e+00 9.29913265680036e-02 1.17595532824315e-03
2.80263725490196e+00 9.23640812858771e-02 1.17001819719036e-03
2.81218627450980e+00 9.17410669019731e-02 1.16410428434672e-03
2.82173529411765e+00 9.11222548758370e-02 1.15821358741901e-03
2.83128431372549e+00 9.05076168617187e-02 1.15234610055065e-03
2.84083333333333e+00 8.98971247050657e-02 1.14650181739563e-03
2.85038235294118e+00 8.92907504412339e-02 1.14068073012669e-03
2.85993137254902e+00 8.86884662942061e-02 1.13488282946322e-03
2.86948039215686e+00 8.80902446753199e-02 1.12910810469883e-03
2.87902941176471e+00 8.74960581820042e-02 1.12335654372832e-03
2.88857843137255e+00 8.69058795965235e-02 1.11762813307427e-03
2.89812745098039e+00 8.63196818847315e-02 1.11192285791346e-03
2.90767647058824e+00 8.57374381948328e-02 1.10624070210251e-03
2.91722549019608e+00 8.51591218561525e-02 1.10058164820326e-03
2.92677450980392e+00 8.45847063779149e-02 1.09494567750807e-03
2.93632352941176e+00 8.40141654480294e-02 1.08933277006394e-03
2.94587254901961e+00 8.34474729318865e-02 1.08374290469670e-03
2.95542156862745e+00 8.28846028711594e-02 1.07817605903535e-03
2.96497058823529e+00 8.23255294826159e-02 1.07263220953532e-03
2.97451960784314e+00 8.17702271569364e-02 1.06711133150136e-03
2.98406862745098e+00 8.12186704575417e-02 1.06161339911050e-03
2.99361764705882e+00 8.06708341194273e-02 1.05613838543431e-03
3.00316666666667e+00 8.01266930480062e-02 1.05068626246087e-03
3.01271568627451e+00 7.95862223179595e-02 1.04525700111659e-03
