Energy (eV)          EEDF (eV^-(3/2))     First Anisotropy
3.75000000000000e-02 4.82683092842262e-01 6.25250114935789e-04
1.12500000000000e-01 4.62268359307399e-01 1.01404096635304e-03
1.87500000000000e-01 4.42717052214247e-01 1.29071002325973e-03
2.62500000000000e-01 4.23992653563692e-01 1.47374867180765e-03
3.37500000000000e-01 4.06060189859113e-01 1.60533069552124e-03
4.12500000000000e-01 3.88886166782724e-01 1.70233037963740e-03
4.87500000000000e-01 3.72438506634776e-01 1.77393011335453e-03
5.62500000000000e-01 3.56686488418709e-01 1.82592839202492e-03
6.37500000000000e-01 3.41600690460374e-01 1.86232570134204e-03
7.12500000000000e-01 3.27152935454126e-01 1.88604839705992e-03
7.87500000000000e-01 3.13316237833152e-01 1.89932735894150e-03
8.62500000000000e-01 3.00064753365740e-01 1.90391584555481e-03
9.37500000000000e-01 2.87373730883333e-01 1.90122402595714e-03
1.01250000000000e+00 2.75219466050208e-01 1.89240674519353e-03
1.08750000000000e+00 2.63579257088439e-01 1.87842335257656e-03
1.16250000000000e+00 2.52431362375433e-01 1.86007998120074e-03
1.23750000000000e+00 2.41754959834857e-01 1.83806033801108e-03
1.31250000000000e+00 2.31530108045091e-01 1.81294870506545e-03
1.38750000000000e+00 2.21737708992568e-01 1.78524750145356e-03
1.46250000000000e+00 2.12359472400442e-01 1.75539094781600e-03
1.53750000000000e+00 2.03377881565943e-01 1.72375587494800e-03
1.61250000000000e+00 1.94776160642621e-01 1.69067039788049e-03
1.68750000000000e+00 1.86538243306361e-01 1.65642096636169e-03
1.76250000000000e+00 1.78648742746646e-01 1.62125816084451e-03
1.83750000000000e+00 1.71092922927023e-01 1.58540150541774e-03
1.91250000000000e+00 1.63856671061077e-01 1.54904350052526e-03
1.98750000000000e+00 1.56926471252525e-01 1.51235302928253e-03
2.06250000000000e+00 1.50289379250177e-01 1.47547825557771e-03
2.13750000000000e+00 1.43932998270615e-01 1.43854910588334e-03
2.21250000000000e+00 1.37845455843445e-01 1.40167940708236e-03
2.28750000000000e+00 1.32015381635848e-01 1.36496873776695e-03
2.36250000000000e+00 1.26431886215038e-01 1.32850403910828e-03
2.43750000000000e+00 1.21084540708943e-01 1.29236102260898e-03
2.51250000000000e+00 1.15963357327115e-01 1.25660540518717e-03
2.58750000000000e+00 1.11058770705507e-01 1.22129399663019e-03
2.66250000000000e+00 1.06361620040251e-01 1.18647566015446e-03
2.73750000000000e+00 1.01863131977074e-01 1.15219216335930e-03
2.81250000000000e+00 9.75549042244007e-02 1.11847893407759e-03
2.88750000000000e+00 9.34288898595222e-02 1.08536573336028e-03
2.96250000000000e+00 8.94773822985254e-02 1.05287725597694e-03
3.03750000000000e+00 8.56930009019098e-02 1.02103366728532e-03
3.11250000000000e+00 8.20686771890033e-02 9.89851084055615e-04
3.18750000000000e+00 7.85976416354292e-02 9.59342005778358e-04
3.26250000000000e+00 7.52734110289659e-02 9.29515702099212e-04
3.33750000000000e+00 7.20897763601798e-02 9.00378561277741e-04
3.41250000000000e+00 6.90407912252164e-02 8.71934403935691e-04
3.48750000000000e+00 6.61207607190867e-02 8.44184765823300e-04
3.56250000000000e+00 6.33242307987036e-02 8.17129152873388e-04
3.63750000000000e+00 6.06459780958018e-02 7.90765271419783e-04
3.71250000000000e+00 5.80810001607121e-02 7.65089236117981e-04
3.78750000000000e+00 5.56245061187686e-02 7.40095757813345e-04
3.86250000000000e+00 5.32719077218969e-02 7.15778313348513e-04
3.93750000000000e+00 5.10188107786676e-02 6.92129299080913e-04
4.01250000000000e+00 4.88610069468112e-02 6.69140169688603e-04
4.08750000000000e+00 4.67944658728614e-02 6.46801563674102e-04
4.16250000000000e+00 4.48153276642469e-02 6.25103416827595e-04
4.23750000000000e+00 4.29198956797710e-02 6.04035064780668e-04
4.31250000000000e+00 4.11046296250120e-02 5.83585335666575e-04
4.38750000000000e+00 3.93661389397494e-02 5.63742633801214e-04
4.46250000000000e+00 3.77011764650635e-02 5.44495015208617e-04
4.53750000000000e+00 3.61066323782808e-02 5.25830255734429e-04
4.61250000000000e+00 3.45795283844366e-02 5.07735912419355e-04
4.68750000000000e+00 3.31170121534051e-02 4.90199378740631e-04
4.76250000000000e+00 3.17163519923076e-02 4.73207934272390e-04
4.83750000000000e+00 3.03749317432468e-02 4.56748789264690e-04
4.91250000000000e+00 2.90902458968382e-02 4.40809124594936e-04
4.98750000000000e+00 2.78598949124109e-02 4.25376127504059e-04
5.06250000000000e+00 2.66815807361374e-02 4.10437023492700e-04
5.13750000000000e+00 2.55531025087207e-02 3.95979104718975e-04
5.21250000000000e+00 2.44723524546212e-02 3.81989755209077e-04
5.28750000000000e+00 2.34373119451469e-02 3.68456473164634e-04
5.36250000000000e+00 2.24460477280516e-02 3.55366890625765e-04
5.43750000000000e+00 2.14967083165992e-02 3.42708790726344e-04
5.51250000000000e+00 2.05875205313509e-02 3.30470122757534e-04
5.58750000000000e+00 1.97167861882144e-02 3.18639015237000e-04
5.66250000000000e+00 1.88828789265694e-02 3.07203787164413e-04
5.73750000000000e+00 1.80842411715462e-02 2.96152957628382e-04
5.81250000000000e+00 1.73193812247814e-02 2.85475253915929e-04
5.88750000000000e+00 1.65868704782188e-02 2.75159618262909e-04
5.96250000000000e+00 1.58853407457506e-02 2.65195213371998e-04
6.03750000000000e+00 1.52134817077140e-02 2.55571426814236e-04
6.11250000000000e+00 1.45700384634723e-02 2.46277874420392e-04
6.18750000000000e+00 1.39538091875065e-02 2.37304402759429e-04
6.26250000000000e+00 1.33636428846419e-02 2.28641090793214e-04
6.33750000000000e+00 1.27984372402152e-02 2.20278250789136e-04
6.41250000000000e+00 1.22571365611673e-02 2.12206428565405e-04
6.48750000000000e+00 1.17387298042162e-02 2.04416403137555e-04
6.56250000000000e+00 1.12422486874267e-02 1.96899185828849e-04
6.63750000000000e+00 1.07667658816504e-02 1.89646018902064e-04
6.71250000000000e+00 1.03113932784568e-02 1.82648373765191e-04
6.78750000000000e+00 9.87528033132132e-03 1.75897948799176e-04
6.86250000000000e+00 9.45761246697176e-03 1.69386666851714e-04
6.93750000000000e+00 9.05760956392533e-03 1.63106672437307e-04
7.01250000000000e+00 8.67452449537511e-03 1.57050328680384e-04
7.08750000000000e+00 8.30764173370402e-03 1.51210214035046e-04
7.16250000000000e+00 7.95627601401987e-03 1.45579118812104e-04
7.23750000000000e+00 7.61977105421518e-03 1.40150041541368e-04
7.31250000000000e+00 7.29749832916123e-03 1.34916185194659e-04
7.38750000000000e+00 6.98885589674661e-03 1.29870953292769e-04
7.46250000000000e+00 6.69326727356770e-03 1.25007945917458e-04
7.53750000000000e+00 6.41018035817096e-03 1.20320955647673e-04
7.61250000000000e+00 6.13906639983591e-03 1.15803963437398e-04
7.68750000000000e+00 5.87941901097272e-03 1.11451134450902e-04
7.76250000000000e+00 5.63075322128971e-03 1.07256813869662e-04
7.83750000000000e+00 5.39260457196415e-03 1.03215522683859e-04
7.91250000000000e+00 5.16452824812449e-03 9.93219534800672e-05
7.98750000000000e+00 4.94609824802357e-03 9.55709662355916e-05
8.06250000000000e+00 4.73690658735113e-03 9.19575841288609e-05
8.13750000000000e+00 4.53656253719923e-03 8.84769893742645e-05
8.21250000000000e+00 4.34469189425752e-03 8.51245190889427e-05
8.28750000000000e+00 4.16093628187496e-03 8.18956611982053e-05
8.36250000000000e+00 3.98495248068268e-03 7.87860503854842e-05
8.43750000000000e+00 3.81641178752764e-03 7.57914640920388e-05
8.51250000000000e+00 3.65499940151977e-03 7.29078185709936e-05
8.58750000000000e+00 3.50041383604576e-03 7.01311649996935e-05
8.66250000000000e+00 3.35236635565132e-03 6.74576856538321e-05
8.73750000000000e+00 3.21058043674011e-03 6.48836901463172e-05
8.81250000000000e+00 3.07479125108199e-03 6.24056117333935e-05
8.88750000000000e+00 2.94474517116597e-03 6.00200036901270e-05
8.96250000000000e+00 2.82019929647382e-03 5.77235357569892e-05
9.03750000000000e+00 2.70092099978968e-03 5.55129906589370e-05
9.11250000000000e+00 2.58668749269813e-03 5.33852606980744e-05
9.18750000000000e+00 2.47728540945920e-03 5.13373444207028e-05
9.26250000000000e+00 2.37251040848313e-03 4.93663433593140e-05
9.33750000000000e+00 2.27216679066042e-03 4.74694588498483e-05
9.41250000000000e+00 2.17606713383435e-03 4.56439889243248e-05
9.48750000000000e+00 2.08403194273328e-03 4.38873252787791e-05
9.56250000000000e+00 1.99588931370867e-03 4.21969503162585e-05
9.63750000000000e+00 1.91147461365293e-03 4.05704342644803e-05
9.71250000000000e+00 1.83063017249710e-03 3.90054323676245e-05
9.78750000000000e+00 1.75320498871414e-03 3.74996821516048e-05
9.86250000000000e+00 1.67905444727779e-03 3.60510007620610e-05
9.93750000000000e+00 1.60804004955007e-03 3.46572823742171e-05
1.00125000000000e+01 1.54002915459310e-03 3.33164956736627e-05
1.00875000000000e+01 1.47489473142185e-03 3.20266814070470e-05
1.01625000000000e+01 1.41251512173527e-03 3.07859500016092e-05
1.02375000000000e+01 1.35277381268246e-03 2.95924792524108e-05
1.03125000000000e+01 1.29555921923957e-03 2.84445120760923e-05
1.03875000000000e+01 1.24076447579093e-03 2.73403543299336e-05
1.04625000000000e+01 1.18828723652504e-03 2.62783726949666e-05
1.05375000000000e+01 1.13802948427277e-03 2.52569926218623e-05
1.06125000000000e+01 1.08989734743049e-03 2.42746963382890e-05
1.06875000000000e+01 1.04380092462639e-03 2.33300209164265e-05
1.07625000000000e+01 9.99654116802410e-04 2.24215563993072e-05
1.08375000000000e+01 9.57374466398070e-04 2.15479439846487e-05
1.09125000000000e+01 9.16883003335998e-04 2.07078742648379e-05
1.09875000000000e+01 8.78104097521328e-04 1.99000855217273e-05
1.10625000000000e+01 8.40965317579546e-04 1.91233620749052e-05
1.11375000000000e+01 8.05397295568923e-04 1.83765326821112e-05
1.12125000000000e+01 7.71333597414828e-04 1.76584689904714e-05
1.12875000000000e+01 7.38710598823939e-04 1.69680840372427e-05
1.13625000000000e+01 7.07467366446564e-04 1.63043307987649e-05
1.14375000000000e+01 6.77545544065121e-04 1.56662007863369e-05
1.15125000000000e+01 6.48889243596191e-04 1.50527226877441e-05
1.15875000000000e+01 6.21444940702567e-04 1.44629610531869e-05
1.16625000000000e+01 5.95161374820305e-04 1.38960150243748e-05
1.17375000000000e+01 5.69989453414071e-04 1.33510171055719e-05
1.18125000000000e+01 5.45882160281929e-04 1.28271319753984e-05
1.18875000000000e+01 5.22794467738321e-04 1.23235553382165e-05
1.19625000000000e+01 5.00683252511196e-04 1.18395128139477e-05
1.20375000000000e+01 4.79507215196216e-04 1.13742588651931e-05
1.21125000000000e+01 4.59226803117584e-04 1.09270757605502e-05
1.21875000000000e+01 4.39804136451417e-04 1.04972725730442e-05
1.22625000000000e+01 4.21202937473688e-04 1.00841842126111e-05
1.23375000000000e+01 4.03388462800556e-04 9.68717049159912e-06
1.24125000000000e+01 3.86327438494563e-04 9.30561522227516e-06
1.24875000000000e+01 3.69987997915454e-04 8.93892534534593e-06
1.25625000000000e+01 3.54339622199557e-04 8.58653008853028e-06
1.26375000000000e+01 3.39353083256544e-04 8.24788015424013e-06
1.27125000000000e+01 3.25000389177099e-04 7.92244693545174e-06
1.27875000000000e+01 3.11254731949542e-04 7.60972175887301e-06
1.28625000000000e+01 2.98090437387722e-04 7.30921515453512e-06
1.29375000000000e+01 2.85482917176688e-04 7.02045615095905e-06
1.30125000000000e+01 2.73408622946550e-04 6.74299159507132e-06
1.30875000000000e+01 2.61845002288749e-04 6.47638549606540e-06
1.31625000000000e+01 2.50770456632594e-04 6.22021839242697e-06
1.32375000000000e+01 2.40164300903373e-04 5.97408674136267e-06
1.33125000000000e+01 2.30006724886704e-04 5.73760232989404e-06
1.33875000000000e+01 2.20278756226941e-04 5.51039170689932e-06
1.34625000000000e+01 2.10962224990548e-04 5.29209563540576e-06
1.35375000000000e+01 2.02039729728235e-04 5.08236856445595e-06
1.36125000000000e+01 1.93494604972463e-04 4.88087811989150e-06
1.36875000000000e+01 1.85310890109637e-04 4.68730461341621e-06
1.37625000000000e+01 1.77473299568807e-04 4.50134056932130e-06
1.38375000000000e+01 1.69967194271231e-04 4.32269026827236e-06
1.39125000000000e+01 1.62778554287453e-04 4.15106930757659e-06
1.39875000000000e+01 1.55893952650827e-04 3.98620417736715e-06
1.40625000000000e+01 1.49300530278587e-04 3.82783185215808e-06
1.41375000000000e+01 1.42985971953600e-04 3.67569939724046e-06
1.42125000000000e+01 1.36938483321972e-04 3.52956358940742e-06
1.42875000000000e+01 1.31146768863502e-04 3.38919055151132e-06
1.43625000000000e+01 1.25600010793877e-04 3.25435540037212e-06
1.44375000000000e+01 1.20287848859174e-04 3.12484190757162e-06
1.45125000000000e+01 1.15200360984945e-04 3.00044217268308e-06
1.45875000000000e+01 1.10328044743726e-04 2.88095630850017e-06
1.46625000000000e+01 1.05661799606378e-04 2.76619213784306e-06
1.47375000000000e+01 1.01192909944081e-04 2.65596490153403e-06
1.48125000000000e+01 9.69130287492542e-05 2.55009697714750e-06
1.48875000000000e+01 9.28141620449877e-05 2.44841760815267e-06
1.49625000000000e+01 8.88886539538631e-05 2.35076264307990e-06
1.50375000000000e+01 8.51291723982797e-05 2.25697428435362e-06
1.51125000000000e+01 8.15286954055745e-05 2.16690084644699e-06
1.51875000000000e+01 7.80804979923576e-05 2.08039652302482e-06
1.52625000000000e+01 7.47781396035648e-05 1.99732116275255e-06
1.53375000000000e+01 7.16154520827665e-05 1.91754005345992e-06
1.54125000000000e+01 6.85865281512636e-05 1.84092371435853e-06
1.54875000000000e+01 6.56857103744525e-05 1.76734769602288e-06
1.55625000000000e+01 6.29075805948485e-05 1.69669238785411e-06
1.56375000000000e+01 6.02469498120327e-05 1.62884283275538e-06
1.57125000000000e+01 5.76988484906194e-05 1.56368854875746e-06
1.57875000000000e+01 5.52585172781401e-05 1.50112335734159e-06
1.58625000000000e+01 5.29213981155091e-05 1.44104521821575e-06
1.59375000000000e+01 5.06831257234645e-05 1.38335607030894e-06
1.60125000000000e+01 4.85395194490847e-05 1.32796167875613e-06
1.60875000000000e+01 4.64865754571504e-05 1.27477148765455e-06
1.61625000000000e+01 4.45204592517673e-05 1.22369847837974e-06
1.62375000000000e+01 4.26374985142811e-05 1.17465903325700e-06
1.63125000000000e+01 4.08341762441087e-05 1.12757280439125e-06
1.63875000000000e+01 3.91071241896717e-05 1.08236258746531e-06
1.64625000000000e+01 3.74531165571645e-05 1.03895420032307e-06
1.65375000000000e+01 3.58690639854060e-05 9.97276366160861e-07
1.66125000000000e+01 3.43520077755194e-05 9.57260601156215e-07
1.66875000000000e+01 3.28991143646646e-05 9.18841106369848e-07
1.67625000000000e+01 3.15076700334997e-05 8.81954663761940e-07
1.68375000000000e+01 3.01750758374865e-05 8.46540536169938e-07
1.69125000000000e+01 2.88988427525728e-05 8.12540371100401e-07
1.69875000000000e+01 2.76765870261852e-05 7.79898108192700e-07
1.70625000000000e+01 2.65060257248469e-05 7.48559890217542e-07
1.71375000000000e+01 2.53849724701076e-05 7.18473977478244e-07
1.72125000000000e+01 2.43113333548174e-05 6.89590665487459e-07
1.72875000000000e+01 2.32831030321206e-05 6.61862205796632e-07
1.73625000000000e+01 2.22983609698610e-05 6.35242729859932e-07
1.74375000000000e+01 2.13552678634063e-05 6.09688175818763e-07
1.75125000000000e+01 2.04520622001876e-05 5.85156218097025e-07
1.75875000000000e+01 1.95870569695408e-05 5.61606199701342e-07
1.76625000000000e+01 1.87586365117019e-05 5.38999067124362e-07
1.77375000000000e+01 1.79652535000721e-05 5.17297307752920e-07
1.78125000000000e+01 1.72054260511161e-05 4.96464889686516e-07
1.78875000000000e+01 1.64777349564946e-05 4.76467203874975e-07
1.79625000000000e+01 1.57808210322621e-05 4.57271008487512e-07
1.80375000000000e+01 1.51133825801786e-05 4.38844375428764e-07
1.81125000000000e+01 1.44741729563930e-05 4.21156638920304e-07
1.81875000000000e+01 1.38619982429574e-05 4.04178346069291e-07
1.82625000000000e+01 1.32757150178230e-05 3.87881209348767e-07
1.83375000000000e+01 1.27142282191525e-05 3.72238060916889e-07
1.84125000000000e+01 1.21764890999598e-05 3.57222808705134e-07
1.84875000000000e+01 1.16614932692565e-05 3.42810394208069e-07
1.85625000000000e+01 1.11682788160477e-05 3.28976751909814e-07
1.86375000000000e+01 1.06959245126701e-05 3.15698770284738e-07
1.87125000000000e+01 1.02435480941211e-05 3.02954254312254e-07
1.87875000000000e+01 9.81030461016004e-06 2.90721889447822e-07
1.88625000000000e+01 9.39538484710801e-06 2.78981206994466e-07
1.89375000000000e+01 8.99801381639533e-06 2.67712550821151e-07
1.90125000000000e+01 8.61744930703534e-06 2.56897045376419e-07
1.90875000000000e+01 8.25298049932015e-06 2.46516564947584e-07
1.91625000000000e+01 7.90392663714909e-06 2.36553704117696e-07
1.92375000000000e+01 7.56963575651016e-06 2.26991749374241e-07
1.93125000000000e+01 7.24948346773938e-06 2.17814651825323e-07
1.93875000000000e+01 6.94287178928357e-06 2.09007000980679e-07
1.94625000000000e+01 6.64922803078838e-06 2.00553999556559e-07
1.95375000000000e+01 6.36800372342525e-06 1.92441439265019e-07
1.96125000000000e+01 6.09867359545944e-06 1.84655677549644e-07
1.96875000000000e+01 5.84073459114565e-06 1.77183615231204e-07
1.97625000000000e+01 5.59370493111878e-06 1.70012675028108e-07
1.98375000000000e+01 5.35712321252473e-06 1.63130780917831e-07
1.99125000000000e+01 5.13054754721061e-06 1.56526338306811e-07
1.99875000000000e+01 4.91355473636443e-06 1.50188214977539e-07
2.00625000000000e+01 4.70573948006300e-06 1.44105722782740e-07
2.01375000000000e+01 4.50671362025125e-06 1.38268600057695e-07
2.02125000000000e+01 4.31610541573929e-06 1.32666994722889e-07
2.02875000000000e+01 4.13355884786295e-06 1.27291448050166e-07
2.03625000000000e+01 3.95873295551087e-06 1.22132879066662e-07
2.04375000000000e+01 3.79130119827616e-06 1.17182569571740e-07
2.05125000000000e+01 3.63095084654310e-06 1.12432149743097e-07
2.05875000000000e+01 3.47738239736967e-06 1.07873584309132e-07
2.06625000000000e+01 3.33030901507493e-06 1.03499159265540e-07
2.07375000000000e+01 3.18945599548633e-06 9.93014691149502e-08
2.08125000000000e+01 3.05456025284634e-06 9.52734046092212e-08
2.08875000000000e+01 2.92536982841991e-06 9.14081409748084e-08
2.09625000000000e+01 2.80164341988510e-06 8.76991266023601e-08
2.10375000000000e+01 2.68314993062778e-06 8.41400721824269e-08
2.11125000000000e+01 2.56966803809856e-06 8.07249402698686e-08
2.11875000000000e+01 2.46098578042574e-06 7.74479352602093e-08
2.12625000000000e+01 2.35690016051225e-06 7.43034937618405e-08
2.13375000000000e+01 2.25721676687693e-06 7.12862753485938e-08
2.14125000000000e+01 2.16174941053208e-06 6.83911536777973e-08
2.14875000000000e+01 2.07031977721907e-06 6.56132079595133e-08
2.15625000000000e+01 1.98275709435232e-06 6.29477147631951e-08
2.16375000000000e+01 1.89889781204967e-06 6.03901401485503e-08
2.17125000000000e+01 1.81858529765336e-06 5.79361321078953e-08
2.17875000000000e+01 1.74166954317100e-06 5.55815133077814e-08
2.18625000000000e+01 1.66800688509012e-06 5.33222741181530e-08
2.19375000000000e+01 1.59745973604299e-06 5.11545659177452e-08
2.20125000000000e+01 1.52989632782041e-06 4.90746946648724e-08
2.20875000000000e+01 1.46519046525463e-06 4.70791147231769e-08
2.21625000000000e+01 1.40322129051158e-06 4.51644229323153e-08
2.22375000000000e+01 1.34387305735217e-06 4.33273529139489e-08
2.23125000000000e+01 1.28703491494107e-06 4.15647696037743e-08
2.23875000000000e+01 1.23260070079914e-06 3.98736640007008e-08
2.24625000000000e+01 1.18046874251278e-06 3.82511481246201e-08
2.25375000000000e+01 1.13054166782985e-06 3.66944501745480e-08
2.26125000000000e+01 1.08272622278744e-06 3.52009098792405e-08
2.26875000000000e+01 1.03693309753179e-06 3.37679740326944e-08
2.27625000000000e+01 9.93076759505023e-07 3.23931922072382e-08
2.28375000000000e+01 9.51075293687176e-07 3.10742126372035e-08
2.29125000000000e+01 9.10850249595004e-07 2.98087782664425e-08
2.29875000000000e+01 8.72326494751914e-07 2.85947229532178e-08
2.30625000000000e+01 8.35432074355260e-07 2.74299678262482e-08
2.31375000000000e+01 8.00098076878917e-07 2.63125177859341e-08
2.32125000000000e+01 7.66258505360090e-07 2.52404581450202e-08
2.32875000000000e+01 7.33850154129961e-07 2.42119514031803e-08
2.33625000000000e+01 7.02812490757923e-07 2.32252341502233e-08
2.34375000000000e+01 6.73087542988892e-07 2.22786140928291e-08
2.35125000000000e+01 6.44619790462534e-07 2.13704671999195e-08
2.35875000000000e+01 6.17356061012138e-07 2.04992349619662e-08
2.36625000000000e+01 5.91245431349466e-07 1.96634217597196e-08
