Energy (eV)          EEDF (eV^-(3/2))     First Anisotropy
3.72083333333333e-04 2.67524350073029e+02 0.00000000000000e+00
1.11625000000000e-03 2.59932749270426e+02 0.00000000000000e+00
1.86041666666667e-03 2.52556577092259e+02 0.00000000000000e+00
2.60458333333333e-03 2.45389720270286e+02 0.00000000000000e+00
3.34875000000000e-03 2.38426239013889e+02 0.00000000000000e+00
4.09291666666667e-03 2.31660362087267e+02 0.00000000000000e+00
4.83708333333333e-03 2.25086482026324e+02 0.00000000000000e+00
5.58125000000000e-03 2.18699150491275e+02 0.00000000000000e+00
6.32541666666667e-03 2.12493073751144e+02 0.00000000000000e+00
7.06958333333333e-03 2.06463108296392e+02 0.00000000000000e+00
7.81375000000000e-03 2.00604256576049e+02 0.00000000000000e+00
8.55791666666667e-03 1.94911662855811e+02 0.00000000000000e+00
9.30208333333333e-03 1.89380609193679e+02 0.00000000000000e+00
1.00462500000000e-02 1.84006511529794e+02 0.00000000000000e+00
1.07904166666667e-02 1.78784915887229e+02 0.00000000000000e+00
1.15345833333333e-02 1.73711494680600e+02 0.00000000000000e+00
1.22787500000000e-02 1.68782043129421e+02 0.00000000000000e+00
1.30229166666667e-02 1.63992475773240e+02 0.00000000000000e+00
1.37670833333333e-02 1.59338823085670e+02 0.00000000000000e+00
1.45112500000000e-02 1.54817228184498e+02 0.00000000000000e+00
1.52554166666667e-02 1.50423943635156e+02 0.00000000000000e+00
1.59995833333333e-02 1.46155328344900e+02 0.00000000000000e+00
1.67437500000000e-02 1.42007844545122e+02 0.00000000000000e+00
1.74879166666667e-02 1.37978054859300e+02 0.00000000000000e+00
1.82320833333333e-02 1.34062619454144e+02 0.00000000000000e+00
1.89762500000000e-02 1.30258293271594e+02 0.00000000000000e+00
1.97204166666667e-02 1.26561923339355e+02 0.00000000000000e+00
2.04645833333333e-02 1.22970446157764e+02 0.00000000000000e+00
2.12087500000000e-02 1.19480885160800e+02 0.00000000000000e+00
2.19529166666667e-02 1.16090348249151e+02 0.00000000000000e+00
2.26970833333333e-02 1.12796025393281e+02 0.00000000000000e+00
2.34412500000000e-02 1.09595186304514e+02 0.00000000000000e+00
2.41854166666667e-02 1.06485178172214e+02 0.00000000000000e+00
2.49295833333333e-02 1.03463423465171e+02 0.00000000000000e+00
2.56737500000000e-02 1.00527417795376e+02 0.00000000000000e+00
2.64179166666667e-02 9.76747278424247e+01 0.00000000000000e+00
2.71620833333333e-02 9.49029893368112e+01 0.00000000000000e+00
2.79062500000000e-02 9.22099051004566e+01 0.00000000000000e+00
2.86504166666667e-02 8.95932431428392e+01 0.00000000000000e+00
2.93945833333333e-02 8.70508348111526e+01 0.00000000000000e+00
3.01387500000000e-02 8.45805729929561e+01 0.00000000000000e+00
3.08829166666667e-02 8.21804103698297e+01 0.00000000000000e+00
3.16270833333333e-02 7.98483577205851e+01 0.00000000000000e+00
3.23712500000000e-02 7.75824822726269e+01 0.00000000000000e+00
3.31154166666667e-02 7.53809061000982e+01 0.00000000000000e+00
3.38595833333333e-02 7.32418045674811e+01 0.00000000000000e+00
3.46037500000000e-02 7.11634048173655e+01 0.00000000000000e+00
3.53479166666667e-02 6.91439843011285e+01 0.00000000000000e+00
3.60920833333333e-02 6.71818693513110e+01 0.00000000000000e+00
3.68362500000000e-02 6.52754337945052e+01 0.00000000000000e+00
3.75804166666667e-02 6.34230976036050e+01 0.00000000000000e+00
3.83245833333333e-02 6.16233255883013e+01 0.00000000000000e+00
3.90687500000000e-02 5.98746261227383e+01 0.00000000000000e+00
3.98129166666667e-02 5.81755499092745e+01 0.00000000000000e+00
4.05570833333333e-02 5.65246887773252e+01 0.00000000000000e+00
4.13012500000000e-02 5.49206745162905e+01 0.00000000000000e+00
4.20454166666667e-02 5.33621777416012e+01 0.00000000000000e+00
4.27895833333333e-02 5.18479067929438e+01 0.00000000000000e+00
4.35337500000000e-02 5.03766066637507e+01 0.00000000000000e+00
4.42779166666667e-02 4.89470579610675e+01 0.00000000000000e+00
4.50220833333333e-02 4.75580758949381e+01 0.00000000000000e+00
4.57662500000000e-02 4.62085092964670e+01 0.00000000000000e+00
4.65104166666667e-02 4.48972396637463e+01 0.00000000000000e+00
4.72545833333333e-02 4.36231802348577e+01 0.00000000000000e+00
4.79987500000000e-02 4.23852750871787e+01 0.00000000000000e+00
4.87429166666667e-02 4.11824982622492e+01 0.00000000000000e+00
4.94870833333333e-02 4.00138529154714e+01 0.00000000000000e+00
5.02312500000000e-02 3.88783704899386e+01 0.00000000000000e+00
5.09754166666667e-02 3.77751099137092e+01 0.00000000000000e+00
5.17195833333333e-02 3.67031568198595e+01 0.00000000000000e+00
5.24637500000000e-02 3.56616227886688e+01 0.00000000000000e+00
5.32079166666667e-02 3.46496446113097e+01 0.00000000000000e+00
5.39520833333333e-02 3.36663835744329e+01 0.00000000000000e+00
5.46962500000000e-02 3.27110247650533e+01 0.00000000000000e+00
5.54404166666667e-02 3.17827763951613e+01 0.00000000000000e+00
5.61845833333333e-02 3.08808691455000e+01 0.00000000000000e+00
5.69287500000000e-02 3.00045555279644e+01 0.00000000000000e+00
5.76729166666667e-02 2.91531092660936e+01 0.00000000000000e+00
5.84170833333333e-02 2.83258246931429e+01 0.00000000000000e+00
5.91612500000000e-02 2.75220161672373e+01 0.00000000000000e+00
5.99054166666667e-02 2.67410175031211e+01 0.00000000000000e+00
6.06495833333333e-02 2.59821814200325e+01 0.00000000000000e+00
6.13937500000000e-02 2.52448790052469e+01 0.00000000000000e+00
6.21379166666667e-02 2.45284991928426e+01 0.00000000000000e+00
6.28820833333333e-02 2.38324482572578e+01 0.00000000000000e+00
6.36262500000000e-02 2.31561493212192e+01 0.00000000000000e+00
6.43704166666667e-02 2.24990418776346e+01 0.00000000000000e+00
6.51145833333333e-02 2.18605813250517e+01 0.00000000000000e+00
6.58587500000000e-02 2.12402385163009e+01 0.00000000000000e+00
6.66029166666667e-02 2.06374993199447e+01 0.00000000000000e+00
6.73470833333333e-02 2.00518641941735e+01 0.00000000000000e+00
6.80912500000000e-02 1.94828477727918e+01 0.00000000000000e+00
6.88354166666667e-02 1.89299784629538e+01 0.00000000000000e+00
6.95795833333333e-02 1.83927980543137e+01 0.00000000000000e+00
7.03237500000000e-02 1.78708613392673e+01 0.00000000000000e+00
7.10679166666667e-02 1.73637357439706e+01 0.00000000000000e+00
7.18120833333333e-02 1.68710009698282e+01 0.00000000000000e+00
7.25562500000000e-02 1.63922486451556e+01 0.00000000000000e+00
7.33004166666667e-02 1.59270819867271e+01 0.00000000000000e+00
7.40445833333333e-02 1.54751154709269e+01 0.00000000000000e+00
7.47887500000000e-02 1.50359745142325e+01 0.00000000000000e+00
7.55329166666667e-02 1.46092951627654e+01 0.00000000000000e+00
7.62770833333333e-02 1.41947237906513e+01 0.00000000000000e+00
7.70212500000000e-02 1.37919168069392e+01 0.00000000000000e+00
7.77654166666667e-02 1.34005403708391e+01 0.00000000000000e+00
7.85095833333333e-02 1.30202701150386e+01 0.00000000000000e+00
7.92537500000000e-02 1.26507908768721e+01 0.00000000000000e+00
7.99979166666667e-02 1.22917964371183e+01 0.00000000000000e+00
8.07420833333333e-02 1.19429892662103e+01 0.00000000000000e+00
8.14862500000000e-02 1.16040802776468e+01 0.00000000000000e+00
8.22304166666667e-02 1.12747885884017e+01 0.00000000000000e+00
8.29745833333333e-02 1.09548412861319e+01 0.00000000000000e+00
8.37187500000000e-02 1.06439732029912e+01 0.00000000000000e+00
8.44629166666667e-02 1.03419266958635e+01 0.00000000000000e+00
8.52070833333333e-02 1.00484514328313e+01 0.00000000000000e+00
8.59512500000000e-02 9.76330418570405e+00 0.00000000000000e+00
8.66954166666667e-02 9.48624862843448e+00 0.00000000000000e+00
8.74395833333333e-02 9.21705514125451e+00 0.00000000000000e+00
8.81837500000000e-02 8.95550062036969e+00 0.00000000000000e+00
8.89279166666667e-02 8.70136829305396e+00 0.00000000000000e+00
8.96720833333333e-02 8.45444753799138e+00 0.00000000000000e+00
9.04162500000000e-02 8.21453371071616e+00 0.00000000000000e+00
9.11604166666667e-02 7.98142797400620e+00 0.00000000000000e+00
9.19045833333333e-02 7.75493713308956e+00 0.00000000000000e+00
9.26487500000000e-02 7.53487347552734e+00 0.00000000000000e+00
9.33929166666667e-02 7.32105461564028e+00 0.00000000000000e+00
9.41370833333333e-02 7.11330334335000e+00 0.00000000000000e+00
9.48812500000000e-02 6.91144747730979e+00 0.00000000000000e+00
9.56254166666667e-02 6.71531972220316e+00 0.00000000000000e+00
9.63695833333333e-02 6.52475753009175e+00 0.00000000000000e+00
9.71137500000000e-02 6.33960296569794e+00 0.00000000000000e+00
9.78579166666667e-02 6.15970257551025e+00 0.00000000000000e+00
9.86020833333333e-02 5.98490726060327e+00 0.00000000000000e+00
9.93462500000000e-02 5.81507215306652e+00 0.00000000000000e+00
1.00090416666667e-01 5.65005649593994e+00 0.00000000000000e+00
1.00834583333333e-01 5.48972352655656e+00 0.00000000000000e+00
1.01578750000000e-01 5.33394036319542e+00 0.00000000000000e+00
1.02322916666667e-01 5.18257789495116e+00 0.00000000000000e+00
1.03067083333333e-01 5.03551067472861e+00 0.00000000000000e+00
1.03811250000000e-01 4.89261681527409e+00 0.00000000000000e+00
1.04555416666667e-01 4.75377788815687e+00 0.00000000000000e+00
1.05299583333333e-01 4.61887882561741e+00 0.00000000000000e+00
1.06043750000000e-01 4.48780782520079e+00 0.00000000000000e+00
1.06787916666667e-01 4.36045625709639e+00 0.00000000000000e+00
1.07532083333333e-01 4.23671857410702e+00 0.00000000000000e+00
1.08276250000000e-01 4.11649222417292e+00 0.00000000000000e+00
1.09020416666667e-01 3.99967756537800e+00 0.00000000000000e+00
1.09764583333333e-01 3.88617778336804e+00 0.00000000000000e+00
1.10508750000000e-01 3.77589881111229e+00 0.00000000000000e+00
1.11252916666667e-01 3.66874925094208e+00 0.00000000000000e+00
1.11997083333333e-01 3.56464029880163e+00 0.00000000000000e+00
1.12741250000000e-01 3.46348567064858e+00 0.00000000000000e+00
1.13485416666667e-01 3.36520153094291e+00 0.00000000000000e+00
1.14229583333333e-01 3.26970642316527e+00 0.00000000000000e+00
1.14973750000000e-01 3.17692120230690e+00 0.00000000000000e+00
1.15717916666667e-01 3.08676896927544e+00 0.00000000000000e+00
1.16462083333333e-01 2.99917500716196e+00 0.00000000000000e+00
1.17206250000000e-01 2.91406671931665e+00 0.00000000000000e+00
1.17950416666667e-01 2.83137356918176e+00 0.00000000000000e+00
1.18694583333333e-01 2.75102702183188e+00 0.00000000000000e+00
1.19438750000000e-01 2.67296048717313e+00 0.00000000000000e+00
1.20182916666667e-01 2.59710926475422e+00 0.00000000000000e+00
1.20927083333333e-01 2.52341049014367e+00 0.00000000000000e+00
1.21671250000000e-01 2.45180308282860e+00 0.00000000000000e+00
1.22415416666667e-01 2.38222769559208e+00 0.00000000000000e+00
1.23159583333333e-01 2.31462666532697e+00 0.00000000000000e+00
1.23903750000000e-01 2.24894396524556e+00 0.00000000000000e+00
1.24647916666667e-01 2.18512515844535e+00 0.00000000000000e+00
1.25392083333333e-01 2.12311735279249e+00 0.00000000000000e+00
1.26136250000000e-01 2.06286915708556e+00 0.00000000000000e+00
1.26880416666667e-01 2.00433063846321e+00 0.00000000000000e+00
1.27624583333333e-01 1.94745328102053e+00 0.00000000000000e+00
1.28368750000000e-01 1.89218994559976e+00 0.00000000000000e+00
1.29112916666667e-01 1.83849483072199e+00 0.00000000000000e+00
1.29857083333333e-01 1.78632343462755e+00 0.00000000000000e+00
1.30601250000000e-01 1.73563251839356e+00 0.00000000000000e+00
1.31345416666667e-01 1.68638007009816e+00 0.00000000000000e+00
1.32089583333333e-01 1.63852527000154e+00 0.00000000000000e+00
1.32833750000000e-01 1.59202845671519e+00 0.00000000000000e+00
1.33577916666667e-01 1.54685109433104e+00 0.00000000000000e+00
1.34322083333333e-01 1.50295574048348e+00 0.00000000000000e+00
1.35066250000000e-01 1.46030601531760e+00 0.00000000000000e+00
1.35810416666667e-01 1.41886657133814e+00 0.00000000000000e+00
1.36554583333333e-01 1.37860306411393e+00 0.00000000000000e+00
1.37298750000000e-01 1.33948212381373e+00 0.00000000000000e+00
1.38042916666667e-01 1.30147132754978e+00 0.00000000000000e+00
1.38787083333333e-01 1.26453917250614e+00 0.00000000000000e+00
1.39531250000000e-01 1.22865504982963e+00 0.00000000000000e+00
1.40275416666667e-01 1.19378921926163e+00 0.00000000000000e+00
1.41019583333333e-01 1.15991278448976e+00 0.00000000000000e+00
1.41763750000000e-01 1.12699766919903e+00 0.00000000000000e+00
1.42507916666667e-01 1.09501659380258e+00 0.00000000000000e+00
1.43252083333333e-01 1.06394305283275e+00 0.00000000000000e+00
1.43996250000000e-01 1.03375129297370e+00 0.00000000000000e+00
1.44740416666667e-01 1.00441629171743e+00 0.00000000000000e+00
1.45484583333333e-01 9.75913736625493e-01 0.00000000000000e+00
1.46228750000000e-01 9.48220005179154e-01 0.00000000000000e+00
1.46972916666667e-01 9.21312145201409e-01 0.00000000000000e+00
1.47717083333333e-01 8.95167855834521e-01 0.00000000000000e+00
1.48461250000000e-01 8.69765469057390e-01 0.00000000000000e+00
1.49205416666667e-01 8.45083931727398e-01 0.00000000000000e+00
1.49949583333333e-01 8.21102788131860e-01 0.00000000000000e+00
1.50693750000000e-01 7.97802163034614e-01 0.00000000000000e+00
1.51437916666667e-01 7.75162745203705e-01 0.00000000000000e+00
1.52182083333333e-01 7.53165771406506e-01 0.00000000000000e+00
1.52926250000000e-01 7.31793010859012e-01 0.00000000000000e+00
1.53670416666667e-01 7.11026750116425e-01 0.00000000000000e+00
1.54414583333333e-01 6.90849778392495e-01 0.00000000000000e+00
1.55158750000000e-01 6.71245373295463e-01 0.00000000000000e+00
1.55902916666667e-01 6.52197286968776e-01 0.00000000000000e+00
1.56647083333333e-01 6.33689732625091e-01 0.00000000000000e+00
1.57391250000000e-01 6.15707371462410e-01 0.00000000000000e+00
1.58135416666667e-01 5.98235299951488e-01 0.00000000000000e+00
1.58879583333333e-01 5.81259037484005e-01 0.00000000000000e+00
1.59623750000000e-01 5.64764514371235e-01 0.00000000000000e+00
1.60367916666667e-01 5.48738060183286e-01 0.00000000000000e+00
1.61112083333333e-01 5.33166392419240e-01 0.00000000000000e+00
1.61856250000000e-01 5.18036605498802e-01 0.00000000000000e+00
1.62600416666667e-01 5.03336160066337e-01 0.00000000000000e+00
1.63344583333333e-01 4.89052872598422e-01 0.00000000000000e+00
1.64088750000000e-01 4.75174905306321e-01 0.00000000000000e+00
1.64832916666667e-01 4.61690756324983e-01 0.00000000000000e+00
1.65577083333333e-01 4.48589250180462e-01 0.00000000000000e+00
1.66321250000000e-01 4.35859528527841e-01 0.00000000000000e+00
1.67065416666667e-01 4.23491041151984e-01 0.00000000000000e+00
1.67809583333333e-01 4.11473537223670e-01 0.00000000000000e+00
1.68553750000000e-01 3.99797056803843e-01 0.00000000000000e+00
1.69297916666667e-01 3.88451922588962e-01 0.00000000000000e+00
1.70042083333333e-01 3.77428731890581e-01 0.00000000000000e+00
1.70786250000000e-01 3.66718348842534e-01 0.00000000000000e+00
1.71530416666667e-01 3.56311896829259e-01 0.00000000000000e+00
1.72274583333333e-01 3.46200751128979e-01 0.00000000000000e+00
1.73018750000000e-01 3.36376531765659e-01 0.00000000000000e+00
1.73762916666667e-01 3.26831096563793e-01 0.00000000000000e+00
1.74507083333333e-01 3.17556534400290e-01 0.00000000000000e+00
1.75251250000000e-01 3.08545158647839e-01 0.00000000000000e+00
1.75995416666667e-01 2.99789500804342e-01 0.00000000000000e+00
1.76739583333333e-01 2.91282304303128e-01 0.00000000000000e+00
1.77483750000000e-01 2.83016518498807e-01 0.00000000000000e+00
1.78227916666667e-01 2.74985292823795e-01 0.00000000000000e+00
1.78972083333333e-01 2.67181971110661e-01 0.00000000000000e+00
1.79716250000000e-01 2.59600086075589e-01 0.00000000000000e+00
1.80460416666667e-01 2.52233353958381e-01 0.00000000000000e+00
1.81204583333333e-01 2.45075669314566e-01 0.00000000000000e+00
1.81948750000000e-01 2.38121099955294e-01 0.00000000000000e+00
1.82692916666667e-01 2.31363882030817e-01 0.00000000000000e+00
1.83437083333333e-01 2.24798415253499e-01 0.00000000000000e+00
1.84181250000000e-01 2.18419258256366e-01 0.00000000000000e+00
1.84925416666667e-01 2.12221124083385e-01 0.00000000000000e+00
1.85669583333333e-01 2.06198875807705e-01 0.00000000000000e+00
1.86413750000000e-01 2.00347522274245e-01 0.00000000000000e+00
1.87157916666667e-01 1.94662213963095e-01 0.00000000000000e+00
1.87902083333333e-01 1.89138238970301e-01 0.00000000000000e+00
1.88646250000000e-01 1.83771019102705e-01 0.00000000000000e+00
1.89390416666667e-01 1.78556106083601e-01 0.00000000000000e+00
1.90134583333333e-01 1.73489177866071e-01 0.00000000000000e+00
1.90878750000000e-01 1.68566035050926e-01 0.00000000000000e+00
1.91622916666667e-01 1.63782597406308e-01 0.00000000000000e+00
1.92367083333333e-01 1.59134900486048e-01 0.00000000000000e+00
1.93111250000000e-01 1.54619092343990e-01 0.00000000000000e+00
1.93855416666667e-01 1.50231430341550e-01 0.00000000000000e+00
1.94599583333333e-01 1.45968278045872e-01 0.00000000000000e+00
1.95343750000000e-01 1.41826102216004e-01 0.00000000000000e+00
1.96087916666667e-01 1.37801469874592e-01 0.00000000000000e+00
1.96832083333333e-01 1.33891045462683e-01 0.00000000000000e+00
1.97576250000000e-01 1.30091588075257e-01 0.00000000000000e+00
1.98320416666667e-01 1.26399948775208e-01 0.00000000000000e+00
1.99064583333333e-01 1.22813067983556e-01 0.00000000000000e+00
1.99808750000000e-01 1.19327972943704e-01 0.00000000000000e+00
2.00552916666667e-01 1.15941775257661e-01 0.00000000000000e+00
2.01297083333333e-01 1.12651668492180e-01 0.00000000000000e+00
2.02041250000000e-01 1.09454925852823e-01 0.00000000000000e+00
2.02785416666667e-01 1.06348897924035e-01 0.00000000000000e+00
2.03529583333333e-01 1.03331010473341e-01 0.00000000000000e+00
2.04273750000000e-01 1.00398762317861e-01 0.00000000000000e+00
2.05017916666667e-01 9.75497232513659e-02 0.00000000000000e+00
2.05762083333333e-01 9.47815320301529e-02 0.00000000000000e+00
2.06506250000000e-01 9.20918944160829e-02 0.00000000000000e+00
2.07250416666667e-01 8.94785812751467e-02 0.00000000000000e+00
2.07994583333333e-01 8.69394267299903e-02 0.00000000000000e+00
2.08738750000000e-01 8.44723263648656e-02 0.00000000000000e+00
2.09482916666667e-01 8.20752354815207e-02 0.00000000000000e+00
2.10227083333333e-01 7.97461674045822e-02 0.00000000000000e+00
2.10971250000000e-01 7.74831918350266e-02 0.00000000000000e+00
2.11715416666667e-01 7.52844332503755e-02 0.00000000000000e+00
2.12459583333333e-01 7.31480693502886e-02 0.00000000000000e+00
2.13203750000000e-01 7.10723295462670e-02 0.00000000000000e+00
2.13947916666667e-01 6.90554934942141e-02 0.00000000000000e+00
2.14692083333333e-01 6.70958896686385e-02 0.00000000000000e+00
2.15436250000000e-01 6.51918939773171e-02 0.00000000000000e+00
2.16180416666667e-01 6.33419284152699e-02 0.00000000000000e+00
2.16924583333333e-01 6.15444597569322e-02 0.00000000000000e+00
2.17668750000000e-01 5.97979982854380e-02 0.00000000000000e+00
2.18412916666667e-01 5.81010965579640e-02 0.00000000000000e+00
2.19157083333333e-01 5.64523482061089e-02 0.00000000000000e+00
2.19901250000000e-01 5.48503867703155e-02 0.00000000000000e+00
2.20645416666667e-01 5.32938845673675e-02 0.00000000000000e+00
2.21389583333333e-01 5.17815515900245e-02 0.00000000000000e+00
2.22133750000000e-01 5.03121344378822e-02 0.00000000000000e+00
2.22877916666667e-01 4.88844152785715e-02 0.00000000000000e+00
2.23622083333333e-01 4.74972108384362e-02 0.00000000000000e+00
2.24366250000000e-01 4.61493714218521e-02 0.00000000000000e+00
2.25110416666667e-01 4.48397799583758e-02 0.00000000000000e+00
2.25854583333333e-01 4.35673510769320e-02 0.00000000000000e+00
2.26598750000000e-01 4.23310302062731e-02 0.00000000000000e+00
2.27342916666667e-01 4.11297927009656e-02 0.00000000000000e+00
2.28087083333333e-01 3.99626429921783e-02 0.00000000000000e+00
2.28831250000000e-01 3.88286137625683e-02 0.00000000000000e+00
2.29575416666667e-01 3.77267651445826e-02 0.00000000000000e+00
2.30319583333333e-01 3.66561839415085e-02 0.00000000000000e+00
2.31063750000000e-01 3.56159828706293e-02 0.00000000000000e+00
2.31807916666667e-01 3.46052998278565e-02 0.00000000000000e+00
2.32552083333333e-01 3.36232971732301e-02 0.00000000000000e+00
2.33296250000000e-01 3.26691610366946e-02 0.00000000000000e+00
2.34040416666667e-01 3.17421006435745e-02 0.00000000000000e+00
2.34784583333333e-01 3.08413476591916e-02 0.00000000000000e+00
