Energy (eV)          EEDF (eV^-(3/2))     First Anisotropy
2.67857142857143e-02 6.73744723882194e-02 3.89122316607598e-05
8.03571428571428e-02 6.68238201040602e-02 6.42084315784470e-05
1.33928571428571e-01 6.62776683079849e-02 8.46387195026572e-05
1.87500000000000e-01 6.57359802145786e-02 1.00084694680116e-04
2.41071428571429e-01 6.51987193456492e-02 1.12904848434308e-04
2.94642857142857e-01 6.46658495146196e-02 1.23992601516746e-04
3.48214285714286e-01 6.41373348353765e-02 1.33811139486736e-04
4.01785714285714e-01 6.36131397116399e-02 1.42640661810224e-04
4.55357142857143e-01 6.30932288396885e-02 1.50667326033853e-04
5.08928571428571e-01 6.25775672055657e-02 1.58022932511613e-04
5.62500000000000e-01 6.20661200790628e-02 1.64805214429359e-04
6.16071428571428e-01 6.15588530159178e-02 1.71089246348765e-04
6.69642857142857e-01 6.10557318515599e-02 1.76934327266210e-04
7.23214285714286e-01 6.05567227022672e-02 1.82388366179821e-04
7.76785714285714e-01 6.00617919598021e-02 1.87490801177559e-04
8.30357142857143e-01 5.95709062913165e-02 1.92274612714485e-04
8.83928571428571e-01 5.90840326370013e-02 1.96767755052396e-04
9.37500000000000e-01 5.86011382060372e-02 2.00994199244181e-04
9.91071428571428e-01 5.81221904767158e-02 2.04974710274845e-04
1.04464285714286e+00 5.76471571934473e-02 2.08727437804954e-04
1.09821428571429e+00 5.71760063616129e-02 2.12268371286102e-04
1.15178571428571e+00 5.67087062499666e-02 2.15611696890545e-04
1.20535714285714e+00 5.62452253865550e-02 2.18770081485744e-04
1.25892857142857e+00 5.57855325566820e-02 2.21754900191785e-04
1.31250000000000e+00 5.53295968007621e-02 2.24576420926479e-04
1.36607142857143e+00 5.48773874156031e-02 2.27243957310863e-04
1.41964285714286e+00 5.44288739420799e-02 2.29765993275199e-04
1.47321428571429e+00 5.39840261735109e-02 2.32150286833304e-04
1.52678571428571e+00 5.35428141500893e-02 2.34403959284670e-04
1.58035714285714e+00 5.31052081568452e-02 2.36533569145670e-04
1.63392857142857e+00 5.26711787216900e-02 2.38545175470817e-04
1.68750000000000e+00 5.22406966134072e-02 2.40444391744229e-04
1.74107142857143e+00 5.18137328421647e-02 2.42236433627896e-04
1.79464285714286e+00 5.13902586500213e-02 2.43926158684422e-04
1.84821428571429e+00 5.09702455166363e-02 2.45518100830691e-04
1.90178571428571e+00 5.05536651547640e-02 2.47016502136674e-04
1.95535714285714e+00 5.01404895083357e-02 2.48425339417221e-04
2.00892857142857e+00 4.97306907505976e-02 2.49748347979166e-04
2.06250000000000e+00 4.93242412822226e-02 2.50989042327458e-04
2.11607142857143e+00 4.89211137313715e-02 2.52150735691455e-04
2.16964285714286e+00 4.85212809460204e-02 2.53236556014421e-04
2.22321428571429e+00 4.81247159980334e-02 2.54249460166184e-04
2.27678571428571e+00 4.77313921793573e-02 2.55192248138289e-04
2.33035714285714e+00 4.73412830002148e-02 2.56067574662300e-04
2.38392857142857e+00 4.69543621873376e-02 2.56877959957708e-04
2.43750000000000e+00 4.65706036821882e-02 2.57625799186244e-04
2.49107142857143e+00 4.61899816407412e-02 2.58313372019385e-04
2.54464285714286e+00 4.58124704270829e-02 2.58942850096835e-04
2.59821428571429e+00 4.54380446163972e-02 2.59516303759768e-04
2.65178571428571e+00 4.50666789916645e-02 2.60035709467656e-04
2.70535714285714e+00 4.46983485419578e-02 2.60502955576680e-04
2.75892857142857e+00 4.43330284607700e-02 2.60919847876610e-04
2.81250000000000e+00 4.39706941443374e-02 2.61288114445365e-04
2.86607142857143e+00 4.36113211912408e-02 2.61609410997848e-04
2.91964285714286e+00 4.32548853969482e-02 2.61885324723432e-04
2.97321428571429e+00 4.29013627560387e-02 2.62117377783789e-04
3.02678571428571e+00 4.25507294592875e-02 2.62307031672022e-04
3.08035714285714e+00 4.22029618920580e-02 2.62455690360680e-04
3.13392857142857e+00 4.18580366327207e-02 2.62564703437539e-04
3.18750000000000e+00 4.15159304510705e-02 2.62635368816111e-04
3.24107142857143e+00 4.11766203078121e-02 2.62668936044119e-04
3.29464285714286e+00 4.08400833498294e-02 2.62666608412250e-04
3.34821428571429e+00 4.05062969118568e-02 2.62629544886318e-04
3.40178571428571e+00 4.01752385138719e-02 2.62558862914262e-04
3.45535714285714e+00 3.98468858595779e-02 2.62455640258125e-04
3.50892857142857e+00 3.95212168349092e-02 2.62320916903239e-04
3.56250000000000e+00 3.91982095065384e-02 2.62155696667655e-04
3.61607142857143e+00 3.88778421212859e-02 2.61960949417814e-04
3.66964285714286e+00 3.85600931019695e-02 2.61737612277379e-04
3.72321428571429e+00 3.82449410486621e-02 2.61486590736165e-04
3.77678571428571e+00 3.79323647363383e-02 2.61208760592556e-04
3.83035714285714e+00 3.76223431134423e-02 2.60904969072721e-04
3.88392857142857e+00 3.73148553004751e-02 2.60576036061134e-04
3.93750000000000e+00 3.70098805885861e-02 2.60222755100952e-04
3.99107142857143e+00 3.67073984389359e-02 2.59845894974611e-04
4.04464285714286e+00 3.64073884790192e-02 2.59446200412361e-04
4.09821428571429e+00 3.61098305036072e-02 2.59024392740274e-04
4.15178571428571e+00 3.58147044726090e-02 2.58581171303477e-04
4.20535714285714e+00 3.55219905097190e-02 2.58117214174565e-04
4.25892857142857e+00 3.52316689010831e-02 2.57633178984014e-04
4.31250000000000e+00 3.49437200939682e-02 2.57129703563425e-04
4.36607142857143e+00 3.46581246960999e-02 2.56607407131264e-04
4.41964285714286e+00 3.43748634723774e-02 2.56066890709005e-04
4.47321428571429e+00 3.40939173455743e-02 2.55508737498391e-04
4.52678571428571e+00 3.38152673943823e-02 2.54933513972603e-04
4.58035714285714e+00 3.35388948521355e-02 2.54341770335957e-04
4.63392857142857e+00 3.32647811055497e-02 2.53734041105942e-04
4.68750000000000e+00 3.29929076934672e-02 2.53110845537048e-04
4.74107142857143e+00 3.27232563061812e-02 2.52472688546564e-04
4.79464285714286e+00 3.24558087824848e-02 2.51820060953218e-04
4.84821428571429e+00 3.21905471101802e-02 2.51153439689476e-04
4.90178571428571e+00 3.19274534242838e-02 2.50473288668723e-04
4.95535714285714e+00 3.16665100058210e-02 2.49780059088324e-04
5.00892857142857e+00 3.14076992806361e-02 2.49074189850597e-04
5.06250000000000e+00 3.11510038182068e-02 2.48356107846734e-04
5.11607142857143e+00 3.08964063309674e-02 2.47626228702968e-04
5.16964285714286e+00 3.06438896716419e-02 2.46884956908263e-04
5.22321428571429e+00 3.03934368336041e-02 2.46132685923423e-04
5.27678571428571e+00 3.01450309492231e-02 2.45369798890094e-04
5.33035714285714e+00 2.98986552887262e-02 2.44596668832045e-04
5.38392857142857e+00 2.96542932590743e-02 2.43813658967828e-04
5.43750000000000e+00 2.94119284028432e-02 2.43021122902568e-04
5.49107142857143e+00 2.91715443975523e-02 2.42219405244813e-04
5.54464285714286e+00 2.89331250532442e-02 2.41408841663533e-04
5.59821428571429e+00 2.86966543127258e-02 2.40589758931381e-04
5.65178571428571e+00 2.84621162500396e-02 2.39762475517588e-04
5.70535714285714e+00 2.82294950693904e-02 2.38927301721353e-04
5.75892857142857e+00 2.79987751040826e-02 2.38084539909344e-04
5.81250000000000e+00 2.77699408154651e-02 2.37234484645348e-04
5.86607142857143e+00 2.75429767922698e-02 2.36377423210630e-04
5.91964285714286e+00 2.73178677484076e-02 2.35513635615233e-04
5.97321428571429e+00 2.70945985231143e-02 2.34643394598812e-04
6.02678571428571e+00 2.68731540795349e-02 2.33766966135521e-04
6.08035714285714e+00 2.66535195037101e-02 2.32884609521095e-04
6.13392857142857e+00 2.64356800035730e-02 2.31996577556742e-04
6.18750000000000e+00 2.62196209079527e-02 2.31103116636085e-04
6.24107142857143e+00 2.60053276659279e-02 2.30204467191182e-04
6.29464285714286e+00 2.57927858448125e-02 2.29300863674233e-04
6.34821428571429e+00 2.55819811302263e-02 2.28392534531118e-04
6.40178571428571e+00 2.53728993247805e-02 2.27479702637450e-04
6.45535714285714e+00 2.51655263471213e-02 2.26562585353632e-04
6.50892857142857e+00 2.49598482309825e-02 2.25641394669668e-04
6.56250000000000e+00 2.47558511242441e-02 2.24716337262135e-04
6.61607142857143e+00 2.45535212883047e-02 2.23787614881523e-04
6.66964285714286e+00 2.43528450962342e-02 2.22855424314903e-04
6.72321428571429e+00 2.41538090327850e-02 2.21919957341995e-04
6.77678571428571e+00 2.39563996931698e-02 2.20981401116153e-04
6.83035714285714e+00 2.37606037821581e-02 2.20039938196986e-04
6.88392857142857e+00 2.35664081131819e-02 2.19095746666037e-04
6.93750000000000e+00 2.33737996074473e-02 2.18149000162545e-04
6.99107142857143e+00 2.31827652933256e-02 2.17199868223365e-04
7.04464285714286e+00 2.29932923046570e-02 2.16248516233574e-04
7.09821428571429e+00 2.28053678807131e-02 2.15295105371668e-04
7.15178571428571e+00 2.26189793650589e-02 2.14339792945612e-04
7.20535714285714e+00 2.24341142047005e-02 2.13382732409592e-04
7.25892857142857e+00 2.22507599492397e-02 2.12424073457570e-04
7.31250000000000e+00 2.20689042500359e-02 2.11463962043878e-04
7.36607142857143e+00 2.18885348596177e-02 2.10502540684081e-04
7.41964285714286e+00 2.17096396301212e-02 2.09539948398286e-04
7.47321428571429e+00 2.15322065132145e-02 2.08576320649938e-04
7.52678571428571e+00 2.13562235590369e-02 2.07611789644476e-04
7.58035714285714e+00 2.11816789153934e-02 2.06646484334831e-04
7.63392857142857e+00 2.10085608269578e-02 2.05680530497926e-04
7.68750000000000e+00 2.08368576344800e-02 2.04714050744369e-04
7.74107142857143e+00 2.06665577742202e-02 2.03747164786606e-04
7.79464285714286e+00 2.04976497765081e-02 2.02779989378161e-04
7.84821428571429e+00 2.03301222656372e-02 2.01812638249091e-04
7.90178571428571e+00 2.01639639588745e-02 2.00845222373100e-04
7.95535714285714e+00 1.99991636657010e-02 1.99877849965037e-04
8.00892857142857e+00 1.98357102870578e-02 1.98910626544032e-04
8.06250000000000e+00 1.96735928145989e-02 1.97943654935310e-04
8.11607142857143e+00 1.95128003301471e-02 1.96977035510638e-04
8.16964285714286e+00 1.93533220043619e-02 1.96010866125722e-04
8.22321428571428e+00 1.91951470966114e-02 1.95045242054354e-04
8.27678571428571e+00 1.90382649540469e-02 1.94080256228610e-04
8.33035714285714e+00 1.88826650108851e-02 1.93115999230644e-04
8.38392857142857e+00 1.87283367876974e-02 1.92152559345256e-04
8.43750000000000e+00 1.85752698907036e-02 1.91190022556091e-04
8.49107142857143e+00 1.84234540112501e-02 1.90228472762205e-04
8.54464285714286e+00 1.82728789245774e-02 1.89267991715172e-04
8.59821428571428e+00 1.81235344896736e-02 1.88308658953395e-04
8.65178571428571e+00 1.79754106484093e-02 1.87350552019011e-04
8.70535714285714e+00 1.78284974248602e-02 1.86393746445717e-04
8.75892857142857e+00 1.76827849246353e-02 1.85438315802855e-04
8.81250000000000e+00 1.75382633342109e-02 1.84484331687566e-04
8.86607142857143e+00 1.73949229204299e-02 1.83531863920686e-04
8.91964285714286e+00 1.72527540293606e-02 1.82580980484627e-04
8.97321428571428e+00 1.71117470861361e-02 1.81631747458760e-04
9.02678571428571e+00 1.69718925941447e-02 1.80684229216019e-04
9.08035714285714e+00 1.68331811343908e-02 1.79738488408049e-04
9.13392857142857e+00 1.66956033648600e-02 1.78794586002416e-04
9.18750000000000e+00 1.65591500198909e-02 1.77852581271872e-04
9.24107142857143e+00 1.64238119096956e-02 1.76912531972183e-04
9.29464285714286e+00 1.62895799193016e-02 1.75974494281475e-04
9.34821428571428e+00 1.61564450083802e-02 1.75038522737365e-04
9.40178571428571e+00 1.60243982104899e-02 1.74104670415750e-04
9.45535714285714e+00 1.58934306324716e-02 1.73172988914137e-04
9.50892857142857e+00 1.57635334538503e-02 1.72243528383230e-04
9.56250000000000e+00 1.56346979262407e-02 1.71316337514241e-04
9.61607142857143e+00 1.55069153728907e-02 1.70391463700785e-04
9.66964285714286e+00 1.53801771876968e-02 1.69468952980145e-04
9.72321428571428e+00 1.52544748350275e-02 1.68548849972564e-04
9.77678571428571e+00 1.51297998490130e-02 1.67631198044280e-04
9.83035714285714e+00 1.50061438329750e-02 1.66716039289755e-04
9.88392857142857e+00 1.48834984588615e-02 1.65803414558608e-04
9.93750000000000e+00 1.47618554666856e-02 1.64893363441590e-04
9.99107142857143e+00 1.46412066640897e-02 1.63985924259058e-04
1.00446428571429e+01 1.45215439259027e-02 1.63081134762157e-04
1.00982142857143e+01 1.44028591917138e-02 1.62179030799296e-04
1.01517857142857e+01 1.42851444694625e-02 1.61279646937893e-04
1.02053571428571e+01 1.41683918312192e-02 1.60383017884685e-04
1.02589285714286e+01 1.40525934127304e-02 1.59489176089788e-04
1.03125000000000e+01 1.39377414162788e-02 1.58598152956994e-04
1.03660714285714e+01 1.38238281067373e-02 1.57709979648960e-04
1.04196428571429e+01 1.37108458121981e-02 1.56824686290334e-04
1.04732142857143e+01 1.35987869223953e-02 1.55942301281174e-04
1.05267857142857e+01 1.34876438914028e-02 1.55062852060519e-04
1.05803571428571e+01 1.33774092338865e-02 1.54186366230015e-04
1.06339285714286e+01 1.32680755246706e-02 1.53312869369252e-04
1.06875000000000e+01 1.31596354013248e-02 1.52442386156237e-04
1.07410714285714e+01 1.30520815605537e-02 1.51574941112660e-04
1.07946428571429e+01 1.29454067587516e-02 1.50710557863790e-04
1.08482142857143e+01 1.28396038105481e-02 1.49849258499922e-04
1.09017857142857e+01 1.27346655912503e-02 1.48991064283256e-04
1.09553571428571e+01 1.26305850334103e-02 1.48135996689122e-04
1.10089285714286e+01 1.25273551264129e-02 1.47284075377851e-04
1.10625000000000e+01 1.24249689188189e-02 1.46435319232967e-04
1.11160714285714e+01 1.23234195150561e-02 1.45589747051546e-04
1.11696428571429e+01 1.22227000759102e-02 1.44747376856497e-04
1.12232142857143e+01 1.21228038171812e-02 1.43908225302479e-04
1.12767857142857e+01 1.20237240118973e-02 1.43072308330815e-04
1.13303571428571e+01 1.19254539871674e-02 1.42239642135069e-04
1.13839285714286e+01 1.18279871237892e-02 1.41410241277243e-04
1.14375000000000e+01 1.17313168583737e-02 1.40584119650375e-04
1.14910714285714e+01 1.16354366803102e-02 1.39761291118532e-04
1.15446428571429e+01 1.15403401321994e-02 1.38941768877494e-04
1.15982142857143e+01 1.14460208086120e-02 1.38125564901881e-04
1.16517857142857e+01 1.13524723580971e-02 1.37312690552331e-04
1.17053571428571e+01 1.12596884802935e-02 1.36503157471496e-04
1.17589285714286e+01 1.11676629255567e-02 1.35696975833442e-04
1.18125000000000e+01 1.10763894968877e-02 1.34894155236739e-04
1.18660714285714e+01 1.09858620471457e-02 1.34094705298192e-04
1.19196428571429e+01 1.08960744794308e-02 1.33298635058256e-04
1.19732142857143e+01 1.08070207459355e-02 1.32505952466294e-04
1.20267857142857e+01 1.07186948497687e-02 1.31716664943925e-04
1.20803571428571e+01 1.06310908423015e-02 1.30930780216960e-04
1.21339285714286e+01 1.05442028228130e-02 1.30148304687793e-04
1.21875000000000e+01 1.04580249402427e-02 1.29369244264531e-04
1.22410714285714e+01 1.03725513906281e-02 1.28593604912108e-04
1.22946428571429e+01 1.02877764174429e-02 1.27821392099101e-04
1.23482142857143e+01 1.02036943105336e-02 1.27052610318360e-04
1.24017857142857e+01 1.01202994077775e-02 1.26287263609983e-04
1.24553571428571e+01 1.00375860926419e-02 1.25525356334196e-04
1.25089285714286e+01 9.95554879384730e-03 1.24766891657429e-04
1.25625000000000e+01 9.87418198696144e-03 1.24011872322490e-04
1.26160714285714e+01 9.79348019204153e-03 1.23260301160453e-04
1.26696428571429e+01 9.71343797393257e-03 1.22512180575761e-04
1.27232142857143e+01 9.63404994128240e-03 1.21767512099637e-04
1.27767857142857e+01 9.55531074805013e-03 1.21026296875894e-04
1.28303571428571e+01 9.47721509125880e-03 1.20288536379306e-04
1.28839285714286e+01 9.39975771067662e-03 1.19554231006840e-04
1.29375000000000e+01 9.32293339026689e-03 1.18823380793429e-04
1.29910714285714e+01 9.24673695601732e-03 1.18095985887666e-04
1.30446428571429e+01 9.17116327620302e-03 1.17372046072416e-04
1.30982142857143e+01 9.09620726047324e-03 1.16651560348613e-04
1.31517857142857e+01 9.02186386122489e-03 1.15934527386755e-04
1.32053571428571e+01 8.94812807153201e-03 1.15220946194981e-04
1.32589285714286e+01 8.87499492484330e-03 1.14510814807566e-04
1.33125000000000e+01 8.80245949630292e-03 1.13804130950532e-04
1.33660714285714e+01 8.73051690074977e-03 1.13100892483922e-04
1.34196428571429e+01 8.65916229294932e-03 1.12401096955247e-04
1.34732142857143e+01 8.58839086674630e-03 1.11704741211520e-04
1.35267857142857e+01 8.51819785631636e-03 1.11011821819087e-04
1.35803571428571e+01 8.44857853425671e-03 1.10322335685186e-04
1.36339285714286e+01 8.37952821129950e-03 1.09636278836568e-04
1.36875000000000e+01 8.31104223751562e-03 1.08953647038687e-04
1.37410714285714e+01 8.24311600046934e-03 1.08274436207087e-04
1.37946428571429e+01 8.17574492542255e-03 1.07598641991361e-04
1.38482142857143e+01 8.10892447454799e-03 1.06926259413389e-04
1.39017857142857e+01 8.04265014807066e-03 1.06257283257846e-04
1.39553571428571e+01 7.97691748250599e-03 1.05591708650758e-04
1.40089285714286e+01 7.91172205038800e-03 1.04929529921650e-04
1.40625000000000e+01 7.84705946136746e-03 1.04270741179793e-04
1.41160714285714e+01 7.78292536050853e-03 1.03615336697063e-04
1.41696428571429e+01 7.71931542846836e-03 1.02963310520160e-04
1.42232142857143e+01 7.65622538076625e-03 1.02314656133153e-04
1.42767857142857e+01 7.59365096882524e-03 1.01669366820945e-04
1.43303571428571e+01 7.53158797834506e-03 1.01027436207988e-04
1.43839285714286e+01 7.47003222904460e-03 1.00388857197861e-04
1.44375000000000e+01 7.40897957566424e-03 9.97536225097889e-05
1.44910714285714e+01 7.34842590639246e-03 9.91217250350924e-05
1.45446428571429e+01 7.28836714302364e-03 9.84931574756230e-05
1.45982142857143e+01 7.22879924027876e-03 9.78679120289085e-05
1.46517857142857e+01 7.16971818675643e-03 9.72459807265860e-05
1.47053571428571e+01 7.11112000342941e-03 9.66273559362021e-05
1.47589285714286e+01 7.05300074340057e-03 9.60120293726224e-05
1.48125000000000e+01 6.99535649281847e-03 9.53999925977716e-05
1.48660714285714e+01 6.93818336942289e-03 9.47912373526058e-05
1.49196428571429e+01 6.88147752268342e-03 9.41857552198847e-05
1.49732142857143e+01 6.82523513316761e-03 9.35835373303627e-05
1.50267857142857e+01 6.76945241340992e-03 9.29845746779906e-05
1.50803571428571e+01 6.71412560652144e-03 9.23888585875057e-05
1.51339285714286e+01 6.65925098595880e-03 9.17963797925491e-05
1.51875000000000e+01 6.60482485636089e-03 9.12071289012819e-05
1.52410714285714e+01 6.55084355220357e-03 9.06210967056703e-05
1.52946428571429e+01 6.49730343792114e-03 9.00382738669081e-05
1.53482142857143e+01 6.44420090731832e-03 8.94586506411329e-05
1.54017857142857e+01 6.39153238436468e-03 8.88822171731103e-05
1.54553571428571e+01 6.33929432190828e-03 8.83089639321083e-05
1.55089285714286e+01 6.28748320145682e-03 8.77388808519355e-05
1.55625000000000e+01 6.23609553394270e-03 8.71719577649311e-05
1.56160714285714e+01 6.18512785847812e-03 8.66081846902250e-05
1.56696428571429e+01 6.13457674246117e-03 8.60475515401816e-05
1.57232142857143e+01 6.08443878102840e-03 8.54900478642848e-05
1.57767857142857e+01 6.03471059778155e-03 8.49356631228767e-05
1.58303571428571e+01 5.98538884359659e-03 8.43843870935961e-05
1.58839285714286e+01 5.93647019641649e-03 8.38362090689400e-05
1.59375000000000e+01 5.88795136195128e-03 8.32911182609158e-05
1.59910714285714e+01 5.83982907252512e-03 8.27491040697912e-05
1.60446428571429e+01 5.79210008716899e-03 8.22101558100718e-05
1.60982142857143e+01 5.74476119111072e-03 8.16742624713130e-05
1.61517857142857e+01 5.69780919644004e-03 8.11414129733374e-05
1.62053571428571e+01 5.65124094100546e-03 8.06115965453388e-05
1.62589285714286e+01 5.60505328821807e-03 8.00848019769201e-05
1.63125000000000e+01 5.55924312769232e-03 7.95610179955042e-05
1.63660714285714e+01 5.51380737417789e-03 7.90402335169756e-05
1.64196428571429e+01 5.46874296764026e-03 7.85224373898233e-05
1.64732142857143e+01 5.42404687278555e-03 7.80076181717065e-05
1.65267857142857e+01 5.37971607966944e-03 7.74957643674855e-05
1.65803571428571e+01 5.33574760267481e-03 7.69868647829109e-05
1.66339285714286e+01 5.29213848032601e-03 7.64809078254207e-05
1.66875000000000e+01 5.24888577587572e-03 7.59778818562404e-05
1.67410714285714e+01 5.20598657631476e-03 7.54777754241819e-05
1.67946428571429e+01 5.16343799244208e-03 7.49805770267054e-05
1.68482142857143e+01 5.12123715842167e-03 7.44862749011609e-05
1.69017857142857e+01 5.07938123234044e-03 7.39948572468384e-05
