Energy (eV)          EEDF (eV^-(3/2))     First Anisotropy
1.24590163934426e-02 1.21772456247617e-01 5.84200670227999e-05
3.73770491803279e-02 1.21085295650406e-01 9.65204338742508e-05
6.22950819672131e-02 1.20402012692468e-01 1.27556532963870e-04
8.72131147540984e-02 1.19722585492611e-01 1.51219469116417e-04
1.12131147540984e-01 1.19046992293502e-01 1.71024784156121e-04
1.37049180327869e-01 1.18375211458498e-01 1.88299275769687e-04
1.61967213114754e-01 1.17707221474161e-01 2.03728395659131e-04
1.86885245901639e-01 1.17043000949096e-01 2.17725380905150e-04
2.11803278688525e-01 1.16382528615928e-01 2.30563848449009e-04
2.36721311475410e-01 1.15725783320016e-01 2.42436869437649e-04
2.61639344262295e-01 1.15072744029810e-01 2.53487131902188e-04
2.86557377049180e-01 1.14423389832452e-01 2.63823878286008e-04
3.11475409836066e-01 1.13777699935263e-01 2.73533110636572e-04
3.36393442622951e-01 1.13135653658414e-01 2.82684083751377e-04
3.61311475409836e-01 1.12497230441063e-01 2.91333621097317e-04
3.86229508196721e-01 1.11862409838349e-01 2.99529089066215e-04
4.11147540983607e-01 1.11231171520808e-01 3.07310507183391e-04
4.36065573770492e-01 1.10603495275177e-01 3.14712085239669e-04
4.60983606557377e-01 1.09979360999207e-01 3.21763366233891e-04
4.85901639344262e-01 1.09358748705631e-01 3.28490093003170e-04
5.10819672131148e-01 1.08741638519959e-01 3.34914877290411e-04
5.35737704918033e-01 1.08128010679864e-01 3.41057722525715e-04
5.60655737704918e-01 1.07517845535654e-01 3.46936439081564e-04
5.85573770491803e-01 1.06911123546238e-01 3.52566976740652e-04
6.10491803278689e-01 1.06307825281945e-01 3.57963694242508e-04
6.35409836065574e-01 1.05707931422748e-01 3.63139580594123e-04
6.60327868852459e-01 1.05111422758561e-01 3.68106437872100e-04
6.85245901639344e-01 1.04518280185839e-01 3.72875032962661e-04
7.10163934426230e-01 1.03928484709781e-01 3.77455224827456e-04
7.35081967213115e-01 1.03342017442766e-01 3.81856072678769e-04
7.60000000000000e-01 1.02758859603760e-01 3.86085927320011e-04
7.84918032786885e-01 1.02178992518459e-01 3.90152509864830e-04
8.09836065573771e-01 1.01602397616420e-01 3.94062978853231e-04
8.34754098360656e-01 1.01029056432759e-01 3.97823988227235e-04
8.59672131147541e-01 1.00458950606785e-01 4.01441738277560e-04
8.84590163934426e-01 9.98920618814222e-02 4.04922019519780e-04
9.09508196721312e-01 9.93283721032437e-02 4.08270251681419e-04
9.34426229508197e-01 9.87678632199925e-02 4.11491517467655e-04
9.59344262295082e-01 9.82105172819203e-02 4.14590592343818e-04
9.84262295081967e-01 9.76563164405686e-02 4.17571971363339e-04
1.00918032786885e+00 9.71052429487484e-02 4.20439892603336e-04
1.03409836065574e+00 9.65572791603960e-02 4.23198359929925e-04
1.05901639344262e+00 9.60124075217437e-02 4.25851158437158e-04
1.08393442622951e+00 9.54706105890690e-02 4.28401872895418e-04
1.10885245901639e+00 9.49318710117136e-02 4.30853906408787e-04
1.13377049180328e+00 9.43961715322490e-02 4.33210488110968e-04
1.15868852459016e+00 9.38634950002703e-02 4.35474688555270e-04
1.18360655737705e+00 9.33338243572313e-02 4.37649432859946e-04
1.20852459016393e+00 9.28071426408427e-02 4.39737508862479e-04
1.23344262295082e+00 9.22834329803312e-02 4.41741574733103e-04
1.25836065573770e+00 9.17626786087371e-02 4.43664169264396e-04
1.28327868852459e+00 9.12448628493118e-02 4.45507721388981e-04
1.30819672131148e+00 9.07299691194372e-02 4.47274555366715e-04
1.33311475409836e+00 9.02179809262675e-02 4.48966895719392e-04
1.35803278688525e+00 8.97088818777731e-02 4.50586874895216e-04
1.38295081967213e+00 8.92026556704690e-02 4.52136541227788e-04
1.40786885245902e+00 8.86992860893317e-02 4.53617859057853e-04
1.43278688524590e+00 8.81987570180825e-02 4.55032715908813e-04
1.45770491803279e+00 8.77010524276949e-02 4.56382928419655e-04
1.48262295081967e+00 8.72061563796026e-02 4.57670244647579e-04
1.50754098360656e+00 8.67140530219477e-02 4.58896346358955e-04
1.53245901639344e+00 8.62247265989097e-02 4.60062854015226e-04
1.55737704918033e+00 8.57381614402169e-02 4.61171332211197e-04
1.58229508196721e+00 8.52543419609976e-02 4.62223288182619e-04
1.60721311475410e+00 8.47732526705144e-02 4.63220176851315e-04
1.63213114754098e+00 8.42948781622987e-02 4.64163404884580e-04
1.65704918032787e+00 8.38192031168200e-02 4.65054331581320e-04
1.68196721311475e+00 8.33462122982104e-02 4.65894269839882e-04
1.70688524590164e+00 8.28758905622492e-02 4.66684489682838e-04
1.73180327868852e+00 8.24082228472876e-02 4.67426222286285e-04
1.75672131147541e+00 8.19431941740400e-02 4.68120657767054e-04
1.78163934426230e+00 8.14807896531056e-02 4.68768948995800e-04
1.80655737704918e+00 8.10209944763897e-02 4.69372214587522e-04
1.83147540983607e+00 8.05637939193536e-02 4.69931539050686e-04
1.85639344262295e+00 8.01091733381233e-02 4.70447973053600e-04
1.88131147540984e+00 7.96571181763974e-02 4.70922536084362e-04
1.90622950819672e+00 7.92076139575082e-02 4.71356219017956e-04
1.93114754098361e+00 7.87606462864852e-02 4.71749984018539e-04
1.95606557377049e+00 7.83162008473377e-02 4.72104764565351e-04
1.98098360655738e+00 7.78742634094263e-02 4.72421467763127e-04
2.00590163934426e+00 7.74348198200945e-02 4.72700977156316e-04
2.03081967213115e+00 7.69978560044181e-02 4.72944150161957e-04
2.05573770491803e+00 7.65633579712339e-02 4.73151820793249e-04
2.08065573770492e+00 7.61313118061327e-02 4.73324801710425e-04
2.10557377049180e+00 7.57017036732249e-02 4.73463883843074e-04
2.13049180327869e+00 7.52745198127102e-02 4.73569836138776e-04
2.15540983606557e+00 7.48497465464648e-02 4.73643407439679e-04
2.18032786885246e+00 7.44273702715051e-02 4.73685328841737e-04
2.20524590163934e+00 7.40073774597192e-02 4.73696311105775e-04
2.23016393442623e+00 7.35897546631726e-02 4.73677046960716e-04
2.25508196721312e+00 7.31744885078756e-02 4.73628212805092e-04
2.28000000000000e+00 7.27615656953050e-02 4.73550468177858e-04
2.30491803278689e+00 7.23509730002165e-02 4.73444455352383e-04
2.32983606557377e+00 7.19426972755761e-02 4.73310800911216e-04
2.35475409836066e+00 7.15367254467240e-02 4.73150117289194e-04
2.37967213114754e+00 7.11330445127846e-02 4.72963002198411e-04
2.40459016393443e+00 7.07316415445922e-02 4.72750038172141e-04
2.42950819672131e+00 7.03325036892868e-02 4.72511794000485e-04
2.45442622950820e+00 6.99356181648412e-02 4.72248826611169e-04
2.47934426229508e+00 6.95409722597801e-02 4.71961678589311e-04
2.50426229508197e+00 6.91485533375582e-02 4.71650880030497e-04
2.52918032786885e+00 6.87583488313191e-02 4.71316949873470e-04
2.55409836065574e+00 6.83703462451223e-02 4.70960395273913e-04
2.57901639344262e+00 6.79845331520594e-02 4.70581711089833e-04
2.60393442622951e+00 6.76008971983472e-02 4.70181381131918e-04
2.62885245901639e+00 6.72194260983949e-02 4.69759879831202e-04
2.65377049180328e+00 6.68401076345219e-02 4.69317669859369e-04
2.67868852459016e+00 6.64629296608652e-02 4.68855203778690e-04
2.70360655737705e+00 6.60878800986488e-02 4.68372925214577e-04
2.72852459016393e+00 6.57149469372560e-02 4.67871268210166e-04
2.75344262295082e+00 6.53441182325116e-02 4.67350656684928e-04
2.77836065573771e+00 6.49753821103425e-02 4.66811505540743e-04
2.80327868852459e+00 6.46087267623144e-02 4.66254221755247e-04
2.82819672131148e+00 6.42441404466306e-02 4.65679203737991e-04
2.85311475409836e+00 6.38816114864941e-02 4.65086840786200e-04
2.87803278688525e+00 6.35211282735435e-02 4.64477514118041e-04
2.90295081967213e+00 6.31626792636367e-02 4.63851598286569e-04
2.92786885245902e+00 6.28062529765690e-02 4.63209458983478e-04
2.95278688524590e+00 6.24518379993605e-02 4.62551454442617e-04
2.97770491803279e+00 6.20994229822004e-02 4.61877936421549e-04
3.00262295081967e+00 6.17489966393259e-02 4.61189249564590e-04
3.02754098360656e+00 6.14005477475190e-02 4.60485730858138e-04
3.05245901639344e+00 6.10540651491992e-02 4.59767710562750e-04
3.07737704918033e+00 6.07095377485819e-02 4.59035513500993e-04
3.10229508196721e+00 6.03669545114019e-02 4.58289456975676e-04
3.12721311475410e+00 6.00263044678754e-02 4.57529852051337e-04
3.15213114754098e+00 5.96875767090027e-02 4.56757004443933e-04
3.17704918032787e+00 5.93507603873432e-02 4.55971213899524e-04
3.20196721311475e+00 5.90158447156313e-02 4.55172773658297e-04
3.22688524590164e+00 5.86828189695695e-02 4.54361971301771e-04
3.25180327868852e+00 5.83516724843180e-02 4.53539089934662e-04
3.27672131147541e+00 5.80223946542216e-02 4.52704406215135e-04
3.30163934426230e+00 5.76949749354891e-02 4.51858191531105e-04
3.32655737704918e+00 5.73694028428110e-02 4.51000712813422e-04
3.35147540983607e+00 5.70456679500449e-02 4.50132231934891e-04
3.37639344262295e+00 5.67237598889381e-02 4.49253005188710e-04
3.40131147540984e+00 5.64036683516560e-02 4.48363284063880e-04
3.42622950819672e+00 5.60853830875664e-02 4.47463316016682e-04
3.45114754098361e+00 5.57688939038825e-02 4.46553343885085e-04
3.47606557377049e+00 5.54541906644378e-02 4.45633605378993e-04
3.50098360655738e+00 5.51412632920755e-02 4.44704333816969e-04
3.52590163934426e+00 5.48301017655886e-02 4.43765759167009e-04
3.55081967213115e+00 5.45206961194566e-02 4.42818106248132e-04
3.57573770491803e+00 5.42130364461399e-02 4.41861595768044e-04
3.60065573770492e+00 5.39071128931265e-02 4.40896445033867e-04
3.62557377049180e+00 5.36029156635018e-02 4.39922867390583e-04
3.65049180327869e+00 5.33004350148142e-02 4.38941071729888e-04
3.67540983606557e+00 5.29996612612462e-02 4.37951263170226e-04
3.70032786885246e+00 5.27005847708003e-02 4.36953644022405e-04
3.72524590163934e+00 5.24031959650402e-02 4.35948412090916e-04
3.75016393442623e+00 5.21074853211807e-02 4.34935761636956e-04
3.77508196721312e+00 5.18134433693670e-02 4.33915884036315e-04
3.80000000000000e+00 5.15210606931819e-02 4.32888967242746e-04
3.82491803278689e+00 5.12303279285918e-02 4.31855195316645e-04
3.84983606557377e+00 5.09412357659251e-02 4.30814749055003e-04
3.87475409836066e+00 5.06537749472772e-02 4.29767806619810e-04
3.89967213114754e+00 5.03679362669868e-02 4.28714543017374e-04
3.92459016393443e+00 5.00837105706221e-02 4.27655129640203e-04
3.94950819672131e+00 4.98010887568569e-02 4.26589734869069e-04
3.97442622950820e+00 4.95200617749935e-02 4.25518524935624e-04
3.99934426229508e+00 4.92406206247146e-02 4.24441662372192e-04
4.02426229508197e+00 4.89627563578902e-02 4.23359306872567e-04
4.04918032786885e+00 4.86864600761791e-02 4.22271615876429e-04
4.07409836065574e+00 4.84117229314540e-02 4.21178744073309e-04
4.09901639344262e+00 4.81385361248564e-02 4.20080842964677e-04
4.12393442622951e+00 4.78668909085124e-02 4.18978061424715e-04
4.14885245901639e+00 4.75967785832399e-02 4.17870546506211e-04
4.17377049180328e+00 4.73281904983079e-02 4.16758441975926e-04
4.19868852459016e+00 4.70611180530898e-02 4.15641889118955e-04
4.22360655737705e+00 4.67955526948432e-02 4.14521027283979e-04
4.24852459016393e+00 4.65314859190883e-02 4.13395993411195e-04
4.27344262295082e+00 4.62689092687270e-02 4.12266921614622e-04
4.29836065573771e+00 4.60078143356132e-02 4.11133943705448e-04
4.32327868852459e+00 4.57481927584282e-02 4.09997189715270e-04
4.34819672131148e+00 4.54900362230369e-02 4.08856787438680e-04
4.37311475409836e+00 4.52333364616392e-02 4.07712862028065e-04
4.39803278688525e+00 4.49780852542622e-02 4.06565536495760e-04
4.42295081967213e+00 4.47242744267271e-02 4.05414932440380e-04
4.44786885245902e+00 4.44718958504196e-02 4.04261168708794e-04
4.47278688524590e+00 4.42209414437299e-02 4.03104362121042e-04
4.49770491803279e+00 4.39714031700805e-02 4.01944627959993e-04
4.52262295081967e+00 4.37232730382448e-02 4.00782079536542e-04
4.54754098360656e+00 4.34765431015528e-02 3.99616827803640e-04
4.57245901639344e+00 4.32312054592612e-02 3.98448981826837e-04
4.59737704918033e+00 4.29872522546640e-02 3.97278649465688e-04
4.62229508196721e+00 4.27446756748702e-02 3.96105936108601e-04
4.64721311475410e+00 4.25034679521268e-02 3.94930945353554e-04
4.67213114754098e+00 4.22636213619851e-02 3.93753779466982e-04
4.69704918032787e+00 4.20251282235855e-02 3.92574538970772e-04
4.72196721311475e+00 4.17879808989135e-02 3.91393322275037e-04
4.74688524590164e+00 4.15521717940595e-02 3.90210226119267e-04
4.77180327868852e+00 4.13176933574602e-02 3.89025346212986e-04
4.79672131147541e+00 4.10845380796834e-02 3.87838776039196e-04
4.82163934426230e+00 4.08526984946454e-02 3.86650607493722e-04
4.84655737704918e+00 4.06221671779036e-02 3.85460931316461e-04
4.87147540983607e+00 4.03929367469113e-02 3.84269836699176e-04
4.89639344262295e+00 4.01649998603197e-02 3.83077410936065e-04
4.92131147540984e+00 3.99383492191379e-02 3.81883739838119e-04
4.94622950819672e+00 3.97129775650941e-02 3.80688908148284e-04
4.97114754098361e+00 3.94888776808754e-02 3.79492999161715e-04
4.99606557377049e+00 3.92660423894538e-02 3.78296094386912e-04
5.02098360655738e+00 3.90444645551919e-02 3.77098273944982e-04
5.04590163934426e+00 3.88241370822696e-02 3.75899617151360e-04
5.07081967213115e+00 3.86050529144804e-02 3.74700201420376e-04
5.09573770491803e+00 3.83872050362995e-02 3.73500102846128e-04
5.12065573770492e+00 3.81705864713556e-02 3.72299396592917e-04
5.14557377049180e+00 3.79551902826451e-02 3.71098156534695e-04
5.17049180327869e+00 3.77410095718991e-02 3.69896454932941e-04
5.19540983606557e+00 3.75280374806032e-02 3.68694362812359e-04
5.22032786885246e+00 3.73162671885282e-02 3.67491950509283e-04
5.24524590163934e+00 3.71056919135334e-02 3.66289286634512e-04
5.27016393442623e+00 3.68963049125525e-02 3.65086438620585e-04
5.29508196721312e+00 3.66880994801660e-02 3.63883473089861e-04
5.32000000000000e+00 3.64810689487928e-02 3.62680455512037e-04
5.34491803278689e+00 3.62752066880954e-02 3.61477449897880e-04
5.36983606557377e+00 3.60705061059202e-02 3.60274519153271e-04
5.39475409836066e+00 3.58669606469258e-02 3.59071725434138e-04
5.41967213114754e+00 3.56645637927628e-02 3.57869129814784e-04
5.44459016393443e+00 3.54633090614982e-02 3.56666791990962e-04
5.46950819672131e+00 3.52631900085145e-02 3.55464770621451e-04
5.49442622950820e+00 3.50642002251892e-02 3.54263123828049e-04
5.51934426229508e+00 3.48663333387083e-02 3.53061908244399e-04
5.54426229508197e+00 3.46695830129359e-02 3.51861179515155e-04
5.56918032786885e+00 3.44739429471302e-02 3.50660992630758e-04
5.59409836065574e+00 3.42794068761044e-02 3.49461401612504e-04
5.61901639344262e+00 3.40859685696849e-02 3.48262459230211e-04
5.64393442622951e+00 3.38936218335422e-02 3.47064217324583e-04
5.66885245901639e+00 3.37023605079550e-02 3.45866727279489e-04
5.69377049180328e+00 3.35121784676301e-02 3.44670039120554e-04
5.71868852459016e+00 3.33230696225069e-02 3.43474201986544e-04
5.74360655737705e+00 3.31350279165548e-02 3.42279264445481e-04
5.76852459016393e+00 3.29480473279173e-02 3.41085274195618e-04
5.79344262295082e+00 3.27621218684012e-02 3.39892277796989e-04
5.81836065573771e+00 3.25772455842452e-02 3.38700320975868e-04
5.84327868852459e+00 3.23934125549624e-02 3.37509448930181e-04
5.86819672131148e+00 3.22106168934754e-02 3.36319706039647e-04
5.89311475409836e+00 3.20288527456219e-02 3.35131135605581e-04
5.91803278688525e+00 3.18481142908898e-02 3.33943780144913e-04
5.94295081967213e+00 3.16683957413023e-02 3.32757681822133e-04
5.96786885245902e+00 3.14896913412472e-02 3.31572881621450e-04
5.99278688524590e+00 3.13119953681893e-02 3.30389419777830e-04
6.01770491803279e+00 3.11353021315844e-02 3.29207336065613e-04
6.04262295081967e+00 3.09596059730003e-02 3.28026669523307e-04
6.06754098360656e+00 3.07849012656498e-02 3.26847458206056e-04
6.09245901639344e+00 3.06111824150720e-02 3.25669739463761e-04
6.11737704918033e+00 3.04384438580864e-02 3.24493550349623e-04
6.14229508196721e+00 3.02666800626280e-02 3.23318926834939e-04
6.16721311475410e+00 3.00958855284080e-02 3.22145904216938e-04
6.19213114754098e+00 2.99260547858943e-02 3.20974517391796e-04
6.21704918032787e+00 2.97571823964196e-02 3.19804800593094e-04
6.24196721311475e+00 2.95892629517400e-02 3.18636787156525e-04
6.26688524590164e+00 2.94222910746673e-02 3.17470509782950e-04
6.29180327868853e+00 2.92562614180865e-02 3.16306000925168e-04
6.31672131147541e+00 2.90911686647969e-02 3.15143292042950e-04
6.34163934426230e+00 2.89270075281249e-02 3.13982413988983e-04
6.36655737704918e+00 2.87637727509670e-02 3.12823397267324e-04
6.39147540983607e+00 2.86014591058851e-02 3.11666271784866e-04
6.41639344262295e+00 2.84400613946905e-02 3.10511066627599e-04
6.44131147540984e+00 2.82795744490295e-02 3.09357810309591e-04
6.46622950819672e+00 2.81199931294610e-02 3.08206531022992e-04
6.49114754098361e+00 2.79613123255458e-02 3.07057256397022e-04
6.51606557377049e+00 2.78035269554427e-02 3.05910013281012e-04
6.54098360655738e+00 2.76466319664704e-02 3.04764827985245e-04
6.56590163934426e+00 2.74906223342166e-02 3.03621726635790e-04
6.59081967213115e+00 2.73354930623884e-02 3.02480734489018e-04
6.61573770491803e+00 2.71812391833569e-02 3.01341876285648e-04
6.64065573770492e+00 2.70278557572889e-02 3.00205176487561e-04
6.66557377049180e+00 2.68753378722269e-02 2.99070659048831e-04
6.69049180327869e+00 2.67236806437067e-02 2.97938347209199e-04
6.71540983606557e+00 2.65728792152792e-02 2.96808263722327e-04
6.74032786885246e+00 2.64229287576728e-02 2.95680431192105e-04
6.76524590163934e+00 2.62738244686487e-02 2.94554871421723e-04
6.79016393442623e+00 2.61255615735071e-02 2.93431605749241e-04
6.81508196721312e+00 2.59781353242707e-02 2.92310655272014e-04
6.84000000000000e+00 2.58315409997546e-02 2.91192040628977e-04
6.86491803278689e+00 2.56857739052054e-02 2.90075781804275e-04
6.88983606557377e+00 2.55408293727856e-02 2.88961898343530e-04
6.91475409836066e+00 2.53967027607849e-02 2.87850409571112e-04
6.93967213114754e+00 2.52533894536866e-02 2.86741334378921e-04
6.96459016393443e+00 2.51108848618162e-02 2.85634691035921e-04
6.98950819672131e+00 2.49691844218070e-02 2.84530497397491e-04
7.01442622950820e+00 2.48282835958377e-02 2.83428771214517e-04
7.03934426229508e+00 2.46881778714967e-02 2.82329529533734e-04
7.06426229508197e+00 2.45488627622332e-02 2.81232789006168e-04
7.08918032786885e+00 2.44103338066141e-02 2.80138566093156e-04
7.11409836065574e+00 2.42725865683820e-02 2.79046876865495e-04
7.13901639344262e+00 2.41356166361234e-02 2.77957736822178e-04
7.16393442622951e+00 2.39994196237007e-02 2.76871161088954e-04
7.18885245901639e+00 2.38639911695348e-02 2.75787164711616e-04
7.21377049180328e+00 2.37293269364738e-02 2.74705762086207e-04
7.23868852459016e+00 2.35954226122130e-02 2.73626967251556e-04
7.26360655737705e+00 2.34622739085947e-02 2.72550794084852e-04
7.28852459016394e+00 2.33298765616588e-02 2.71477256110599e-04
7.31344262295082e+00 2.31982263313287e-02 2.70406366328019e-04
7.33836065573771e+00 2.30673190018134e-02 2.69338137399514e-04
7.36327868852459e+00 2.29371503809307e-02 2.68272581840101e-04
7.38819672131148e+00 2.28077163001554e-02 2.67209711832079e-04
7.41311475409836e+00 2.26790126143128e-02 2.66149539057524e-04
7.43803278688525e+00 2.25510352019657e-02 2.65092074880795e-04
7.46295081967213e+00 2.24237799647598e-02 2.64037330618622e-04
7.48786885245902e+00 2.22972428273004e-02 2.62985317014505e-04
7.51278688524590e+00 2.21714197375273e-02 2.61936044507991e-04
7.53770491803279e+00 2.20463066660766e-02 2.60889523414556e-04
7.56262295081967e+00 2.19218996063220e-02 2.59845763749229e-04
7.58754098360656e+00 2.17981945740848e-02 2.58804775067088e-04
7.61245901639344e+00 2.16751876079944e-02 2.57766566636663e-04
7.63737704918033e+00 2.15528747688702e-02 2.56731147696263e-04
7.66229508196721e+00 2.14312521396034e-02 2.55698526954300e-04
7.68721311475410e+00 2.13103158255058e-02 2.54668712845050e-04
7.71213114754098e+00 2.11900619537078e-02 2.53641713699359e-04
7.73704918032787e+00 2.10704866731944e-02 2.52617537576857e-04
7.76196721311475e+00 2.09515861545299e-02 2.51596192114120e-04
7.78688524590164e+00 2.08333565901935e-02 2.50577684689325e-04
7.81180327868852e+00 2.07157941939966e-02 2.49562022665727e-04
7.83672131147541e+00 2.05988952009681e-02 2.48549212916472e-04
7.86163934426230e+00 2.04826558676803e-02 2.47539262067528e-04
