Energy (eV)          EEDF (eV^-(3/2))     First Anisotropy
2.82272727272727e-03 1.45724674479836e+01 1.50909732437641e-02
8.46818181818182e-03 1.41218533700393e+01 2.46169597194940e-02
1.41136363636364e-02 1.36851733117120e+01 3.17054644353497e-02
1.97590909090909e-02 1.32619964022824e+01 3.66315576110986e-02
2.54045454545455e-02 1.28519050913849e+01 4.03759720707953e-02
3.10500000000000e-02 1.24544947439217e+01 4.33240305436420e-02
3.66954545454545e-02 1.20693732342447e+01 4.56823074407156e-02
4.23409090909091e-02 1.16961605643488e+01 4.75797099418818e-02
4.79863636363636e-02 1.13344884847939e+01 4.91043772578038e-02
5.36318181818182e-02 1.09840001348102e+01 5.03203816077674e-02
5.92772727272727e-02 1.06443496872407e+01 5.12763897128565e-02
6.49227272727273e-02 1.03152020098616e+01 5.20106026613381e-02
7.05681818181818e-02 9.99623233287866e+00 5.25537794309566e-02
7.62136363636364e-02 9.68712592882877e+00 5.29311914518362e-02
8.18590909090909e-02 9.38757780306589e+00 5.31639429855445e-02
8.75045454545455e-02 9.09729239141823e+00 5.32698956376420e-02
9.31500000000000e-02 8.81598326983480e+00 5.32643355081544e-02
9.87954545454545e-02 8.54337287060265e+00 5.31604671341025e-02
1.04440909090909e-01 8.27919220908808e+00 5.29697871808712e-02
1.10086363636364e-01 8.02318061995653e+00 5.27023730563575e-02
1.15731818181818e-01 7.77508549477679e+00 5.23671089235258e-02
1.21377272727273e-01 7.53466204015191e+00 5.19718659530141e-02
1.27022727272727e-01 7.30167302877773e+00 5.15236478085822e-02
1.32668181818182e-01 7.07588857069897e+00 5.10287090425332e-02
1.38313636363636e-01 6.85708588612050e+00 5.04926535330065e-02
1.43959090909091e-01 6.64504908120758e+00 4.99205158724000e-02
1.49604545454545e-01 6.43956894073922e+00 4.93168300541899e-02
1.55250000000000e-01 6.24044271642935e+00 4.86856877034197e-02
1.60895454545455e-01 6.04747393173398e+00 4.80307876982781e-02
1.66540909090909e-01 5.86047218347886e+00 4.73554788936403e-02
1.72186363636364e-01 5.67925295818021e+00 4.66627969840792e-02
1.77831818181818e-01 5.50363744608256e+00 4.59554966277345e-02
1.83477272727273e-01 5.33345236836656e+00 4.52360794543171e-02
1.89122727272727e-01 5.16852980277636e+00 4.45068187636257e-02
1.94768181818182e-01 5.00870702040766e+00 4.37697810601552e-02
2.00413636363636e-01 4.85382632499150e+00 4.30268455492515e-02
2.06059090909091e-01 4.70373489520246e+00 4.22797210796139e-02
2.11704545454545e-01 4.55828463660148e+00 4.15299614192680e-02
2.17350000000000e-01 4.41733203294848e+00 4.07789789364553e-02
2.22995454545455e-01 4.28073800700157e+00 4.00280568315762e-02
2.28640909090909e-01 4.14836778102753e+00 3.92783601948766e-02
2.34286363636364e-01 4.02009074594482e+00 3.85309459420679e-02
2.39931818181818e-01 3.89578033044788e+00 3.77867718452855e-02
2.45577272727273e-01 3.77531387800757e+00 3.70467046818671e-02
2.51222727272727e-01 3.65857252406539e+00 3.63115277005174e-02
2.56868181818182e-01 3.54544108005534e+00 3.55819472650285e-02
2.62513636363636e-01 3.43580791967130e+00 3.48585991764582e-02
2.68159090909091e-01 3.32956486760743e+00 3.41420542064468e-02
2.73804545454545e-01 3.22660709428674e+00 3.34328232625187e-02
2.79450000000000e-01 3.12683301104066e+00 3.27313621260084e-02
2.85095454545455e-01 3.03014417118194e+00 3.20380757700368e-02
2.90740909090909e-01 2.93644517162707e+00 3.13533223552250e-02
2.96386363636364e-01 2.84564355993677e+00 3.06774168782261e-02
3.02031818181818e-01 2.75764974198024e+00 3.00106345574587e-02
3.07677272727273e-01 2.67237689458777e+00 2.93532139294817e-02
3.13322727272727e-01 2.58974087888181e+00 2.87053597446286e-02
3.18968181818182e-01 2.50966015799324e+00 2.80672455439478e-02
3.24613636363636e-01 2.43205571656740e+00 2.74390162078916e-02
3.30259090909091e-01 2.35685098216423e+00 2.68207901587795e-02
3.35904545454545e-01 2.28397175053912e+00 2.62126614647991e-02
3.41550000000000e-01 2.21334611163262e+00 2.56147017910012e-02
3.47195454545455e-01 2.14490437937045e+00 2.50269621885462e-02
3.52840909090909e-01 2.07857902218787e+00 2.44494747713564e-02
3.58486363636364e-01 2.01430459707771e+00 2.38822542542185e-02
3.64131818181818e-01 1.95201768436957e+00 2.33252993963455e-02
3.69777272727273e-01 1.89165682577060e+00 2.27785943257266e-02
3.75422727272727e-01 1.83316246313738e+00 2.22421097935678e-02
3.81068181818182e-01 1.77647688014293e+00 2.17158042767218e-02
3.86713636363636e-01 1.72154414530411e+00 2.11996251099004e-02
3.92359090909091e-01 1.66831005641824e+00 2.06935094373089e-02
3.98004545454545e-01 1.61672208757638e+00 2.01973851395970e-02
4.03650000000000e-01 1.56672933686478e+00 1.97111716967624e-02
4.09295454545455e-01 1.51828247658924e+00 1.92347809782239e-02
4.14940909090909e-01 1.47133370417515e+00 1.87681179885705e-02
4.20586363636364e-01 1.42583669540934e+00 1.83110815496817e-02
4.26231818181818e-01 1.38174655834217e+00 1.78635649451491e-02
4.31877272727273e-01 1.33901978936467e+00 1.74254565089709e-02
4.37522727272727e-01 1.29761422992856e+00 1.69966401885366e-02
4.43168181818182e-01 1.25748902521061e+00 1.65769960265453e-02
4.48813636363636e-01 1.21860458378689e+00 1.61664006792621e-02
4.54459090909091e-01 1.18092253833959e+00 1.57647278318371e-02
4.60104545454545e-01 1.14440570810095e+00 1.53718486116257e-02
4.65750000000000e-01 1.10901806187951e+00 1.49876319724148e-02
4.71395454545455e-01 1.07472468278290e+00 1.46119450428788e-02
4.77040909090909e-01 1.04149173350286e+00 1.42446534568750e-02
4.82686363636364e-01 1.00928642317886e+00 1.38856216521475e-02
4.88331818181818e-01 9.78076974803593e-01 1.35347131535854e-02
4.93977272727273e-01 9.47832594097907e-01 1.31917908285410e-02
4.99622727272727e-01 9.18523438906840e-01 1.28567171332642e-02
5.05268181818182e-01 8.90120589916530e-01 1.25293543132974e-02
5.10913636363636e-01 8.62596022110804e-01 1.22095646349472e-02
5.16559090909091e-01 8.35922576977263e-01 1.18972105551168e-02
5.22204545454545e-01 8.10073935896831e-01 1.15921548958994e-02
5.27850000000000e-01 7.85024593996412e-01 1.12942610055024e-02
5.33495454545455e-01 7.60749835154368e-01 1.10033929007589e-02
5.39140909090909e-01 7.37225707449347e-01 1.07194154024677e-02
5.44786363636364e-01 7.14428999683758e-01 1.04421942543830e-02
5.50431818181818e-01 6.92337218331153e-01 1.01715962362085e-02
5.56077272727273e-01 6.70928565485673e-01 9.90748926206428e-03
5.61722727272727e-01 6.50181917216361e-01 9.64974247679715e-03
5.67368181818182e-01 6.30076802826106e-01 9.39822632515551e-03
5.73013636363636e-01 6.10593384647779e-01 9.15281264503196e-03
5.78659090909091e-01 5.91712438381198e-01 8.91337472269334e-03
5.84304545454545e-01 5.73415334242290e-01 8.67978735413874e-03
5.89950000000000e-01 5.55684018468255e-01 8.45192690007127e-03
5.95595454545455e-01 5.38500995612082e-01 8.22967133118640e-03
6.01240909090909e-01 5.21849311176149e-01 8.01290027109611e-03
6.06886363636364e-01 5.05712534982603e-01 7.80149503064064e-03
6.12531818181818e-01 4.90074744866454e-01 7.59533864034959e-03
6.18177272727273e-01 4.74920511056525e-01 7.39431587524313e-03
6.23822727272727e-01 4.60234880863332e-01 7.19831328012274e-03
6.29468181818182e-01 4.46003363990137e-01 7.00721917849634e-03
6.35113636363636e-01 4.32211918231941e-01 6.82092369940227e-03
6.40759090909091e-01 4.18846935563169e-01 6.63931878034962e-03
6.46404545454546e-01 4.05895228785768e-01 6.46229817593661e-03
6.52050000000000e-01 3.93344018445340e-01 6.28975746364145e-03
6.57695454545455e-01 3.81180920290815e-01 6.12159404451156e-03
6.63340909090909e-01 3.69393932988570e-01 5.95770714357625e-03
6.68986363636364e-01 3.57971426344393e-01 5.79799780573057e-03
6.74631818181818e-01 3.46902129766884e-01 5.64236889155647e-03
6.80277272727273e-01 3.36175121205408e-01 5.49072506912597e-03
6.85922727272727e-01 3.25779816317036e-01 5.34297280720526e-03
6.91568181818182e-01 3.15705958064687e-01 5.19902035844582e-03
6.97213636363636e-01 3.05943606594327e-01 5.05877775562750e-03
7.02859090909091e-01 2.96483129390679e-01 4.92215679270706e-03
7.08504545454545e-01 2.87315191821240e-01 4.78907101058309e-03
7.14150000000000e-01 2.78430747879331e-01 4.65943568178444e-03
7.19795454545455e-01 2.69821031303034e-01 4.53316779251692e-03
7.25440909090909e-01 2.61477546882678e-01 4.41018602527808e-03
7.31086363636364e-01 2.53392062119780e-01 4.29041073914038e-03
7.36731818181818e-01 2.45556599064512e-01 4.17376395067848e-03
7.42377272727273e-01 2.37963426481843e-01 4.06016931284197e-03
7.48022727272727e-01 2.30605052186652e-01 3.94955209540229e-03
7.53668181818182e-01 2.23474215678245e-01 3.84183915921898e-03
7.59313636363636e-01 2.16563880975006e-01 3.73695893992421e-03
7.64959090909091e-01 2.09867229648214e-01 3.63484142185621e-03
7.70604545454545e-01 2.03377654125743e-01 3.53541811571458e-03
7.76250000000000e-01 1.97088751142173e-01 3.43862203598205e-03
7.81895454545455e-01 1.90994315449716e-01 3.34438767703617e-03
7.87540909090909e-01 1.85088333667613e-01 3.25265099009969e-03
7.93186363636364e-01 1.79364978375542e-01 3.16334935904816e-03
7.98831818181818e-01 1.73818602337943e-01 3.07642157706992e-03
8.04477272727273e-01 1.68443732956665e-01 2.99180782233329e-03
8.10122727272727e-01 1.63235066847342e-01 2.90944963510415e-03
8.15768181818182e-01 1.58187464624217e-01 2.82928989102907e-03
8.21413636363636e-01 1.53295945828186e-01 2.75127278117352e-03
8.27059090909091e-01 1.48555683997039e-01 2.67534378576427e-03
8.32704545454545e-01 1.43962001923753e-01 2.60144965078628e-03
8.38350000000000e-01 1.39510367021724e-01 2.52953836472729e-03
8.43995454545455e-01 1.35196386871483e-01 2.45955913472831e-03
8.49640909090909e-01 1.31015804868413e-01 2.39146236358645e-03
8.55286363636364e-01 1.26964496040348e-01 2.32519962625339e-03
8.60931818181818e-01 1.23038462960553e-01 2.26072364717308e-03
8.66577272727273e-01 1.19233831819733e-01 2.19798827719419e-03
8.72222727272727e-01 1.15546848588105e-01 2.13694847171005e-03
8.77868181818182e-01 1.11973875322904e-01 2.07756026641425e-03
8.83513636363636e-01 1.08511386578229e-01 2.01978075788408e-03
8.89159090909091e-01 1.05155965916260e-01 1.96356808008125e-03
8.94804545454545e-01 1.01904302549785e-01 1.90888138300369e-03
9.00450000000000e-01 9.87531880624424e-02 1.85568081163244e-03
9.06095454545455e-01 9.56995132554939e-02 1.80392748466203e-03
9.11740909090909e-01 9.27402650679388e-02 1.75358347399126e-03
9.17386363636364e-01 8.98725236151172e-02 1.70461178404394e-03
9.23031818181818e-01 8.70934592965119e-02 1.65697633182784e-03
9.28677272727273e-01 8.44003300145145e-02 1.61064192686398e-03
9.34322727272727e-01 8.17904784584737e-02 1.56557425210724e-03
9.39968181818182e-01 7.92613294903935e-02 1.52173984338487e-03
9.45613636363636e-01 7.68103876036491e-02 1.47910607227786e-03
9.51259090909091e-01 7.44352344539152e-02 1.43764112634639e-03
9.56904545454546e-01 7.21335264819283e-02 1.39731399095802e-03
9.62550000000000e-01 6.99029925924934e-02 1.35809443144301e-03
9.68195454545455e-01 6.77414319218800e-02 1.31995297522336e-03
9.73840909090909e-01 6.56467116582582e-02 1.28286089457844e-03
9.79486363636364e-01 6.36167649449306e-02 1.24679018940663e-03
9.85131818181818e-01 6.16495888335781e-02 1.21171357059985e-03
9.90777272727273e-01 5.97432423150658e-02 1.17760444343365e-03
9.96422727272727e-01 5.78958443974027e-02 1.14443689173580e-03
1.00206818181818e+00 5.61055722548523e-02 1.11218566131891e-03
1.00771363636364e+00 5.43706594276295e-02 1.08082614423744e-03
1.01335909090909e+00 5.26893940859284e-02 1.05033436685918e-03
1.01900454545455e+00 5.10601173126430e-02 1.02068696967145e-03
1.02465000000000e+00 4.94812215156889e-02 9.91861195688950e-04
1.03029545454545e+00 4.79511487868803e-02 9.63834876137112e-04
1.03594090909091e+00 4.64683894177053e-02 9.36586415305535e-04
1.04158636363636e+00 4.50314803586177e-02 9.10094777797478e-04
1.04723181818182e+00 4.36390038247148e-02 8.84339474022465e-04
1.05287727272727e+00 4.22895858492913e-02 8.59300547941942e-04
1.05852272727273e+00 4.09818949739818e-02 8.34958561883038e-04
1.06416818181818e+00 3.97146409008713e-02 8.11294590013535e-04
1.06981363636364e+00 3.84865732214007e-02 7.88290197329485e-04
1.07545909090909e+00 3.72964802122221e-02 7.65927432883866e-04
1.08110454545455e+00 3.61431876002280e-02 7.44188817155511e-04
1.08675000000000e+00 3.50255574418717e-02 7.23057329640316e-04
1.09239545454545e+00 3.39424869637259e-02 7.02516398244997e-04
1.09804090909091e+00 3.28929075097184e-02 6.82549887432713e-04
1.10368636363636e+00 3.18757834525952e-02 6.63142088063461e-04
1.10933181818182e+00 3.08901112049622e-02 6.44277706074879e-04
1.11497727272727e+00 2.99349181973106e-02 6.25941852756519e-04
1.12062272727273e+00 2.90092619490025e-02 6.08120033052385e-04
1.12626818181818e+00 2.81122291155179e-02 5.90798139862770e-04
1.13191363636364e+00 2.72429345886094e-02 5.73962438421462e-04
1.13755909090909e+00 2.64005206427916e-02 5.57599560508274e-04
1.14320454545455e+00 2.55841560626890e-02 5.41696494668699e-04
1.14885000000000e+00 2.47930353482881e-02 5.26240576623042e-04
1.15449545454545e+00 2.40263778956310e-02 5.11219480950829e-04
1.16014090909091e+00 2.32834272502554e-02 4.96621211950537e-04
1.16578636363636e+00 2.25634503379692e-02 4.82434095698210e-04
1.17143181818182e+00 2.18657367635602e-02 4.68646771339883e-04
1.17707727272727e+00 2.11895980885880e-02 4.55248183511094e-04
1.18272272727273e+00 2.05343671726203e-02 4.42227573428165e-04
1.18836818181818e+00 1.98993974996821e-02 4.29574474140505e-04
1.19401363636364e+00 1.92840625412357e-02 4.17278698972844e-04
1.19965909090909e+00 1.86877551512891e-02 4.05330336769836e-04
1.20530454545455e+00 1.81098869496541e-02 3.93719744415232e-04
1.21095000000000e+00 1.75498877584480e-02 3.82437539506270e-04
1.21659545454545e+00 1.70072050230380e-02 3.71474593930388e-04
1.22224090909091e+00 1.64813032827243e-02 3.60822026896630e-04
1.22788636363636e+00 1.59716636270665e-02 3.50471198815382e-04
1.23353181818182e+00 1.54777831986769e-02 3.40413704671354e-04
1.23917727272727e+00 1.49991746827647e-02 3.30641368194054e-04
1.24482272727273e+00 1.45353658400930e-02 3.21146235132207e-04
1.25046818181818e+00 1.40858990307480e-02 3.11920569417658e-04
1.25611363636364e+00 1.36503307631848e-02 3.02956844649555e-04
1.26175909090909e+00 1.32282312655858e-02 2.94247740289319e-04
1.26740454545455e+00 1.28191840499149e-02 2.85786135992578e-04
1.27305000000000e+00 1.24227855124478e-02 2.77565106064822e-04
1.27869545454545e+00 1.20386445244557e-02 2.69577914555664e-04
1.28434090909091e+00 1.16663820569758e-02 2.61818009992385e-04
1.28998636363636e+00 1.13056307964976e-02 2.54279020713854e-04
1.29563181818182e+00 1.09560347925038e-02 2.46954749869205e-04
1.30127727272727e+00 1.06172490966305e-02 2.39839170980892e-04
1.30692272727273e+00 1.02889394315978e-02 2.32926422902509e-04
1.31256818181818e+00 9.97078185445748e-03 2.26210806785370e-04
1.31821363636364e+00 9.66246243735884e-03 2.19686779825053e-04
1.32385909090909e+00 9.36367696383446e-03 2.13348952274128e-04
1.32950454545455e+00 9.07413062060991e-03 2.07192083179649e-04
1.33515000000000e+00 8.79353771445528e-03 2.01211076217428e-04
1.34079545454545e+00 8.52162138281551e-03 1.95400975978386e-04
1.34644090909091e+00 8.25811332784916e-03 1.89756964016276e-04
1.35208636363636e+00 8.00275354472914e-03 1.84274355320361e-04
1.35773181818182e+00 7.75529007182619e-03 1.78948594566365e-04
1.36337727272727e+00 7.51547873560038e-03 1.73775252766890e-04
1.36902272727273e+00 7.28308291594985e-03 1.68750023512623e-04
1.37466818181818e+00 7.05787330806358e-03 1.63868720611460e-04
1.38031363636364e+00 6.83962769643505e-03 1.59127273509316e-04
1.38595909090909e+00 6.62813073968414e-03 1.54521724977982e-04
1.39160454545455e+00 6.42317375265839e-03 1.50048227929036e-04
1.39725000000000e+00 6.22455450575901e-03 1.45703042302425e-04
1.40289545454545e+00 6.03207702034542e-03 1.41482532275139e-04
1.40854090909091e+00 5.84555138024559e-03 1.37383163312049e-04
1.41418636363636e+00 5.66479353965114e-03 1.33401499517657e-04
1.41983181818182e+00 5.48962514607265e-03 1.29534200841188e-04
1.42547727272727e+00 5.31987335996239e-03 1.25778020564525e-04
1.43112272727273e+00 5.15537068842011e-03 1.22129802513235e-04
1.43676818181818e+00 4.99595481676439e-03 1.18586479241296e-04
1.44241363636364e+00 4.84146844855753e-03 1.15145068686009e-04
1.44805909090909e+00 4.69175915316619e-03 1.11802672397953e-04
1.45370454545455e+00 4.54667921168580e-03 1.08556473171419e-04
1.45935000000000e+00 4.40608547473335e-03 1.05403732731798e-04
1.46499545454545e+00 4.26983921777635e-03 1.02341789649676e-04
1.47064090909091e+00 4.13780600756214e-03 9.93680571505939e-05
1.47628636363636e+00 4.00985556627709e-03 9.64800211379227e-05
1.48193181818182e+00 3.88586164608815e-03 9.36752381187934e-05
1.48757727272727e+00 3.76570190159303e-03 9.09513333303479e-05
1.49322272727273e+00 3.64925777198160e-03 8.83059986784708e-05
1.49886818181818e+00 3.53641436190680e-03 8.57369913553178e-05
1.50451363636364e+00 3.42706032823936e-03 8.32421314008017e-05
1.51015909090909e+00 3.32108777208199e-03 8.08193003593550e-05
1.51580454545455e+00 3.21839212981341e-03 7.84664395250036e-05
1.52145000000000e+00 3.11887207232290e-03 7.61815482295307e-05
1.52709545454545e+00 3.02242940270355e-03 7.39626822912479e-05
1.53274090909091e+00 2.92896896160773e-03 7.18079523948419e-05
1.53838636363636e+00 2.83839853118366e-03 6.97155226221947e-05
1.54403181818182e+00 2.75062874618014e-03 6.76836089191836e-05
1.54967727272727e+00 2.66557300374520e-03 6.57104777043838e-05
1.55532272727273e+00 2.58314737993108e-03 6.37944443507088e-05
1.56096818181818e+00 2.50327054542933e-03 6.19338721406370e-05
1.56661363636364e+00 2.42586368540560e-03 6.01271704917949e-05
1.57225909090909e+00 2.35085042300867e-03 5.83727939448122e-05
1.57790454545455e+00 2.27815674231526e-03 5.66692408682339e-05
1.58355000000000e+00 2.20771091693531e-03 5.50150521958101e-05
1.58919545454545e+00 2.13944343765848e-03 5.34088102775802e-05
1.59484090909091e+00 2.07328694539698e-03 5.18491376854903e-05
1.60048636363636e+00 2.00917616324670e-03 5.03346961259769e-05
1.60613181818182e+00 1.94704783350430e-03 4.88641853103221e-05
1.61177727272727e+00 1.88684065387341e-03 4.74363419255583e-05
1.61742272727273e+00 1.82849521830858e-03 4.60499385192293e-05
1.62306818181818e+00 1.77195395740783e-03 4.47037827148074e-05
1.62871363636364e+00 1.71716108166477e-03 4.33967159225715e-05
1.63435909090909e+00 1.66406252728961e-03 4.21276125814028e-05
1.64000454545455e+00 1.61260590171095e-03 4.08953792059649e-05
1.64565000000000e+00 1.56274043299462e-03 3.96989534580771e-05
1.65129545454545e+00 1.51441691867022e-03 3.85373032987348e-05
1.65694090909091e+00 1.46758767822349e-03 3.74094261101740e-05
1.66258636363636e+00 1.42220650504477e-03 3.63143478937418e-05
1.66823181818182e+00 1.37822862180829e-03 3.52511224399566e-05
1.67387727272727e+00 1.33561063535189e-03 3.42188305698251e-05
1.67952272727273e+00 1.29431049476786e-03 3.32165793177403e-05
1.68516818181818e+00 1.25428744923576e-03 3.22435013453950e-05
1.69081363636364e+00 1.21550200785138e-03 3.12987540065480e-05
1.69645909090909e+00 1.17791590125335e-03 3.03815187818350e-05
1.70210454545455e+00 1.14149204307623e-03 2.94910005796225e-05
1.70775000000000e+00 1.10619449411746e-03 2.86264270548520e-05
1.71339545454545e+00 1.07198842614179e-03 2.77870479850494e-05
1.71904090909091e+00 1.03884008822593e-03 2.69721346266345e-05
1.72468636363636e+00 1.00671677277081e-03 2.61809791249651e-05
1.73033181818182e+00 9.75586783891691e-04 2.54128939060984e-05
1.73597727272727e+00 9.45419405503511e-04 2.46672111190593e-05
1.74162272727273e+00 9.16184871632137e-04 2.39432820384827e-05
1.74726818181818e+00 8.87854336583284e-04 2.32404766287557e-05
1.75291363636364e+00 8.60399846506196e-04 2.25581828663776e-05
1.75855909090909e+00 8.33794312215935e-04 2.18958063204061e-05
1.76420454545455e+00 8.08011481927493e-04 2.12527696406404e-05
1.76985000000000e+00 7.83025915872152e-04 2.06285120591263e-05
1.77549545454545e+00 7.58812960694557e-04 2.00224889321894e-05
1.78114090909091e+00 7.35348725611954e-04 1.94341712695424e-05
