Energy (eV)          EEDF (eV^-(3/2))     First Anisotropy
2.77500000000000e-03 6.61909415317716e+01 9.24593219309861e-02
8.32500000000000e-03 6.07161795803292e+01 1.46856254643506e-01
1.38750000000000e-02 5.56942442201301e+01 1.79035612599986e-01
1.94250000000000e-02 5.10876814169058e+01 1.95797871846046e-01
2.49750000000000e-02 4.68621350213408e+01 2.04278587740717e-01
3.05250000000000e-02 4.29860905378975e+01 2.07479877481002e-01
3.60750000000000e-02 3.94306400869453e+01 2.07082040582579e-01
4.16250000000000e-02 3.61692668072593e+01 2.04156620411140e-01
4.71750000000000e-02 3.31776470909442e+01 1.99438573628372e-01
5.27250000000000e-02 3.04334691758339e+01 1.93455085941176e-01
5.82750000000000e-02 2.79162667424128e+01 1.86595402743215e-01
6.38250000000000e-02 2.56072662742100e+01 1.79152412268499e-01
6.93750000000000e-02 2.34892470432677e+01 1.71349168879972e-01
7.49250000000000e-02 2.15464126764419e+01 1.63356715271925e-01
8.04750000000000e-02 1.97642733446663e+01 1.55306552744276e-01
8.60250000000000e-02 1.81295376965365e+01 1.47299650523507e-01
9.15750000000000e-02 1.66300137302461e+01 1.39413123658347e-01
9.71250000000000e-02 1.52545178645680e+01 1.31705286402688e-01
1.02675000000000e-01 1.39927915307247e+01 1.24219541226247e-01
1.08225000000000e-01 1.28354246630834e+01 1.16987413165811e-01
1.13775000000000e-01 1.17737855180607e+01 1.10030944077733e-01
1.19325000000000e-01 1.07999562978226e+01 1.03364599197770e-01
1.24875000000000e-01 9.90667409865396e+00 9.69967966521029e-02
1.30425000000000e-01 9.08727674358530e+00 9.09311417940613e-02
1.35975000000000e-01 8.33565309529324e+00 8.51674279775927e-02
1.41525000000000e-01 7.64619747870227e+00 7.97024508201687e-02
1.47075000000000e-01 7.01376787336857e+00 7.45306723607348e-02
1.52625000000000e-01 6.43364756384061e+00 6.96447636060873e-02
1.58175000000000e-01 5.90150996198176e+00 6.50360479939285e-02
1.63725000000000e-01 5.41338633889657e+00 6.06948637447941e-02
1.69275000000000e-01 4.96563622580268e+00 5.66108595541426e-02
1.74825000000000e-01 4.55492026309541e+00 5.27732353259450e-02
1.80375000000000e-01 4.17817529511104e+00 4.91709374806365e-02
1.85925000000000e-01 3.83259152484324e+00 4.57928166454708e-02
1.91475000000000e-01 3.51559155823066e+00 4.26277541526421e-02
1.97025000000000e-01 3.22481118172597e+00 3.96647626542825e-02
2.02575000000000e-01 2.95808172978396e+00 3.68930652565450e-02
2.08125000000000e-01 2.71341391076373e+00 3.43021568339524e-02
2.13675000000000e-01 2.48898297061719e+00 3.18818505765754e-02
2.19225000000000e-01 2.28311508371337e+00 2.96223123204408e-02
2.24775000000000e-01 2.09427486930011e+00 2.75140847955341e-02
2.30325000000000e-01 1.92105394049976e+00 2.55481035798149e-02
2.35875000000000e-01 1.76216040043634e+00 2.37157062590719e-02
2.41425000000000e-01 1.61640920715539e+00 2.20086360510024e-02
2.46975000000000e-01 1.48271333547716e+00 2.04190409494128e-02
2.52525000000000e-01 1.36007566986746e+00 1.89394692742417e-02
2.58075000000000e-01 1.24758156786262e+00 1.75628623697993e-02
2.63625000000000e-01 1.14439203858580e+00 1.62825450727656e-02
2.69175000000000e-01 1.04973748547940e+00 1.50922144694440e-02
2.74725000000000e-01 9.62911966586523e-01 1.39859273755280e-02
2.80275000000000e-01 8.83267929573924e-01 1.29580868987017e-02
2.85825000000000e-01 8.10211382229929e-01 1.20034283826886e-02
2.91375000000000e-01 7.43197462418442e-01 1.11170049791527e-02
2.96925000000000e-01 6.81726374449358e-01 1.02941730496853e-02
3.02475000000000e-01 6.25339661558474e-01 9.53057756276288e-03
3.08025000000000e-01 5.73616786696752e-01 8.82213761900444e-03
3.13575000000000e-01 5.26171996128123e-01 8.16503221142641e-03
3.19125000000000e-01 4.82651442444303e-01 7.55568630494749e-03
3.24675000000000e-01 4.42730545539794e-01 6.99075730052233e-03
3.30225000000000e-01 4.06111571864996e-01 6.46712193344076e-03
3.35775000000000e-01 3.72521413903288e-01 5.98186364207666e-03
3.41325000000000e-01 3.41709553311218e-01 5.53226043232005e-03
3.46875000000000e-01 3.13446192530737e-01 5.11577325374979e-03
3.52425000000000e-01 2.87520540938855e-01 4.73003489602674e-03
3.57975000000000e-01 2.63739242752694e-01 4.37283940776398e-03
3.63525000000000e-01 2.41924934965106e-01 4.04213203506267e-03
3.69075000000000e-01 2.21914924555810e-01 3.73599967281142e-03
3.74625000000000e-01 2.03559975112586e-01 3.45266181858505e-03
3.80175000000000e-01 1.86723193813022e-01 3.19046201641731e-03
3.85725000000000e-01 1.71279010465843e-01 2.94785977575163e-03
3.91275000000000e-01 1.57112240997413e-01 2.72342294940020e-03
3.96825000000000e-01 1.44117228398818e-01 2.51582055328485e-03
4.02375000000000e-01 1.32197054726620e-01 2.32381601002371e-03
4.07925000000000e-01 1.21262818280346e-01 2.14626079800737e-03
4.13475000000000e-01 1.11232970565805e-01 1.98208848742679e-03
4.19025000000000e-01 1.02032708099269e-01 1.83030914472935e-03
4.24575000000000e-01 9.35934145165321e-02 1.69000408715329e-03
4.30125000000000e-01 8.58521488260506e-02 1.56032096929284e-03
4.35675000000000e-01 7.87511759895075e-02 1.44046918405010e-03
4.41225000000000e-01 7.22375363288350e-02 1.32971556081348e-03
4.46775000000000e-01 6.62626505482916e-02 1.22738034424663e-03
4.52325000000000e-01 6.07819574258151e-02 1.13283343766104e-03
4.57875000000000e-01 5.57545814715202e-02 1.04549089556555e-03
4.63425000000000e-01 5.11430280747115e-02 9.64811650627331e-04
4.68975000000000e-01 4.69129038657891e-02 8.90294460930530e-04
4.74525000000000e-01 4.30326602074820e-02 8.21475064073775e-04
4.80075000000000e-01 3.94733579023451e-02 7.57923525300470e-04
4.85625000000000e-01 3.62084513616873e-02 6.99241767499864e-04
4.91175000000000e-01 3.32135906262433e-02 6.45061271549166e-04
4.96725000000000e-01 3.04664397620421e-02 5.95040936083956e-04
5.02275000000000e-01 2.79465102770530e-02 5.48865086383145e-04
5.07825000000000e-01 2.56350083162156e-02 5.06241622634018e-04
5.13375000000000e-01 2.35146944952205e-02 4.66900298401126e-04
5.18925000000000e-01 2.15697553276699e-02 4.30591120658765e-04
5.24475000000000e-01 1.97856852867091e-02 3.97082863260224e-04
5.30025000000000e-01 1.81491786215354e-02 3.66161686207331e-04
5.35575000000000e-01 1.66480301219421e-02 3.37629853551210e-04
5.41125000000000e-01 1.52710440907900e-02 3.11304543199684e-04
5.46675000000000e-01 1.40079508455171e-02 2.87016742328736e-04
5.52225000000000e-01 1.28493301259450e-02 2.64610222495359e-04
5.57775000000000e-01 1.17865408371529e-02 2.43940588927547e-04
5.63325000000000e-01 1.08116566034337e-02 2.24874398824719e-04
5.68875000000000e-01 9.91740665268912e-03 2.07288343839299e-04
5.74425000000000e-01 9.09712159037361e-03 1.91068492228178e-04
5.79975000000000e-01 8.34468365856530e-03 1.76109586462173e-04
5.85525000000000e-01 7.65448110919082e-03 1.62314392363179e-04
5.91075000000000e-01 7.02136635111614e-03 1.49593096103256e-04
5.96625000000000e-01 6.44061755896052e-03 1.37862745648277e-04
6.02175000000000e-01 5.90790345730878e-03 1.27046733461645e-04
6.07725000000000e-01 5.41925101767947e-03 1.17074317501968e-04
6.13275000000000e-01 4.97101582733006e-03 1.07880177752975e-04
6.18825000000000e-01 4.55985490890718e-03 9.94040057153422e-05
6.24375000000000e-01 4.18270178822836e-03 9.15901244690251e-05
6.29925000000000e-01 3.83674362424869e-03 8.43871370819925e-05
6.35475000000000e-01 3.51940023064568e-03 7.77476012974889e-05
6.41025000000000e-01 3.22830483256339e-03 7.16277285778562e-05
6.46575000000000e-01 2.96128641499808e-03 6.59871057190841e-05
6.52125000000000e-01 2.71635353117788e-03 6.07884373772271e-05
6.57675000000000e-01 2.49167945017818e-03 5.59973079662126e-05
6.63225000000000e-01 2.28558853300222e-03 5.15819614968763e-05
6.68775000000000e-01 2.09654373551850e-03 4.75130980298116e-05
6.74325000000000e-01 1.92313514505088e-03 4.37636855102978e-05
6.79875000000000e-01 1.76406946512623e-03 4.03087858426219e-05
6.85425000000000e-01 1.61816036995591e-03 3.71253941439588e-05
6.90975000000000e-01 1.48431965671402e-03 3.41922901950387e-05
6.96525000000000e-01 1.36154912962530e-03 3.14899011764788e-05
7.02075000000000e-01 1.24893315533353e-03 2.90001748462572e-05
7.07625000000000e-01 1.14563183402763e-03 2.67064623756881e-05
7.13175000000000e-01 1.05087473539528e-03 2.45934101187474e-05
7.18725000000000e-01 9.63955152686048e-04 2.26468596429817e-05
7.24275000000000e-01 8.84224832030493e-04 2.08537553998025e-05
7.29825000000000e-01 8.11089137705971e-04 1.92020594579735e-05
7.35375000000000e-01 7.44002617291263e-04 1.76806727667929e-05
7.40925000000000e-01 6.82464933634600e-04 1.62793624550834e-05
7.46475000000000e-01 6.26017133295303e-04 1.49886947088370e-05
7.52025000000000e-01 5.74238223628785e-04 1.37999728044374e-05
7.57575000000000e-01 5.26742032986490e-04 1.27051799059635e-05
7.63125000000000e-01 4.83174330613878e-04 1.16969262643632e-05
7.68675000000000e-01 4.43210184766396e-04 1.07684004834176e-05
7.74225000000000e-01 4.06551539340034e-04 9.91332454256092e-06
7.79775000000000e-01 3.72924990942769e-04 9.12591228991755e-06
7.85325000000000e-01 3.42079749828092e-04 8.40083114048908e-06
7.90875000000000e-01 3.13785769483086e-04 7.73316673440999e-06
7.96425000000000e-01 2.87832030921366e-04 7.11839032869044e-06
8.01975000000000e-01 2.64024968884970e-04 6.55232871299420e-06
8.07525000000000e-01 2.42187028217696e-04 6.03113645585560e-06
8.13075000000000e-01 2.22155339643173e-04 5.55127030241448e-06
8.18625000000000e-01 2.03780505071525e-04 5.10946555832712e-06
8.24175000000000e-01 1.86925483375308e-04 4.70271430707649e-06
8.29725000000000e-01 1.71464568324770e-04 4.32824531952920e-06
8.35275000000000e-01 1.57282451059764e-04 3.98350552533835e-06
8.40825000000000e-01 1.44273360106161e-04 3.66614292573651e-06
8.46375000000000e-01 1.32340272522921e-04 3.37399083645921e-06
8.51925000000000e-01 1.21394190296487e-04 3.10505335804304e-06
8.57475000000000e-01 1.11353476585802e-04 2.85749197860451e-06
8.63025000000000e-01 1.02143246867586e-04 2.62961322147353e-06
8.68575000000000e-01 9.36948104409958e-05 2.41985725677350e-06
8.74125000000000e-01 8.59451581263565e-05 2.22678740224924e-06
8.79675000000000e-01 7.88364923371727e-05 2.04908044438167e-06
8.85225000000000e-01 7.23157960206615e-05 1.88551771613072e-06
8.90775000000000e-01 6.63344372519234e-05 1.73497687254665e-06
8.96325000000000e-01 6.08478065327823e-05 1.59642431001624e-06
9.01875000000000e-01 5.58149840902367e-05 1.46890817909121e-06
9.07425000000000e-01 5.11984346932041e-05 1.35155194470792e-06
9.12975000000000e-01 4.69637277114768e-05 1.24354845117492e-06
9.18525000000000e-01 4.30792803290624e-05 1.14415445259846e-06
9.24075000000000e-01 3.95161219967730e-05 1.05268557245837e-06
9.29625000000000e-01 3.62476783673287e-05 9.68511658855435e-07
9.35175000000000e-01 3.32495731015459e-05 8.91052504544928e-07
9.40725000000000e-01 3.04994460674618e-05 8.19773903265002e-07
9.46275000000000e-01 2.79767865765099e-05 7.54184016079079e-07
9.51825000000000e-01 2.56627804130057e-05 6.93830023491526e-07
9.57375000000000e-01 2.35401695160770e-05 6.38295040979072e-07
9.62925000000000e-01 2.15931232675320e-05 5.87195277318466e-07
9.68475000000000e-01 1.98071204257215e-05 5.40177416694833e-07
9.74025000000000e-01 1.81688408248443e-05 4.96916207055363e-07
9.79575000000000e-01 1.66660660319839e-05 4.57112238538840e-07
9.85125000000000e-01 1.52875882209632e-05 4.20489897071672e-07
9.90675000000000e-01 1.40231265833953e-05 3.86795479383841e-07
9.96225000000000e-01 1.28632506535120e-05 3.55795456770896e-07
1.00177500000000e+00 1.17993099749239e-05 3.27274875917593e-07
1.00732500000000e+00 1.08233695847579e-05 3.01035886011718e-07
1.01287500000000e+00 9.92815083400820e-06 2.76896382218512e-07
1.01842500000000e+00 9.10697710273401e-06 2.54688756362767e-07
1.02397500000000e+00 8.35372400524239e-06 2.34258746381916e-07
1.02952500000000e+00 7.66277371388283e-06 2.15464376773966e-07
1.03507500000000e+00 7.02897306079601e-06 1.98174982873264e-07
1.04062500000000e+00 6.44759510513603e-06 1.82270312348880e-07
1.04617500000000e+00 5.91430387913114e-06 1.67639697838241e-07
1.05172500000000e+00 5.42512205005585e-06 1.54181295106323e-07
1.05727500000000e+00 4.97640125693474e-06 1.41801381560974e-07
1.06282500000000e+00 4.56479490074637e-06 1.30413710360917e-07
1.06837500000000e+00 4.18723318519436e-06 1.19938915727226e-07
1.07392500000000e+00 3.84090022189741e-06 1.10303965414083e-07
1.07947500000000e+00 3.52321302924685e-06 1.01441656612640e-07
1.08502500000000e+00 3.23180226830332e-06 9.32901518549667e-08
1.09057500000000e+00 2.96449457205919e-06 8.57925517552900e-08
1.09612500000000e+00 2.71929633627683e-06 7.88965016747361e-08
1.10167500000000e+00 2.49437885101345e-06 7.25538296253628e-08
1.10722500000000e+00 2.28806466194193e-06 6.67202129407771e-08
1.11277500000000e+00 2.09881505974941e-06 6.13548714355971e-08
1.11832500000000e+00 1.92521860430826e-06 5.64202849556597e-08
1.12387500000000e+00 1.76598059803192e-06 5.18819333864247e-08
1.12942500000000e+00 1.61991342990669e-06 4.77080573395666e-08
1.13497500000000e+00 1.48592771818472e-06 4.38694378783057e-08
1.14052500000000e+00 1.36302418567938e-06 4.03391937715312e-08
1.14607500000000e+00 1.25028620706837e-06 3.70925948860930e-08
1.15162500000000e+00 1.14687297262172e-06 3.41068904365684e-08
1.15717500000000e+00 1.05201321736909e-06 3.13611509130873e-08
1.16272500000000e+00 9.64999468937954e-07 2.88361226011005e-08
1.16827500000000e+00 8.85182771162679e-07 2.65140936929276e-08
1.17382500000000e+00 8.11967844112482e-07 2.43787710700934e-08
1.17937500000000e+00 7.44808644441529e-07 2.24151669083974e-08
1.18492500000000e+00 6.83204292949783e-07 2.06094943248400e-08
1.19047500000000e+00 6.26695338982007e-07 1.89490713474040e-08
1.19602500000000e+00 5.74860333804490e-07 1.74222325456871e-08
1.20157500000000e+00 5.27312687403436e-07 1.60182477128698e-08
1.20712500000000e+00 4.83697785262744e-07 1.47272470378509e-08
1.21267500000000e+00 4.43690343617852e-07 1.35401522509038e-08
1.21822500000000e+00 4.06991983460898e-07 1.24486132672142e-08
1.22377500000000e+00 3.73329005203916e-07 1.14449498904176e-08
1.22932500000000e+00 3.42450347403306e-07 1.05220981730303e-08
1.23487500000000e+00 3.14125714321581e-07 9.67356106268897e-09
1.24042500000000e+00 2.88143858361554e-07 8.89336299259848e-09
1.24597500000000e+00 2.64311004563243e-07 8.17600810174033e-09
1.25152500000000e+00 2.42449405413223e-07 7.51644179539224e-09
1.25707500000000e+00 2.22396015188086e-07 6.91001537952929e-09
1.26262500000000e+00 2.04001273945141e-07 6.35245352387034e-09
1.26817500000000e+00 1.87127992091245e-07 5.83982432784632e-09
1.27372500000000e+00 1.71650327210787e-07 5.36851178173271e-09
1.27927500000000e+00 1.57452845521923e-07 4.93519043172773e-09
1.28482500000000e+00 1.44429660961301e-07 4.53680207298525e-09
1.29037500000000e+00 1.32483645476525e-07 4.17053430862870e-09
1.29592500000000e+00 1.21525704636615e-07 3.83380082567737e-09
1.30147500000000e+00 1.11474113157934e-07 3.52422325069564e-09
1.30702500000000e+00 1.02253905389855e-07 3.23961445891123e-09
1.31257500000000e+00 9.37963162143649e-08 2.97796322061465e-09
1.31812500000000e+00 8.60382681897836e-08 2.73742007791794e-09
1.32367500000000e+00 7.89219011136752e-08 2.51628435347943e-09
1.32922500000000e+00 7.23941404963837e-08 2.31299220065212e-09
1.33477500000000e+00 6.64063017268348e-08 2.12610561173820e-09
1.34032500000000e+00 6.09137269784384e-08 1.95430230768371e-09
1.34587500000000e+00 5.58754521471014e-08 1.79636643866740e-09
1.35142500000000e+00 5.12539013373476e-08 1.65118003067233e-09
1.35697500000000e+00 4.70146066179948e-08 1.51771511831296e-09
1.36252500000000e+00 4.31259509573011e-08 1.39502650896254e-09
1.36807500000000e+00 3.95589324203701e-08 1.28224512761688e-09
1.37362500000000e+00 3.62869478701773e-08 1.17857189597211e-09
1.37917500000000e+00 3.32855945590416e-08 1.08327210291286e-09
1.38472500000000e+00 3.05324881307931e-08 9.95670227030318e-10
1.39027500000000e+00 2.80070956762825e-08 9.15145174938507e-10
1.39582500000000e+00 2.56905825971433e-08 8.41125902055810e-10
1.40137500000000e+00 2.35656721357068e-08 7.73087385185398e-10
1.40692500000000e+00 2.16165165234275e-08 7.10546918682293e-10
1.41247500000000e+00 1.98285787868363e-08 6.53060708252848e-10
1.41802500000000e+00 1.81885243295173e-08 6.00220738510156e-10
1.42357500000000e+00 1.66841214815188e-08 5.51651892320673e-10
1.42912500000000e+00 1.53041502744859e-08 5.07009301736305e-10
1.43467500000000e+00 1.40383187621532e-08 4.65975911924725e-10
1.44022500000000e+00 1.28771862621064e-08 4.28260240999710e-10
1.44577500000000e+00 1.18120929463456e-08 3.93594320023354e-10
1.45132500000000e+00 1.08350952555287e-08 3.61731798712482e-10
1.45687500000000e+00 9.93890665520891e-09 3.32446203541278e-10
1.46242500000000e+00 9.11684329222224e-09 3.05529335999008e-10
1.46797500000000e+00 8.36277414592446e-09 2.80789799743309e-10
1.47352500000000e+00 7.67107530250152e-09 2.58051646292439e-10
1.47907500000000e+00 7.03658801132715e-09 2.37153129730663e-10
1.48462500000000e+00 6.45458021054841e-09 2.17945561665100e-10
1.49017500000000e+00 5.92071123495341e-09 2.00292258375405e-10
1.49572500000000e+00 5.43099944290957e-09 1.84067572744355e-10
1.50127500000000e+00 4.98179252093117e-09 1.69156004152345e-10
1.50682500000000e+00 4.56974024440514e-09 1.55451380066003e-10
1.51237500000000e+00 4.19176949132211e-09 1.42856103554568e-10
1.51792500000000e+00 3.84506132266301e-09 1.31280461430717e-10
1.52347500000000e+00 3.52702995850469e-09 1.20641988138444e-10
1.52902500000000e+00 3.23530349304648e-09 1.10864880902403e-10
1.53457500000000e+00 2.96770620472881e-09 1.01879462013473e-10
1.54012500000000e+00 2.72224232951099e-09 9.36216844568015e-11
1.54567500000000e+00 2.49708117628800e-09 8.60326773934084e-11
1.55122500000000e+00 2.29054347343572e-09 7.90583282869203e-11
1.55677500000000e+00 2.10108884465591e-09 7.26488987248654e-11
1.56232500000000e+00 1.92730432071470e-09 6.67586712212077e-11
1.56787500000000e+00 1.76789380139413e-09 6.13456245049666e-11
1.57342500000000e+00 1.62166838906312e-09 5.63711350004410e-11
1.57897500000000e+00 1.48753752177464e-09 5.17997023890951e-11
1.58452500000000e+00 1.36450083975911e-09 4.75986973129046e-11
1.59007500000000e+00 1.25164072465353e-09 4.37381294350573e-11
1.59562500000000e+00 1.14811545582323e-09 4.01904342174572e-11
1.60117500000000e+00 1.05315293273560e-09 3.69302769065156e-11
1.60672500000000e+00 9.66044916566623e-10 3.39343723401211e-11
1.61227500000000e+00 8.86141748093585e-10 3.11813193003427e-11
1.61782500000000e+00 8.12847502479665e-10 2.86514482391062e-11
1.62337500000000e+00 7.45615544814225e-10 2.63266812985107e-11
1.62892500000000e+00 6.83944453261726e-10 2.41904036342890e-11
1.63447500000000e+00 6.27374279413705e-10 2.22273451307735e-11
1.64002500000000e+00 5.75483117953216e-10 2.04234716691585e-11
1.64557500000000e+00 5.27883960047981e-10 1.87658851783760e-11
1.65112500000000e+00 4.84221807004584e-10 1.72427317599968e-11
1.65667500000000e+00 4.44171022657087e-10 1.58431172356655e-11
1.66222500000000e+00 4.07432904743951e-10 1.45570295180821e-11
1.66777500000000e+00 3.73733457160377e-10 1.33752672548189e-11
1.67332500000000e+00 3.42821346471333e-10 1.22893742386567e-11
1.67887500000000e+00 3.14466027444753e-10 1.12915791189378e-11
1.68442500000000e+00 2.88456023624985e-10 1.03747399859712e-11
1.68997500000000e+00 2.64597350122841e-10 9.53229343503024e-12
1.69552500000000e+00 2.42712066859279e-10 8.75820774821703e-12
1.70107500000000e+00 2.22636951472697e-10 8.04693986164183e-12
1.70662500000000e+00 2.04222281992244e-10 7.39339581219095e-12
1.71217500000000e+00 1.87330720198234e-10 6.79289438282081e-12
1.71772500000000e+00 1.71836287341661e-10 6.24113368799261e-12
1.72327500000000e+00 1.57623424583643e-10 5.73416046171143e-12
1.72882500000000e+00 1.44586131147469e-10 5.26834182980279e-12
1.73437500000000e+00 1.32627173755508e-10 4.84033936568388e-12
1.73992500000000e+00 1.21657361454903e-10 4.44708524509026e-12
1.74547500000000e+00 1.11594880423623e-10 4.08576033011581e-12
1.75102500000000e+00 1.02364683795802e-10 3.75377402661948e-12
