Energy (eV)          EEDF (eV^-(3/2))     First Anisotropy
2.63157894736842e-02 4.39709859477279e-02 2.18603936638334e-05
7.89473684210526e-02 4.37052453157096e-02 3.61100391077074e-05
1.31578947368421e-01 4.34411106987547e-02 4.77019812994715e-05
1.84210526315789e-01 4.31785723913672e-02 5.65283668611412e-05
2.36842105263158e-01 4.29176207461011e-02 6.39061712179788e-05
2.89473684210526e-01 4.26582461738700e-02 7.03327202910846e-05
3.42105263157895e-01 4.24004391435522e-02 7.60650838833098e-05
3.94736842105263e-01 4.21441901816329e-02 8.12583240749576e-05
4.47368421052632e-01 4.18894898718525e-02 8.60151662222534e-05
5.00000000000000e-01 4.16363288548604e-02 9.04081339763326e-05
5.52631578947368e-01 4.13846978283504e-02 9.44908538605580e-05
6.05263157894737e-01 4.11345875452312e-02 9.83044040267496e-05
6.57894736842105e-01 4.08859888148282e-02 1.01881140274453e-04
7.10526315789474e-01 4.06388925020093e-02 1.05247131346896e-04
7.63157894736842e-01 4.03932895268504e-02 1.08423777891580e-04
8.15789473684211e-01 4.01491708643012e-02 1.11428928030976e-04
8.68421052631579e-01 3.99065275438543e-02 1.14277669347289e-04
9.21052631578947e-01 3.96653506492156e-02 1.16982905579226e-04
9.73684210526316e-01 3.94256313179765e-02 1.19555785812130e-04
1.02631578947368e+00 3.91873607412887e-02 1.22006030038094e-04
1.07894736842105e+00 3.89505301633068e-02 1.24342180148581e-04
1.13157894736842e+00 3.87151308813608e-02 1.26571796432963e-04
1.18421052631579e+00 3.84811542453719e-02 1.28701613474179e-04
1.23684210526316e+00 3.82485916575353e-02 1.30737664911879e-04
1.28947368421053e+00 3.80174345738286e-02 1.32685385652468e-04
1.34210526315789e+00 3.77876744981427e-02 1.34549694414383e-04
1.39473684210526e+00 3.75593029876150e-02 1.36335061842471e-04
1.44736842105263e+00 3.73323116504057e-02 1.38045568478419e-04
1.50000000000000e+00 3.71066921453896e-02 1.39684952474328e-04
1.55263157894737e+00 3.68824361818462e-02 1.41256650134588e-04
1.60526315789474e+00 3.66595355191598e-02 1.42763830390558e-04
1.65789473684211e+00 3.64379819665203e-02 1.44209424292274e-04
1.71052631578947e+00 3.62177673826179e-02 1.45596150373629e-04
1.76315789473684e+00 3.59988836753443e-02 1.46926536375854e-04
1.81578947368421e+00 3.57813228027087e-02 1.48202938912115e-04
1.86842105263158e+00 3.55650767688581e-02 1.49427559674041e-04
1.92105263157895e+00 3.53501376275142e-02 1.50602459581063e-04
1.97368421052632e+00 3.51364974804214e-02 1.51729572222231e-04
2.02631578947368e+00 3.49241484770570e-02 1.52810714960760e-04
2.07894736842105e+00 3.47130828143387e-02 1.53847598959667e-04
2.13157894736842e+00 3.45032927363464e-02 1.54841838097625e-04
2.18421052631579e+00 3.42947705340328e-02 1.55794956923311e-04
2.23684210526316e+00 3.40875085449399e-02 1.56708397598527e-04
2.28947368421053e+00 3.38814991538241e-02 1.57583526799397e-04
2.34210526315789e+00 3.36767347896293e-02 1.58421641112710e-04
2.39473684210526e+00 3.34732079279849e-02 1.59223971868123e-04
2.44736842105263e+00 3.32709110899938e-02 1.59991690350021e-04
2.50000000000000e+00 3.30698368419575e-02 1.60725911867342e-04
2.55263157894737e+00 3.28699777951020e-02 1.61427699610906e-04
2.60526315789474e+00 3.26713266053073e-02 1.62098068164964e-04
2.65789473684211e+00 3.24738759728394e-02 1.62737986711785e-04
2.71052631578947e+00 3.22776186420798e-02 1.63348381960760e-04
2.76315789473684e+00 3.20825474012599e-02 1.63930140685211e-04
2.81578947368421e+00 3.18886550828877e-02 1.64484112622286e-04
2.86842105263158e+00 3.16959345613883e-02 1.65011112440813e-04
2.92105263157895e+00 3.15043787549580e-02 1.65511921528126e-04
2.97368421052632e+00 3.13139806245924e-02 1.65987290357687e-04
3.02631578947368e+00 3.11247331738272e-02 1.66437940113695e-04
3.07894736842105e+00 3.09366294484799e-02 1.66864564331466e-04
3.13157894736842e+00 3.07496625363975e-02 1.67267830417827e-04
3.18421052631579e+00 3.05638255672007e-02 1.67648381062309e-04
3.23684210526316e+00 3.03791117120317e-02 1.68006835420001e-04
3.28947368421053e+00 3.01955141838625e-02 1.68343790713629e-04
3.34210526315789e+00 3.00130262355524e-02 1.68659823111652e-04
3.39473684210526e+00 2.98316411613085e-02 1.68955488528142e-04
3.44736842105263e+00 2.96513522958641e-02 1.69231324001330e-04
3.50000000000000e+00 2.94721530142343e-02 1.69487848486595e-04
3.55263157894737e+00 2.92940367314721e-02 1.69725563720754e-04
3.60526315789474e+00 2.91169969024267e-02 1.69944955031491e-04
3.65789473684210e+00 2.89410270215038e-02 1.70146492097000e-04
3.71052631578947e+00 2.87661206224258e-02 1.70330629658888e-04
3.76315789473684e+00 2.85922712779943e-02 1.70497808080755e-04
3.81578947368421e+00 2.84194726003078e-02 1.70648454313151e-04
3.86842105263158e+00 2.82477182391544e-02 1.70782982262103e-04
3.92105263157895e+00 2.80770018831621e-02 1.70901793121760e-04
3.97368421052632e+00 2.79073172591016e-02 1.71005276242422e-04
4.02631578947368e+00 2.77386581316565e-02 1.71093809513919e-04
4.07894736842105e+00 2.75710183031927e-02 1.71167759835106e-04
4.13157894736842e+00 2.74043916135325e-02 1.71227483558216e-04
4.18421052631579e+00 2.72387719397275e-02 1.71273326909770e-04
4.23684210526316e+00 2.70741531958337e-02 1.71305626289446e-04
4.28947368421053e+00 2.69105293330692e-02 1.71324708946080e-04
4.34210526315789e+00 2.67478943384388e-02 1.71330893135435e-04
4.39473684210526e+00 2.65862422356748e-02 1.71324488258115e-04
4.44736842105263e+00 2.64255670846273e-02 1.71305795486086e-04
4.50000000000000e+00 2.62658629810463e-02 1.71275107967391e-04
4.55263157894737e+00 2.61071240563635e-02 1.71232711117548e-04
4.60526315789474e+00 2.59493444774778e-02 1.71178882896781e-04
4.65789473684211e+00 2.57925184465412e-02 1.71113894074338e-04
4.71052631578947e+00 2.56366402007447e-02 1.71038008480246e-04
4.76315789473684e+00 2.54817040121075e-02 1.70951483157164e-04
4.81578947368421e+00 2.53277041875859e-02 1.70854568854662e-04
4.86842105263158e+00 2.51746350678975e-02 1.70747510069938e-04
4.92105263157895e+00 2.50224910282867e-02 1.70630545077270e-04
4.97368421052632e+00 2.48712664779918e-02 1.70503906397473e-04
5.02631578947368e+00 2.47209558600386e-02 1.70367820898118e-04
5.07894736842105e+00 2.45715536510365e-02 1.70222509975607e-04
5.13157894736842e+00 2.44230543609762e-02 1.70068189729716e-04
5.18421052631579e+00 2.42754525330274e-02 1.69905071130985e-04
5.23684210526316e+00 2.41287427433384e-02 1.69733360101242e-04
5.28947368421053e+00 2.39829196011123e-02 1.69553257906540e-04
5.34210526315789e+00 2.38379777475766e-02 1.69364961143982e-04
5.39473684210526e+00 2.36939118566245e-02 1.69168661721199e-04
5.44736842105263e+00 2.35507166343376e-02 1.68964547235474e-04
5.50000000000000e+00 2.34083868187915e-02 1.68752801022304e-04
5.55263157894737e+00 2.32669171798622e-02 1.68533602280376e-04
5.60526315789474e+00 2.31263025190344e-02 1.68307126191578e-04
5.65789473684211e+00 2.29865376692102e-02 1.68073544036678e-04
5.71052631578947e+00 2.28476174945194e-02 1.67833023306490e-04
5.76315789473684e+00 2.27095368901306e-02 1.67585727737434e-04
5.81578947368421e+00 2.25722907822995e-02 1.67331817629514e-04
5.86842105263158e+00 2.24358741274703e-02 1.67071449801510e-04
5.92105263157895e+00 2.23002819128070e-02 1.66804777541267e-04
5.97368421052632e+00 2.21655091557694e-02 1.66531950916521e-04
6.02631578947368e+00 2.20315509039289e-02 1.66253116790413e-04
6.07894736842105e+00 2.18984022347873e-02 1.65968418906931e-04
6.13157894736842e+00 2.17660582555957e-02 1.65677997973485e-04
6.18421052631579e+00 2.16345141031748e-02 1.65381991740822e-04
6.23684210526316e+00 2.15037649437363e-02 1.65080535015001e-04
6.28947368421053e+00 2.13738059729112e-02 1.64773759927321e-04
6.34210526315789e+00 2.12446324149506e-02 1.64461795875205e-04
6.39473684210526e+00 2.11162395231773e-02 1.64144769459490e-04
6.44736842105263e+00 2.09886225796006e-02 1.63822804750502e-04
6.50000000000000e+00 2.08617768947432e-02 1.63496023286276e-04
6.55263157894737e+00 2.07356978074688e-02 1.63164544135308e-04
6.60526315789474e+00 2.06103806848110e-02 1.62828483957204e-04
6.65789473684211e+00 2.04858209218028e-02 1.62487957061528e-04
6.71052631578947e+00 2.03620139413077e-02 1.62143075464748e-04
6.76315789473684e+00 2.02389551938512e-02 1.61793948886662e-04
6.81578947368421e+00 2.01166401576329e-02 1.61440684980643e-04
6.86842105263158e+00 1.99950643378197e-02 1.61083389267038e-04
6.92105263157895e+00 1.98742232669245e-02 1.60722165063799e-04
6.97368421052632e+00 1.97541125044595e-02 1.60357113715027e-04
7.02631578947368e+00 1.96347276367734e-02 1.59988334577931e-04
7.07894736842105e+00 1.95160642768888e-02 1.59615925068428e-04
7.13157894736842e+00 1.93981180643412e-02 1.59239980705514e-04
7.18421052631579e+00 1.92808846650190e-02 1.58860595154466e-04
7.23684210526316e+00 1.91643597710038e-02 1.58477860214918e-04
7.28947368421053e+00 1.90485391005709e-02 1.58091866023279e-04
7.34210526315789e+00 1.89334183975532e-02 1.57702700983873e-04
7.39473684210526e+00 1.88189934316669e-02 1.57310451697922e-04
7.44736842105263e+00 1.87052599981935e-02 1.56915203165346e-04
7.50000000000000e+00 1.85922139178262e-02 1.56517038765838e-04
7.55263157894737e+00 1.84798510365161e-02 1.56116040294016e-04
7.60526315789474e+00 1.83681672253191e-02 1.55712287993524e-04
7.65789473684210e+00 1.82571583802449e-02 1.55305860590352e-04
7.71052631578947e+00 1.81468204221058e-02 1.54896835325205e-04
7.76315789473684e+00 1.80371492963667e-02 1.54485287936128e-04
7.81578947368421e+00 1.79281409731356e-02 1.54071292836268e-04
7.86842105263158e+00 1.78197914465953e-02 1.53654923045243e-04
7.92105263157895e+00 1.77120967352786e-02 1.53236250118728e-04
7.97368421052632e+00 1.76050528817808e-02 1.52815344326377e-04
8.02631578947368e+00 1.74986559526137e-02 1.52392274629254e-04
8.07894736842105e+00 1.73929020380610e-02 1.51967108706528e-04
8.13157894736842e+00 1.72877872520356e-02 1.51539912981600e-04
8.18421052631579e+00 1.71833077319356e-02 1.51110752647629e-04
8.23684210526316e+00 1.70794596385032e-02 1.50679691647428e-04
8.28947368421053e+00 1.69762391558075e-02 1.50246792832867e-04
8.34210526315789e+00 1.68736424907295e-02 1.49812117897968e-04
8.39473684210526e+00 1.67716658731995e-02 1.49375727310538e-04
8.44736842105263e+00 1.66703055559328e-02 1.48937680472103e-04
8.50000000000000e+00 1.65695578142912e-02 1.48498035693714e-04
8.55263157894737e+00 1.64694189461466e-02 1.48056850217275e-04
8.60526315789474e+00 1.63698852717450e-02 1.47614180236308e-04
8.65789473684210e+00 1.62709531335709e-02 1.47170080916310e-04
8.71052631578947e+00 1.61726188962135e-02 1.46724606414604e-04
8.76315789473684e+00 1.60748789462324e-02 1.46277809858725e-04
8.81578947368421e+00 1.59777296921355e-02 1.45829743488728e-04
8.86842105263158e+00 1.58811675639147e-02 1.45380458593115e-04
8.92105263157895e+00 1.57851890132486e-02 1.44930005443444e-04
8.97368421052632e+00 1.56897905132603e-02 1.44478433437451e-04
9.02631578947368e+00 1.55949685583877e-02 1.44025791074260e-04
9.07894736842105e+00 1.55007196642545e-02 1.43572125971113e-04
9.13157894736842e+00 1.54070403675428e-02 1.43117484879793e-04
9.18421052631579e+00 1.53139272258651e-02 1.42661913702776e-04
9.23684210526316e+00 1.52213768176383e-02 1.42205457471114e-04
9.28947368421053e+00 1.51293857420563e-02 1.41748160473554e-04
9.34210526315789e+00 1.50379506186677e-02 1.41290066195458e-04
9.39473684210526e+00 1.49470680875505e-02 1.40831217256542e-04
9.44736842105263e+00 1.48567348090888e-02 1.40371655540981e-04
9.50000000000000e+00 1.47669474638496e-02 1.39911422172697e-04
9.55263157894737e+00 1.46777027524612e-02 1.39450557529049e-04
9.60526315789474e+00 1.45889973954917e-02 1.38989101254243e-04
9.65789473684210e+00 1.45008281333285e-02 1.38527092272524e-04
9.71052631578947e+00 1.44131917260588e-02 1.38064568801043e-04
9.76315789473684e+00 1.43260849533503e-02 1.37601568327840e-04
9.81578947368421e+00 1.42395046144209e-02 1.37138127728398e-04
9.86842105263158e+00 1.41534475276557e-02 1.36674283207982e-04
9.92105263157895e+00 1.40679105307569e-02 1.36210070243052e-04
9.97368421052632e+00 1.39828904805381e-02 1.35745523698805e-04
1.00263157894737e+01 1.38983842528091e-02 1.35280677871442e-04
1.00789473684211e+01 1.38143887420938e-02 1.34815566364804e-04
1.01315789473684e+01 1.37309008618551e-02 1.34350221776546e-04
1.01842105263158e+01 1.36479175450220e-02 1.33884676825554e-04
1.02368421052632e+01 1.35654357414259e-02 1.33418963638108e-04
1.02894736842105e+01 1.34834524201527e-02 1.32953113095335e-04
1.03421052631579e+01 1.34019645686046e-02 1.32487155839440e-04
1.03947368421053e+01 1.33209691923918e-02 1.32021121638136e-04
1.04473684210526e+01 1.32404633159900e-02 1.31555040334577e-04
1.05000000000000e+01 1.31604439803124e-02 1.31088941228527e-04
1.05526315789474e+01 1.30809082449311e-02 1.30622852450178e-04
1.06052631578947e+01 1.30018531871890e-02 1.30156801623015e-04
1.06578947368421e+01 1.29232759028273e-02 1.29690816460300e-04
1.07105263157895e+01 1.28451735036627e-02 1.29224924167832e-04
1.07631578947368e+01 1.27675431197086e-02 1.28759150839491e-04
1.08157894736842e+01 1.26903818983223e-02 1.28293522387073e-04
1.08684210526316e+01 1.26136870041017e-02 1.27828063951034e-04
1.09210526315789e+01 1.25374556194767e-02 1.27362800778692e-04
1.09736842105263e+01 1.24616849425069e-02 1.26897757650871e-04
1.10263157894737e+01 1.23863721888882e-02 1.26432958302215e-04
1.10789473684211e+01 1.23115145911421e-02 1.25968426311867e-04
1.11315789473684e+01 1.22371093985168e-02 1.25504184538288e-04
1.11842105263158e+01 1.21631538775440e-02 1.25040255961232e-04
1.12368421052632e+01 1.20896453099502e-02 1.24576663131291e-04
1.12894736842105e+01 1.20165809945553e-02 1.24113427613439e-04
1.13421052631579e+01 1.19439582465034e-02 1.23650570840999e-04
1.13947368421053e+01 1.18717743971652e-02 1.23188113573399e-04
1.14473684210526e+01 1.18000267946646e-02 1.22726076703165e-04
1.15000000000000e+01 1.17287128018961e-02 1.22264480727802e-04
1.15526315789474e+01 1.16578297983220e-02 1.21803345215341e-04
1.16052631578947e+01 1.15873751792420e-02 1.21342689366947e-04
1.16578947368421e+01 1.15173463562965e-02 1.20882532523968e-04
1.17105263157895e+01 1.14477407555659e-02 1.20422893657784e-04
1.17631578947368e+01 1.13785558192905e-02 1.19963790853512e-04
1.18157894736842e+01 1.13097890051675e-02 1.19505242100969e-04
1.18684210526316e+01 1.12414377862594e-02 1.19047264791186e-04
1.19210526315789e+01 1.11734996514683e-02 1.18589876464129e-04
1.19736842105263e+01 1.11059721037311e-02 1.18133094318589e-04
1.20263157894737e+01 1.10388526616489e-02 1.17676934716584e-04
1.20789473684211e+01 1.09721388588186e-02 1.17221413941929e-04
1.21315789473684e+01 1.09058282437433e-02 1.16766547716917e-04
1.21842105263158e+01 1.08399183802816e-02 1.16312351919973e-04
1.22368421052632e+01 1.07744068459312e-02 1.15858842114748e-04
1.22894736842105e+01 1.07092912333742e-02 1.15406033074031e-04
1.23421052631579e+01 1.06445691498413e-02 1.14953939507827e-04
1.23947368421053e+01 1.05802382170244e-02 1.14502575599286e-04
1.24473684210526e+01 1.05162960715011e-02 1.14051955693264e-04
1.25000000000000e+01 1.04527403631032e-02 1.13602093844154e-04
1.25526315789474e+01 1.03895687563824e-02 1.13153003358337e-04
1.26052631578947e+01 1.03267789300047e-02 1.12704697273849e-04
1.26578947368421e+01 1.02643685771568e-02 1.12257188793322e-04
1.27105263157895e+01 1.02023354039799e-02 1.11810490846871e-04
1.27631578947368e+01 1.01406771309738e-02 1.11364615649762e-04
1.28157894736842e+01 1.00793914924140e-02 1.10919575378011e-04
1.28684210526316e+01 1.00184762362694e-02 1.10475381736885e-04
1.29210526315789e+01 9.95792912458606e-03 1.10032046600089e-04
1.29736842105263e+01 9.89774793199737e-03 1.09589581589524e-04
1.30263157894737e+01 9.83793044705675e-03 1.09147997650369e-04
1.30789473684211e+01 9.77847447168204e-03 1.08707305699663e-04
1.31315789473684e+01 9.71937782107582e-03 1.08267516211765e-04
1.31842105263158e+01 9.66063832408868e-03 1.07828639832353e-04
1.32368421052632e+01 9.60225382180051e-03 1.07390686974427e-04
1.32894736842105e+01 9.54422216878661e-03 1.06953667409829e-04
1.33421052631579e+01 9.48654123258793e-03 1.06517590892275e-04
1.33947368421053e+01 9.42920889363344e-03 1.06082466759072e-04
1.34473684210526e+01 9.37222304558430e-03 1.05648304520728e-04
1.35000000000000e+01 9.31558159398268e-03 1.05215113472755e-04
1.35526315789474e+01 9.25928245745466e-03 1.04782902302861e-04
1.36052631578947e+01 9.20332356720517e-03 1.04351679501422e-04
1.36578947368421e+01 9.14770286734785e-03 1.03921453732462e-04
1.37105263157895e+01 9.09241831360639e-03 1.03492233458133e-04
1.37631578947368e+01 9.03746787446829e-03 1.03064026558686e-04
1.38157894736842e+01 8.98284953069820e-03 1.02636840911536e-04
1.38684210526316e+01 8.92856127526435e-03 1.02210684020452e-04
1.39210526315789e+01 8.87460111365084e-03 1.01785563563761e-04
1.39736842105263e+01 8.82096706261995e-03 1.01361487033088e-04
1.40263157894737e+01 8.76765715130929e-03 1.00938461368083e-04
1.40789473684211e+01 8.71466942076699e-03 1.00516493512746e-04
1.41315789473684e+01 8.66200192388063e-03 1.00095590058961e-04
1.41842105263158e+01 8.60965272567304e-03 9.96757577735092e-05
1.42368421052632e+01 8.55761990212235e-03 9.92570032505608e-05
1.42894736842105e+01 8.50590154120549e-03 9.88393325602829e-05
1.43421052631579e+01 8.45449574245455e-03 9.84227517837113e-05
1.43947368421053e+01 8.40340061688747e-03 9.80072666700105e-05
1.44473684210526e+01 8.35261428728874e-03 9.75928831429220e-05
1.45000000000000e+01 8.30213488708404e-03 9.71796069666504e-05
1.45526315789474e+01 8.25196056133298e-03 9.67674434077718e-05
1.46052631578947e+01 8.20208946630559e-03 9.63563975876620e-05
1.46578947368421e+01 8.15251976975152e-03 9.59464748012695e-05
1.47105263157895e+01 8.10324964981722e-03 9.55376801937280e-05
1.47631578947368e+01 8.05427729599929e-03 9.51300184331088e-05
1.48157894736842e+01 8.00560090873586e-03 9.47234942081795e-05
1.48684210526316e+01 7.95721869934097e-03 9.43181119089551e-05
1.49210526315789e+01 7.90912889025982e-03 9.39138760982013e-05
1.49736842105263e+01 7.86132971403544e-03 9.35107912001857e-05
1.50263157894737e+01 7.81381941421638e-03 9.31088611858959e-05
1.50789473684211e+01 7.76659624496602e-03 9.27080900515861e-05
1.51315789473684e+01 7.71965847099908e-03 9.23084815115341e-05
1.51842105263158e+01 7.67300436782372e-03 9.19100394516032e-05
1.52368421052632e+01 7.62663222075524e-03 9.15127676296559e-05
1.52894736842105e+01 7.58054032578034e-03 9.11166693726072e-05
1.53421052631579e+01 7.53472698918386e-03 9.07217480367772e-05
1.53947368421053e+01 7.48919052748688e-03 9.03280067123279e-05
1.54473684210526e+01 7.44392926767668e-03 8.99354486594132e-05
1.55000000000000e+01 7.39894154626496e-03 8.95440770199840e-05
1.55526315789474e+01 7.35422571011111e-03 8.91538945261401e-05
1.56052631578947e+01 7.30978011606530e-03 8.87649038034736e-05
1.56578947368421e+01 7.26560313118930e-03 8.83771076457582e-05
1.57105263157895e+01 7.22169313184929e-03 8.79905087358637e-05
1.57631578947368e+01 7.17804850450729e-03 8.76051093632981e-05
1.58157894736842e+01 7.13466764537656e-03 8.72209118531376e-05
1.58684210526316e+01 7.09154896036307e-03 8.68379182903167e-05
1.59210526315789e+01 7.04869086527491e-03 8.64561309260917e-05
1.59736842105263e+01 7.00609178495586e-03 8.60755519092942e-05
1.60263157894737e+01 6.96375015403955e-03 8.56961830145419e-05
1.60789473684211e+01 6.92166441661970e-03 8.53180260548536e-05
1.61315789473684e+01 6.87983302619346e-03 8.49410826162976e-05
1.61842105263158e+01 6.83825444586030e-03 8.45653544492200e-05
1.62368421052632e+01 6.79692714749397e-03 8.41908432094782e-05
1.62894736842105e+01 6.75584961246154e-03 8.38175501967130e-05
1.63421052631579e+01 6.71502033130783e-03 8.34454767514932e-05
1.63947368421053e+01 6.67443780370035e-03 8.30746239999344e-05
1.64473684210526e+01 6.63410053861826e-03 8.27049932301223e-05
1.65000000000000e+01 6.59400705356102e-03 8.23365856430449e-05
1.65526315789474e+01 6.55415587523388e-03 8.19694021005256e-05
1.66052631578947e+01 6.51454553924604e-03 8.16034433869416e-05
