Energy (eV)          EEDF (eV^-(3/2))     First Anisotropy
1.53787878787879e-02 7.89681807444178e-02 3.64643038122649e-05
4.61363636363636e-02 7.85560532839681e-02 6.02583838616881e-05
7.68939393939394e-02 7.81460766785732e-02 7.96684014849976e-05
1.07651515151515e-01 7.77382397019975e-02 9.44879200123104e-05
1.38409090909091e-01 7.73325311882235e-02 1.06908642182297e-04
1.69166666666667e-01 7.69289400280314e-02 1.17757233798996e-04
1.99924242424242e-01 7.65274551714210e-02 1.27460522057039e-04
2.30681818181818e-01 7.61280656278965e-02 1.36275683727537e-04
2.61439393939394e-01 7.57307604601731e-02 1.44372908770846e-04
2.92196969696970e-01 7.53355287901370e-02 1.51872220997075e-04
3.22954545454545e-01 7.49423597964697e-02 1.58862274702817e-04
3.53712121212121e-01 7.45512427155007e-02 1.65410906745920e-04
3.84469696969697e-01 7.41621668372825e-02 1.71571492628470e-04
4.15227272727273e-01 7.37751215089959e-02 1.77386990082446e-04
4.45984848484848e-01 7.33900961334222e-02 1.82892626749637e-04
4.76742424242424e-01 7.30070801694899e-02 1.88117751340723e-04
5.07500000000000e-01 7.26260631294181e-02 1.93087146961284e-04
5.38257575757576e-01 7.22470345810286e-02 1.97821986975342e-04
5.69015151515151e-01 7.18699841465867e-02 2.02340546457178e-04
5.99772727272727e-01 7.14949015031665e-02 2.06658741578258e-04
6.30530303030303e-01 7.11217763804011e-02 2.10790545118766e-04
6.61287878787879e-01 7.07505985621875e-02 2.14748311503321e-04
6.92045454545455e-01 7.03813578857361e-02 2.18543034792384e-04
7.22803030303030e-01 7.00140442418195e-02 2.22184555621796e-04
7.53560606060606e-01 6.96486475729134e-02 2.25681728707142e-04
7.84318181818182e-01 6.92851578745157e-02 2.29042559939037e-04
8.15075757575758e-01 6.89235651943333e-02 2.32274319905880e-04
8.45833333333333e-01 6.85638596324486e-02 2.35383638407718e-04
8.76590909090909e-01 6.82060313397347e-02 2.38376583488157e-04
9.07348484848485e-01 6.78500705189089e-02 2.41258728160660e-04
9.38106060606061e-01 6.74959674238155e-02 2.44035207392884e-04
9.68863636363636e-01 6.71437123595343e-02 2.46710766822135e-04
9.99621212121212e-01 6.67932956809972e-02 2.49289804406377e-04
1.03037878787879e+00 6.64447077938493e-02 2.51776406639567e-04
1.06113636363636e+00 6.60979391524567e-02 2.54174378999532e-04
1.09189393939394e+00 6.57529802656770e-02 2.56487275018663e-04
1.12265151515152e+00 6.54098216853425e-02 2.58718418969123e-04
1.15340909090909e+00 6.50684540188954e-02 2.60870927154901e-04
1.18416666666667e+00 6.47288679167423e-02 2.62947726638272e-04
1.21492424242424e+00 6.43910540839132e-02 2.64951571566020e-04
1.24568181818182e+00 6.40550032683318e-02 2.66885058446506e-04
1.27643939393939e+00 6.37207062690075e-02 2.68750636990936e-04
1.30719696969697e+00 6.33881539355893e-02 2.70550624987255e-04
1.33795454545455e+00 6.30573371602485e-02 2.72287216677943e-04
1.36871212121212e+00 6.27282468877455e-02 2.73962492600629e-04
1.39946969696970e+00 6.24008741052126e-02 2.75578428179541e-04
1.43022727272727e+00 6.20752098515485e-02 2.77136901283509e-04
1.46098484848485e+00 6.17512452078375e-02 2.78639699732034e-04
1.49174242424242e+00 6.14289713040002e-02 2.80088525651761e-04
1.52250000000000e+00 6.11083793184009e-02 2.81485004063829e-04
1.55325757575758e+00 6.07894604711406e-02 2.82830686259932e-04
1.58401515151515e+00 6.04722060323168e-02 2.84127054975593e-04
1.61477272727273e+00 6.01566073135360e-02 2.85375529286525e-04
1.64553030303030e+00 5.98426556737722e-02 2.86577466806281e-04
1.67628787878788e+00 5.95303425190039e-02 2.87734170027826e-04
1.70704545454545e+00 5.92196592962414e-02 2.88846887983038e-04
1.73780303030303e+00 5.89105975008501e-02 2.89916819741452e-04
1.76856060606061e+00 5.86031486689644e-02 2.90945117375454e-04
1.79931818181818e+00 5.82973043844105e-02 2.91932888549693e-04
1.83007575757576e+00 5.79930562715117e-02 2.92881199457243e-04
1.86083333333333e+00 5.76903960000138e-02 2.93791075473324e-04
1.89159090909091e+00 5.73893152847618e-02 2.94663505681401e-04
1.92234848484848e+00 5.70898058805916e-02 2.95499443283752e-04
1.95310606060606e+00 5.67918595885385e-02 2.96299807781588e-04
1.98386363636364e+00 5.64954682493377e-02 2.97065486757810e-04
2.01462121212121e+00 5.62006237493216e-02 2.97797337410448e-04
2.04537878787879e+00 5.59073180142253e-02 2.98496188468068e-04
2.07613636363636e+00 5.56155430133914e-02 2.99162840099831e-04
2.10689393939394e+00 5.53252907594755e-02 2.99798067408777e-04
2.13765151515152e+00 5.50365533040169e-02 3.00402620231755e-04
2.16840909090909e+00 5.47493227427747e-02 3.00977224601847e-04
2.19916666666667e+00 5.44635912100844e-02 3.01522583887864e-04
2.22992424242424e+00 5.41793508839468e-02 3.02039379752578e-04
2.26068181818182e+00 5.38965939806278e-02 3.02528273490129e-04
2.29143939393939e+00 5.36153127582940e-02 3.02989905565928e-04
2.32219696969697e+00 5.33354995167373e-02 3.03424898465212e-04
2.35295454545455e+00 5.30571465934932e-02 3.03833856185179e-04
2.38371212121212e+00 5.27802463684780e-02 3.04217365278375e-04
2.41446969696970e+00 5.25047912590363e-02 3.04575995618068e-04
2.44522727272727e+00 5.22307737243773e-02 3.04910301023136e-04
2.47598484848485e+00 5.19581862608199e-02 3.05220820245591e-04
2.50674242424242e+00 5.16870214049674e-02 3.05508076326049e-04
2.53750000000000e+00 5.14172717334477e-02 3.05772579007617e-04
2.56825757575758e+00 5.11489298594810e-02 3.06014824075026e-04
2.59901515151515e+00 5.08819884369450e-02 3.06235294137653e-04
2.62977272727273e+00 5.06164401559918e-02 3.06434459450265e-04
2.66053030303030e+00 5.03522777459552e-02 3.06612777193832e-04
2.69128787878788e+00 5.00894939751025e-02 3.06770693664494e-04
2.72204545454545e+00 4.98280816474630e-02 3.06908643551350e-04
2.75280303030303e+00 4.95680336065641e-02 3.07027050592930e-04
2.78356060606061e+00 4.93093427313761e-02 3.07126328001776e-04
2.81431818181818e+00 4.90520019399036e-02 3.07206878787654e-04
2.84507575757576e+00 4.87960041852763e-02 3.07269096410190e-04
2.87583333333333e+00 4.85413424583186e-02 3.07313364014422e-04
2.90659090909091e+00 4.82880097873161e-02 3.07340056364045e-04
2.93734848484848e+00 4.80359992351754e-02 3.07349539085285e-04
2.96810606060606e+00 4.77853039027395e-02 3.07342169193143e-04
2.99886363636364e+00 4.75359169251565e-02 3.07318295406333e-04
3.02962121212121e+00 4.72878314750720e-02 3.07278258375181e-04
3.06037878787879e+00 4.70410407591223e-02 3.07222391217355e-04
3.09113636363636e+00 4.67955380202179e-02 3.07151018743285e-04
3.12189393939394e+00 4.65513165373234e-02 3.07064459189909e-04
3.15265151515152e+00 4.63083696229001e-02 3.06963023460534e-04
3.18340909090909e+00 4.60666906258637e-02 3.06847015559360e-04
3.21416666666667e+00 4.58262729283152e-02 3.06716732831440e-04
3.24492424242424e+00 4.55871099483941e-02 3.06572466126687e-04
3.27568181818182e+00 4.53491951371145e-02 3.06414500250783e-04
3.30643939393939e+00 4.51125219804077e-02 3.06243113200826e-04
3.33719696969697e+00 4.48770839989113e-02 3.06058577737628e-04
3.36795454545455e+00 4.46428747456561e-02 3.05861160638000e-04
3.39871212121212e+00 4.44098878087179e-02 3.05651123062668e-04
3.42946969696970e+00 4.41781168082597e-02 3.05428720743313e-04
3.46022727272727e+00 4.39475553990939e-02 3.05194204102632e-04
3.49098484848485e+00 4.37181972678158e-02 3.04947818641801e-04
3.52174242424242e+00 4.34900361346366e-02 3.04689804197299e-04
3.55250000000000e+00 4.32630657531833e-02 3.04420396378902e-04
3.58325757575758e+00 4.30372799083961e-02 3.04139825843798e-04
3.61401515151515e+00 4.28126724189168e-02 3.03848318614422e-04
3.64477272727273e+00 4.25892371344014e-02 3.03546096431065e-04
3.67553030303030e+00 4.23669679372273e-02 3.03233376024709e-04
3.70628787878788e+00 4.21458587423001e-02 3.02910370475521e-04
3.73704545454545e+00 4.19259034950792e-02 3.02577288503163e-04
3.76780303030303e+00 4.17070961738077e-02 3.02234334756776e-04
3.79856060606061e+00 4.14894307869885e-02 3.01881709942989e-04
3.82931818181818e+00 4.12729013755430e-02 3.01519610897723e-04
3.86007575757576e+00 4.10575020103603e-02 3.01148230897742e-04
3.89083333333333e+00 4.08432267938395e-02 3.00767758962888e-04
3.92159090909091e+00 4.06300698597056e-02 3.00378381111186e-04
3.95234848484848e+00 4.04180253712041e-02 2.99980279678871e-04
3.98310606060606e+00 4.02070875231210e-02 2.99573633576936e-04
4.01386363636364e+00 3.99972505394759e-02 2.99158618396167e-04
4.04462121212121e+00 3.97885086754806e-02 2.98735406461117e-04
4.07537878787879e+00 3.95808562152959e-02 2.98304167108581e-04
4.10613636363636e+00 3.93742874734295e-02 2.97865066020863e-04
4.13689393939394e+00 3.91687967945605e-02 2.97418266390292e-04
4.16765151515152e+00 3.89643785518830e-02 2.96963928270135e-04
4.19840909090909e+00 3.87610271489423e-02 2.96502208804163e-04
4.22916666666667e+00 3.85587370175196e-02 2.96033262314115e-04
4.25992424242424e+00 3.83575026194139e-02 2.95557240340513e-04
4.29068181818182e+00 3.81573184443831e-02 2.95074291893719e-04
4.32143939393939e+00 3.79581790114155e-02 2.94584562818849e-04
4.35219696969697e+00 3.77600788685608e-02 2.94088196880095e-04
4.38295454545455e+00 3.75630125914072e-02 2.93585335142213e-04
4.41371212121212e+00 3.73669747847547e-02 2.93076116178058e-04
4.44446969696970e+00 3.71719600806703e-02 2.92560676142358e-04
4.47522727272727e+00 3.69779631401138e-02 2.92039148802708e-04
4.50598484848485e+00 3.67849786510427e-02 2.91511665767678e-04
4.53674242424242e+00 3.65930013295712e-02 2.90978355882779e-04
4.56750000000000e+00 3.64020259198089e-02 2.90439346243009e-04
4.59825757575758e+00 3.62120471924557e-02 2.89894761604598e-04
4.62901515151515e+00 3.60230599463311e-02 2.89344724573923e-04
4.65977272727273e+00 3.58350590065819e-02 2.88789355822100e-04
4.69053030303030e+00 3.56480392257709e-02 2.88228773501057e-04
4.72128787878788e+00 3.54619954837208e-02 2.87663094211276e-04
4.75204545454545e+00 3.52769226861830e-02 2.87092432432876e-04
4.78280303030303e+00 3.50928157662781e-02 2.86516900703684e-04
4.81356060606061e+00 3.49096696827979e-02 2.85936609675679e-04
4.84431818181818e+00 3.47274794216059e-02 2.85351668134156e-04
4.87507575757576e+00 3.45462399939818e-02 2.84762183194848e-04
4.90583333333333e+00 3.43659464376175e-02 2.84168259749273e-04
4.93659090909091e+00 3.41865938164672e-02 2.83570001371909e-04
4.96734848484849e+00 3.40081772195156e-02 2.82967509780034e-04
4.99810606060606e+00 3.38306917620985e-02 2.82360884997371e-04
5.02886363636364e+00 3.36541325843328e-02 2.81750225403061e-04
5.05962121212121e+00 3.34784948524010e-02 2.81135627746101e-04
5.09037878787879e+00 3.33037737570193e-02 2.80517187327335e-04
5.12113636363636e+00 3.31299645143504e-02 2.79894997472818e-04
5.15189393939394e+00 3.29570623658597e-02 2.79269150385720e-04
5.18265151515152e+00 3.27850625771731e-02 2.78639736633669e-04
5.21340909090909e+00 3.26139604392905e-02 2.78006845299858e-04
5.24416666666667e+00 3.24437512671300e-02 2.77370564025924e-04
5.27492424242424e+00 3.22744304007102e-02 2.76730979022681e-04
5.30568181818182e+00 3.21059932037283e-02 2.76088175238615e-04
5.33643939393939e+00 3.19384350643990e-02 2.75442235860259e-04
5.36719696969697e+00 3.17717513953167e-02 2.74793243113436e-04
5.39795454545455e+00 3.16059376323936e-02 2.74141277776539e-04
5.42871212121212e+00 3.14409892359773e-02 2.73486419320719e-04
5.45946969696970e+00 3.12769016894993e-02 2.72828745947690e-04
5.49022727272727e+00 3.11136705005631e-02 2.72168334597595e-04
5.52098484848485e+00 3.09512911996245e-02 2.71505261105604e-04
5.55174242424242e+00 3.07897593407622e-02 2.70839599727838e-04
5.58250000000000e+00 3.06290705015463e-02 2.70171423895916e-04
5.61325757575758e+00 3.04692202820496e-02 2.69500805755017e-04
5.64401515151515e+00 3.03102043058782e-02 2.68827816294302e-04
5.67477272727273e+00 3.01520182189146e-02 2.68152525496146e-04
5.70553030303030e+00 2.99946576900473e-02 2.67475001878470e-04
5.73628787878788e+00 2.98381184110419e-02 2.66795313219599e-04
5.76704545454546e+00 2.96823960956002e-02 2.66113526112144e-04
5.79780303030303e+00 2.95274864803355e-02 2.65429706087499e-04
5.82856060606061e+00 2.93733853235760e-02 2.64743917646733e-04
5.85931818181818e+00 2.92200884063159e-02 2.64056224264875e-04
5.89007575757576e+00 2.90675915310449e-02 2.63366688530224e-04
5.92083333333333e+00 2.89158905224213e-02 2.62675371709909e-04
5.95159090909091e+00 2.87649812271477e-02 2.61982334433976e-04
5.98234848484848e+00 2.86148595130939e-02 2.61287636271915e-04
6.01310606060606e+00 2.84655212701975e-02 2.60591335848969e-04
6.04386363636364e+00 2.83169624093492e-02 2.59893490873795e-04
6.07462121212121e+00 2.81691788632719e-02 2.59194158141308e-04
6.10537878787879e+00 2.80221665854292e-02 2.58493393663138e-04
6.13613636363636e+00 2.78759215506466e-02 2.57791252255046e-04
6.16689393939394e+00 2.77304397549927e-02 2.57087788183151e-04
6.19765151515151e+00 2.75857172149591e-02 2.56383054761928e-04
6.22840909090909e+00 2.74417499682948e-02 2.55677104463085e-04
6.25916666666667e+00 2.72985340729651e-02 2.54969988940565e-04
6.28992424242424e+00 2.71560656079652e-02 2.54261759032101e-04
6.32068181818182e+00 2.70143406723020e-02 2.53552464881504e-04
6.35143939393939e+00 2.68733553855676e-02 2.52842155547075e-04
6.38219696969697e+00 2.67331058878251e-02 2.52130879612476e-04
6.41295454545455e+00 2.65935883388423e-02 2.51418684804904e-04
6.44371212121212e+00 2.64547989188640e-02 2.50705618097319e-04
6.47446969696970e+00 2.63167338276395e-02 2.49991725731049e-04
6.50522727272727e+00 2.61793892851770e-02 2.49277053216463e-04
6.53598484848485e+00 2.60427615307908e-02 2.48561645447743e-04
6.56674242424242e+00 2.59068468236332e-02 2.47845546331020e-04
6.59750000000000e+00 2.57716414425841e-02 2.47128799362406e-04
6.62825757575758e+00 2.56371416855333e-02 2.46411447265209e-04
6.65901515151515e+00 2.55033438700976e-02 2.45693532086081e-04
6.68977272727273e+00 2.53702443327101e-02 2.44975095305187e-04
6.72053030303030e+00 2.52378394291249e-02 2.44256177476973e-04
6.75128787878788e+00 2.51061255343104e-02 2.43536818787020e-04
6.78204545454545e+00 2.49750990417623e-02 2.42817058701563e-04
6.81280303030303e+00 2.48447563641854e-02 2.42096936059843e-04
6.84356060606061e+00 2.47150939326235e-02 2.41376489093253e-04
6.87431818181818e+00 2.45861081971251e-02 2.40655755424767e-04
6.90507575757576e+00 2.44577956258908e-02 2.39934772172756e-04
6.93583333333333e+00 2.43301527057412e-02 2.39213575609530e-04
6.96659090909091e+00 2.42031759420139e-02 2.38492201688898e-04
6.99734848484848e+00 2.40768618579196e-02 2.37770685713145e-04
7.02810606060606e+00 2.39512069951757e-02 2.37049062419961e-04
7.05886363636364e+00 2.38262079131901e-02 2.36327366000006e-04
7.08962121212121e+00 2.37018611896809e-02 2.35605630095824e-04
7.12037878787879e+00 2.35781634198765e-02 2.34883887899711e-04
7.15113636363636e+00 2.34551112169500e-02 2.34162171829187e-04
7.18189393939394e+00 2.33327012119203e-02 2.33440514027034e-04
7.21265151515152e+00 2.32109300530473e-02 2.32718946044761e-04
7.24340909090909e+00 2.30897944064212e-02 2.31997498924582e-04
7.27416666666667e+00 2.29692909551971e-02 2.31276203215521e-04
7.30492424242424e+00 2.28494164001716e-02 2.30555088972004e-04
7.33568181818182e+00 2.27301674590316e-02 2.29834185846125e-04
7.36643939393939e+00 2.26115408667585e-02 2.29113522779153e-04
7.39719696969697e+00 2.24935333755327e-02 2.28393128475824e-04
7.42795454545455e+00 2.23761417541654e-02 2.27673031103289e-04
7.45871212121212e+00 2.22593627886471e-02 2.26953258368595e-04
7.48946969696970e+00 2.21431932814291e-02 2.26233837533460e-04
7.52022727272727e+00 2.20276300519600e-02 2.25514795412556e-04
7.55098484848485e+00 2.19126699359810e-02 2.24796158460685e-04
7.58174242424242e+00 2.17983097859006e-02 2.24077952479378e-04
7.61250000000000e+00 2.16845464707037e-02 2.23360203067032e-04
7.64325757575758e+00 2.15713768754166e-02 2.22642935332515e-04
7.67401515151515e+00 2.14587979016183e-02 2.21926173968422e-04
7.70477272727273e+00 2.13468064667652e-02 2.21209943335013e-04
7.73553030303030e+00 2.12353995045481e-02 2.20494267176605e-04
7.76628787878788e+00 2.11245739648029e-02 2.19779169055970e-04
7.79704545454545e+00 2.10143268129984e-02 2.19064672077483e-04
7.82780303030303e+00 2.09046550307234e-02 2.18350798957697e-04
7.85856060606061e+00 2.07955556150390e-02 2.17637572038181e-04
7.88931818181818e+00 2.06870255789561e-02 2.16925013283436e-04
7.92007575757576e+00 2.05790619507996e-02 2.16213144360312e-04
7.95083333333333e+00 2.04716617745409e-02 2.15501986368127e-04
7.98159090909091e+00 2.03648221097124e-02 2.14791560251270e-04
8.01234848484848e+00 2.02585400309244e-02 2.14081886535734e-04
8.04310606060606e+00 2.01528126283201e-02 2.13372985395935e-04
8.07386363636364e+00 2.00476370069660e-02 2.12664876666608e-04
8.10462121212121e+00 1.99430102872972e-02 2.11957579840509e-04
8.13537878787879e+00 1.98389296045196e-02 2.11251114143719e-04
8.16613636363636e+00 1.97353921089189e-02 2.10545498278709e-04
8.19689393939394e+00 1.96323949657789e-02 2.09840750816363e-04
8.22765151515152e+00 1.95299353549258e-02 2.09136889945291e-04
8.25840909090909e+00 1.94280104711535e-02 2.08433933535061e-04
8.28916666666667e+00 1.93266175236489e-02 2.07731899147220e-04
8.31992424242424e+00 1.92257537364084e-02 2.07030804032966e-04
8.35068181818182e+00 1.91254163476741e-02 2.06330665204402e-04
8.38143939393939e+00 1.90256026102228e-02 2.05631499189993e-04
8.41219696969697e+00 1.89263097912864e-02 2.04933322407251e-04
8.44295454545455e+00 1.88275351721228e-02 2.04236150923964e-04
8.47371212121212e+00 1.87292760484128e-02 2.03540000518175e-04
8.50446969696970e+00 1.86315297297189e-02 2.02844886688444e-04
8.53522727272727e+00 1.85342935398744e-02 2.02150824651438e-04
8.56598484848485e+00 1.84375648164517e-02 2.01457829409464e-04
8.59674242424243e+00 1.83413409110323e-02 2.00765915517592e-04
8.62750000000000e+00 1.82456191891302e-02 2.00075097438128e-04
8.65825757575758e+00 1.81503970297865e-02 1.99385389313158e-04
8.68901515151515e+00 1.80556718259408e-02 1.98696805021434e-04
8.71977272727273e+00 1.79614409839209e-02 1.98009358243605e-04
8.75053030303030e+00 1.78677019236999e-02 1.97323062236935e-04
8.78128787878788e+00 1.77744520788217e-02 1.96637930177751e-04
8.81204545454545e+00 1.76816888960118e-02 1.95953974941460e-04
8.84280303030303e+00 1.75894098355316e-02 1.95271209157485e-04
8.87356060606061e+00 1.74976123706886e-02 1.94589645218328e-04
8.90431818181818e+00 1.74062939881834e-02 1.93909295277087e-04
8.93507575757576e+00 1.73154521876287e-02 1.93230171309266e-04
8.96583333333333e+00 1.72250844817889e-02 1.92552284898221e-04
8.99659090909091e+00 1.71351883965089e-02 1.91875647561053e-04
9.02734848484848e+00 1.70457614703459e-02 1.91200270538958e-04
9.05810606060606e+00 1.69568012549015e-02 1.90526164849413e-04
9.08886363636364e+00 1.68683053143588e-02 1.89853341294598e-04
9.11962121212121e+00 1.67802712258076e-02 1.89181810458922e-04
9.15037878787879e+00 1.66926965787902e-02 1.88511582767754e-04
9.18113636363636e+00 1.66055789755251e-02 1.87842668282910e-04
9.21189393939394e+00 1.65189160308388e-02 1.87175077012891e-04
9.24265151515151e+00 1.64327053718172e-02 1.86508818713079e-04
9.27340909090909e+00 1.63469446381172e-02 1.85843902935296e-04
9.30416666666667e+00 1.62616314815288e-02 1.85180339035720e-04
9.33492424242424e+00 1.61767635662806e-02 1.84518136172369e-04
9.36568181818182e+00 1.60923385686097e-02 1.83857303360899e-04
9.39643939393939e+00 1.60083541769717e-02 1.83197849279704e-04
9.42719696969697e+00 1.59248080919743e-02 1.82539782565282e-04
9.45795454545455e+00 1.58416980260484e-02 1.81883111621792e-04
9.48871212121212e+00 1.57590217037390e-02 1.81227844668176e-04
9.51946969696970e+00 1.56767768612925e-02 1.80573989745525e-04
9.55022727272727e+00 1.55949612469420e-02 1.79921554714587e-04
9.58098484848485e+00 1.55135726205016e-02 1.79270547308823e-04
9.61174242424242e+00 1.54326087535623e-02 1.78620974948578e-04
9.64250000000000e+00 1.53520674294282e-02 1.77972845022428e-04
9.67325757575758e+00 1.52719464428052e-02 1.77326164705592e-04
9.70401515151515e+00 1.51922436000738e-02 1.76680941004709e-04
