Energy (eV)          EEDF (eV^-(3/2))     First Anisotropy
4.32926829268293e-02 3.40409238601823e-02 1.99205842875814e-05
1.29878048780488e-01 3.37556791888671e-02 3.28672205369791e-05
2.16463414634146e-01 3.34728247141506e-02 4.33161243947717e-05
3.03048780487805e-01 3.31923404082400e-02 5.12103526820520e-05
3.89634146341463e-01 3.29142064111718e-02 5.77580178565372e-05
4.76219512195122e-01 3.26384030275791e-02 6.34169062379398e-05
5.62804878048780e-01 3.23649107282147e-02 6.84244222235204e-05
6.49390243902439e-01 3.20937101474568e-02 7.29242221537904e-05
7.35975609756098e-01 3.18247820819423e-02 7.70117746913994e-05
8.22560975609756e-01 3.15581074892295e-02 8.07546907691205e-05
9.09146341463415e-01 3.12936674864367e-02 8.42031193733736e-05
9.95731707317073e-01 3.10314433491862e-02 8.73955934372482e-05
1.08231707317073e+00 3.07714165094195e-02 9.03625571811125e-05
1.16890243902439e+00 3.05135685540061e-02 9.31286134131724e-05
1.25548780487805e+00 3.02578812273954e-02 9.57140204203863e-05
1.34207317073171e+00 3.00043364225106e-02 9.81357237534537e-05
1.42865853658537e+00 2.97529161880842e-02 1.00408089952549e-04
1.51524390243902e+00 2.95036027195617e-02 1.02543441716866e-04
1.60182926829268e+00 2.92563783634157e-02 1.04552455738763e-04
1.68841463414634e+00 2.90112256156175e-02 1.06444466428542e-04
1.77500000000000e+00 2.87681271156677e-02 1.08227698983735e-04
1.86158536585366e+00 2.85270656514658e-02 1.09909452661355e-04
1.94817073170732e+00 2.82880241524198e-02 1.11496246287064e-04
2.03475609756098e+00 2.80509856935236e-02 1.12993935055218e-04
2.12134146341463e+00 2.78159334892102e-02 1.14407805623945e-04
2.20792682926829e+00 2.75828508957532e-02 1.15742653376015e-04
2.29451219512195e+00 2.73517214099484e-02 1.17002847626485e-04
2.38109756097561e+00 2.71225286647679e-02 1.18192384812790e-04
2.46768292682927e+00 2.68952564323273e-02 1.19314933722034e-04
2.55426829268293e+00 2.66698886188349e-02 1.20373873837287e-04
2.64085365853659e+00 2.64464092662958e-02 1.21372327356718e-04
2.72743902439024e+00 2.62248025512854e-02 1.22313187762350e-04
2.81402439024390e+00 2.60050527812706e-02 1.23199143352401e-04
2.90060975609756e+00 2.57871443968340e-02 1.24032698097082e-04
2.98719512195122e+00 2.55710619673938e-02 1.24816189741367e-04
3.07378048780488e+00 2.53567901931430e-02 1.25551805558757e-04
3.16036585365854e+00 2.51443139010679e-02 1.26241596332980e-04
3.24695121951219e+00 2.49336180460022e-02 1.26887488149140e-04
3.33353658536585e+00 2.47246877094942e-02 1.27491293788998e-04
3.42012195121951e+00 2.45175080968103e-02 1.28054721924793e-04
3.50670731707317e+00 2.43120645384276e-02 1.28579385726414e-04
3.59329268292683e+00 2.41083424865571e-02 1.29066810597048e-04
3.67987804878049e+00 2.39063275159049e-02 1.29518440627790e-04
3.76646341463415e+00 2.37060053226024e-02 1.29935645276809e-04
3.85304878048780e+00 2.35073617215430e-02 1.30319724549868e-04
3.93963414634146e+00 2.33103826475402e-02 1.30671914065816e-04
4.02621951219512e+00 2.31150541522484e-02 1.30993389683718e-04
4.11280487804878e+00 2.29213624047108e-02 1.31285271271398e-04
4.19939024390244e+00 2.27292936903362e-02 1.31548626935900e-04
4.28597560975610e+00 2.25388344085118e-02 1.31784476113146e-04
4.37256097560976e+00 2.23499710735024e-02 1.31993792747315e-04
4.45914634146341e+00 2.21626903116951e-02 1.32177508162469e-04
4.54573170731707e+00 2.19769788623927e-02 1.32336513659311e-04
4.63231707317073e+00 2.17928235751913e-02 1.32471663007456e-04
4.71890243902439e+00 2.16102114102923e-02 1.32583774363316e-04
4.80548780487805e+00 2.14291294375483e-02 1.32673632742097e-04
4.89207317073171e+00 2.12495648343896e-02 1.32741991624978e-04
4.97865853658537e+00 2.10715048864393e-02 1.32789574761062e-04
5.06524390243902e+00 2.08949369851364e-02 1.32817077864492e-04
5.15182926829268e+00 2.07198486279350e-02 1.32825169843213e-04
5.23841463414634e+00 2.05462274173919e-02 1.32814494589066e-04
5.32500000000000e+00 2.03740610592699e-02 1.32785672018513e-04
5.41158536585366e+00 2.02033373630098e-02 1.32739299334828e-04
5.49817073170732e+00 2.00340442395628e-02 1.32675952170650e-04
5.58475609756097e+00 1.98661697018018e-02 1.32596185627432e-04
5.67134146341463e+00 1.96997018624407e-02 1.32500535331230e-04
5.75792682926829e+00 1.95346289341051e-02 1.32389518114991e-04
5.84451219512195e+00 1.93709392284768e-02 1.32263633234537e-04
5.93109756097561e+00 1.92086211546099e-02 1.32123362952245e-04
6.01768292682927e+00 1.90476632192388e-02 1.31969173347031e-04
6.10426829268293e+00 1.88880540248656e-02 1.31801515096329e-04
6.19085365853658e+00 1.87297822697676e-02 1.31620823928250e-04
6.27743902439024e+00 1.85728367471782e-02 1.31427521582663e-04
6.36402439024390e+00 1.84172063437285e-02 1.31222016199474e-04
6.45060975609756e+00 1.82628800396699e-02 1.31004702928999e-04
6.53719512195122e+00 1.81098469071100e-02 1.30775964477913e-04
6.62378048780488e+00 1.79580961101975e-02 1.30536171603938e-04
6.71036585365854e+00 1.78076169034199e-02 1.30285683651965e-04
6.79695121951220e+00 1.76583986315367e-02 1.30024848808123e-04
6.88353658536585e+00 1.75104307288099e-02 1.29754004820728e-04
6.97012195121951e+00 1.73637027176014e-02 1.29473479218152e-04
7.05670731707317e+00 1.72182042084946e-02 1.29183589735646e-04
7.14329268292683e+00 1.70739248987164e-02 1.28884644736482e-04
7.22987804878049e+00 1.69308545720327e-02 1.28576943375749e-04
7.31646341463415e+00 1.67889830980123e-02 1.28260776204045e-04
7.40304878048780e+00 1.66483004307183e-02 1.27936425307241e-04
7.48963414634146e+00 1.65087966087777e-02 1.27604164645231e-04
7.57621951219512e+00 1.63704617539128e-02 1.27264260389024e-04
7.66280487804878e+00 1.62332860708091e-02 1.26916971021828e-04
7.74939024390244e+00 1.60972598464087e-02 1.26562547853646e-04
7.83597560975610e+00 1.59623734486878e-02 1.26201235105962e-04
7.92256097560976e+00 1.58286173266823e-02 1.25833270185470e-04
8.00914634146341e+00 1.56959820091193e-02 1.25458883920249e-04
8.09573170731707e+00 1.55644581044235e-02 1.25078300769908e-04
8.18231707317073e+00 1.54340362993898e-02 1.24691739079208e-04
8.26890243902439e+00 1.53047073590159e-02 1.24299411121711e-04
8.35548780487805e+00 1.51764621258390e-02 1.23901523520261e-04
8.44207317073171e+00 1.50492915188204e-02 1.23498277281371e-04
8.52865853658536e+00 1.49231865333195e-02 1.23089868003114e-04
8.61524390243902e+00 1.47981382398523e-02 1.22676486085973e-04
8.70182926829268e+00 1.46741377839081e-02 1.22258316748759e-04
8.78841463414634e+00 1.45511763853137e-02 1.21835540398613e-04
8.87500000000000e+00 1.44292453371852e-02 1.21408332640840e-04
8.96158536585366e+00 1.43083360058759e-02 1.20976864452691e-04
9.04817073170732e+00 1.41884398298122e-02 1.20541302328242e-04
9.13475609756098e+00 1.40695483194283e-02 1.20101808404867e-04
9.22134146341463e+00 1.39516530560355e-02 1.19658540629176e-04
9.30792682926829e+00 1.38347456916198e-02 1.19211652747467e-04
9.39451219512195e+00 1.37188179482435e-02 1.18761294619204e-04
9.48109756097561e+00 1.36038616170845e-02 1.18307612204339e-04
9.56768292682927e+00 1.34898685583502e-02 1.17850747700831e-04
9.65426829268293e+00 1.33768307002159e-02 1.17390839686509e-04
9.74085365853658e+00 1.32647400386143e-02 1.16928023096989e-04
9.82743902439024e+00 1.31535886366619e-02 1.16462429507393e-04
9.91402439024390e+00 1.30433686237535e-02 1.15994187108556e-04
1.00006097560976e+01 1.29340721954594e-02 1.15523420712850e-04
1.00871951219512e+01 1.28256916129532e-02 1.15050252297987e-04
1.01737804878049e+01 1.27182192011930e-02 1.14574800609298e-04
1.02603658536585e+01 1.26116473502037e-02 1.14097180828886e-04
1.03469512195122e+01 1.25059685148011e-02 1.13617505964618e-04
1.04335365853659e+01 1.24011752109724e-02 1.13135886179097e-04
1.05201219512195e+01 1.22972600184456e-02 1.12652428042495e-04
1.06067073170732e+01 1.21942155801013e-02 1.12167236233888e-04
1.06932926829268e+01 1.20920345985145e-02 1.11680412805620e-04
1.07798780487805e+01 1.19907098383881e-02 1.11192056458867e-04
1.08664634146341e+01 1.18902341259804e-02 1.10702264178943e-04
1.09530487804878e+01 1.17906003458017e-02 1.10211130522530e-04
1.10396341463415e+01 1.16918014429184e-02 1.09718746915863e-04
1.11262195121951e+01 1.15938304223972e-02 1.09225203227355e-04
1.12128048780488e+01 1.14966803461462e-02 1.08730587076780e-04
1.12993902439024e+01 1.14003443350998e-02 1.08234983155826e-04
1.13859756097561e+01 1.13048155686766e-02 1.07738474741060e-04
1.14725609756098e+01 1.12100872817593e-02 1.07241143024535e-04
1.15591463414634e+01 1.11161527667658e-02 1.06743066456096e-04
1.16457317073171e+01 1.10230053731220e-02 1.06244322199544e-04
1.17323170731707e+01 1.09306385043717e-02 1.05744985484154e-04
1.18189024390244e+01 1.08390456201416e-02 1.05245128968085e-04
1.19054878048780e+01 1.07482202356279e-02 1.04744824140453e-04
1.19920731707317e+01 1.06581559188302e-02 1.04244140693163e-04
1.20786585365854e+01 1.05688462924156e-02 1.03743145904828e-04
1.21652439024390e+01 1.04802850332196e-02 1.03241905991240e-04
1.22518292682927e+01 1.03924658695965e-02 1.02740485496939e-04
1.23384146341463e+01 1.03053825831896e-02 1.02238946699017e-04
1.24250000000000e+01 1.02190290084455e-02 1.01737350908335e-04
1.25115853658537e+01 1.01333990300746e-02 1.01235757682689e-04
1.25981707317073e+01 1.00484865854056e-02 1.00734225041859e-04
1.26847560975610e+01 9.96428566121829e-03 1.00232809732210e-04
1.27713414634146e+01 9.88079029535862e-03 9.97315664551651e-05
1.28579268292683e+01 9.79799457627427e-03 9.92305490849864e-05
1.29445121951220e+01 9.71589264065787e-03 9.87298101137856e-05
1.30310975609756e+01 9.63447867498148e-03 9.82294001075915e-05
1.31176829268293e+01 9.55374691504563e-03 9.77293688807968e-05
1.32042682926829e+01 9.47369164371777e-03 9.72297649590579e-05
1.32908536585366e+01 9.39430719239121e-03 9.67306350524582e-05
1.33774390243902e+01 9.31558794054677e-03 9.62320251884794e-05
1.34640243902439e+01 9.23752831358208e-03 9.57339801921857e-05
1.35506097560976e+01 9.16012278419905e-03 9.52365431759821e-05
1.36371951219512e+01 9.08336587197785e-03 9.47397566328300e-05
1.37237804878049e+01 9.00725214129248e-03 9.42436619331725e-05
1.38103658536585e+01 8.93177620263094e-03 9.37482988307375e-05
1.38969512195122e+01 8.85693271218090e-03 9.32537065176677e-05
1.39835365853659e+01 8.78271636982767e-03 9.27599231376236e-05
1.40701219512195e+01 8.70912192041054e-03 9.22669853071134e-05
1.41567073170732e+01 8.63614415331993e-03 9.17749291341265e-05
1.42432926829268e+01 8.56377790057377e-03 9.12837897468498e-05
1.43298780487805e+01 8.49201803801349e-03 9.07936008300470e-05
1.44164634146341e+01 8.42085948491232e-03 9.03043956086864e-05
1.45030487804878e+01 8.35029720212627e-03 8.98162063916260e-05
1.45896341463415e+01 8.28032619323351e-03 8.93290641227334e-05
1.46762195121951e+01 8.21094150415272e-03 8.88429993308955e-05
1.47628048780488e+01 8.14213822136574e-03 8.83580416880143e-05
1.48493902439024e+01 8.07391147300322e-03 8.78742195745092e-05
1.49359756097561e+01 8.00625642847274e-03 8.73915609970172e-05
1.50225609756098e+01 7.93916829674984e-03 8.69100931602246e-05
1.51091463414634e+01 7.87264232741275e-03 8.64298420462707e-05
1.51957317073171e+01 7.80667381028005e-03 8.59508333014051e-05
1.52823170731707e+01 7.74125807376698e-03 8.54730918212087e-05
1.53689024390244e+01 7.67639048587186e-03 8.49966413434334e-05
1.54554878048780e+01 7.61206645382305e-03 8.45215053048068e-05
1.55420731707317e+01 7.54828142249762e-03 8.40477064392211e-05
1.56286585365854e+01 7.48503087536197e-03 8.35752663835426e-05
1.57152439024390e+01 7.42231033412783e-03 8.31042065057189e-05
1.58018292682927e+01 7.36011535723052e-03 8.26345475155105e-05
1.58884146341463e+01 7.29844154072606e-03 8.21663090828368e-05
1.59750000000000e+01 7.23728451795608e-03 8.16995106382814e-05
1.60615853658537e+01 7.17663995808293e-03 8.12341708724073e-05
1.61481707317073e+01 7.11650356731656e-03 8.07703078614340e-05
1.62347560975610e+01 7.05687108710107e-03 8.03079392224272e-05
1.63213414634146e+01 6.99773829493935e-03 7.98470816220329e-05
1.64079268292683e+01 6.93910100407272e-03 7.93877515302403e-05
1.64945121951219e+01 6.88095506210964e-03 7.89299648643407e-05
1.65810975609756e+01 6.82329635181270e-03 7.84737366398004e-05
1.66676829268293e+01 6.76612079078674e-03 7.80190816992514e-05
1.67542682926829e+01 6.70942433015782e-03 7.75660143676715e-05
1.68408536585366e+01 6.65320295532424e-03 7.71145481140485e-05
1.69274390243902e+01 6.59745268565307e-03 7.66646962565025e-05
1.70140243902439e+01 6.54216957320714e-03 7.62164716283252e-05
1.71006097560976e+01 6.48734970346196e-03 7.57698862500841e-05
1.71871951219512e+01 6.43298919501032e-03 7.53249520117454e-05
1.72737804878049e+01 6.37908419833537e-03 7.48816803492022e-05
1.73603658536585e+01 6.32563089649506e-03 7.44400819264880e-05
1.74469512195122e+01 6.27262550483465e-03 7.40001672957427e-05
1.75335365853659e+01 6.22006426980386e-03 7.35619465838650e-05
1.76201219512195e+01 6.16794346961057e-03 7.31254291845128e-05
1.77067073170732e+01 6.11625941394084e-03 7.26906243967124e-05
1.77932926829268e+01 6.06500844281846e-03 7.22575411213010e-05
1.78798780487805e+01 6.01418692722928e-03 7.18261875623939e-05
1.79664634146341e+01 5.96379126884864e-03 7.13965718454189e-05
1.80530487804878e+01 5.91381789894150e-03 7.09687017229579e-05
1.81396341463415e+01 5.86426327895895e-03 7.05425842854568e-05
1.82262195121951e+01 5.81512390027268e-03 7.01182265594182e-05
1.83128048780488e+01 5.76639628311407e-03 6.96956352222462e-05
1.83993902439024e+01 5.71807697714435e-03 6.92748163219668e-05
1.84859756097561e+01 5.67016256119574e-03 6.88557758562652e-05
1.85725609756098e+01 5.62264964224808e-03 6.84385194960499e-05
1.86591463414634e+01 5.57553485597380e-03 6.80230523138646e-05
1.87457317073171e+01 5.52881486648560e-03 6.76093793444612e-05
1.88323170731707e+01 5.48248636534910e-03 6.71975053167882e-05
1.89189024390244e+01 5.43654607210380e-03 6.67874343908281e-05
1.90054878048780e+01 5.39099073401718e-03 6.63791707003372e-05
1.90920731707317e+01 5.34581712513187e-03 6.59727180929900e-05
1.91786585365854e+01 5.30102204676380e-03 6.55680798753727e-05
1.92652439024390e+01 5.25660232726245e-03 6.51652593384931e-05
1.93518292682927e+01 5.21255482109130e-03 6.47642595058361e-05
1.94384146341463e+01 5.16887640930414e-03 6.43650828862284e-05
1.95250000000000e+01 5.12556399931140e-03 6.39677319827320e-05
1.96115853658537e+01 5.08261452399251e-03 6.35722089691566e-05
1.96981707317073e+01 5.04002494236660e-03 6.31785157679916e-05
1.97847560975610e+01 4.99779223850206e-03 6.27866541466094e-05
1.98713414634146e+01 4.95591342195636e-03 6.23966253995776e-05
1.99579268292683e+01 4.91438552755254e-03 6.20084308295290e-05
2.00445121951219e+01 4.87320561454383e-03 6.16220715160005e-05
2.01310975609756e+01 4.83237076703440e-03 6.12375480886440e-05
2.02176829268293e+01 4.79187809376161e-03 6.08548611930362e-05
2.03042682926829e+01 4.75172472728921e-03 6.04740112665920e-05
2.03908536585366e+01 4.71190782440970e-03 6.00949983186145e-05
2.04774390243902e+01 4.67242456593238e-03 5.97178223815511e-05
2.05640243902439e+01 4.63327215590384e-03 5.93424832937596e-05
2.06506097560976e+01 4.59444782199296e-03 5.89689804861756e-05
2.07371951219512e+01 4.55594881528440e-03 5.85973134194972e-05
2.08237804878049e+01 4.51777240952557e-03 5.82274813735858e-05
2.09103658536585e+01 4.47991590149487e-03 5.78594832405413e-05
2.09969512195122e+01 4.44237661080064e-03 5.74933179483089e-05
2.10835365853659e+01 4.40515187915342e-03 5.71289842564804e-05
2.11701219512195e+01 4.36823907071838e-03 5.67664805555800e-05
2.12567073170732e+01 4.33163557191944e-03 5.64058052775354e-05
2.13432926829268e+01 4.29533879073597e-03 5.60469566976858e-05
2.14298780487805e+01 4.25934615704008e-03 5.56899327400912e-05
2.15164634146341e+01 4.22365512240575e-03 5.53347313753021e-05
2.16030487804878e+01 4.18826315942911e-03 5.49813504283464e-05
2.16896341463415e+01 4.15316776205125e-03 5.46297873898965e-05
2.17762195121951e+01 4.11836644537226e-03 5.42800398017866e-05
2.18628048780488e+01 4.08385674499411e-03 5.39321050707354e-05
2.19493902439024e+01 4.04963621732976e-03 5.35859802852216e-05
2.20359756097561e+01 4.01570243942186e-03 5.32416625891318e-05
2.21225609756098e+01 3.98205300830753e-03 5.28991490010423e-05
2.22091463414634e+01 3.94868554131427e-03 5.25584362366381e-05
2.22957317073171e+01 3.91559767588327e-03 5.22195210708774e-05
2.23823170731707e+01 3.88278706895521e-03 5.18824001626500e-05
2.24689024390244e+01 3.85025139725367e-03 5.15470698825566e-05
2.25554878048780e+01 3.81798835711279e-03 5.12135266639808e-05
2.26420731707317e+01 3.78599566388347e-03 5.08817668329518e-05
2.27286585365854e+01 3.75427105220469e-03 5.05517864411179e-05
2.28152439024390e+01 3.72281227583555e-03 5.02235816060833e-05
2.29018292682927e+01 3.69161710708099e-03 4.98971483463151e-05
2.29884146341463e+01 3.66068333705166e-03 4.95724824191409e-05
2.30750000000000e+01 3.63000877550019e-03 4.92495796507025e-05
2.31615853658537e+01 3.59959125026574e-03 4.89284357241388e-05
2.32481707317073e+01 3.56942860765200e-03 4.86090462293594e-05
2.33347560975610e+01 3.53951871175005e-03 4.82914067244242e-05
2.34213414634146e+01 3.50985944467901e-03 4.79755125273704e-05
2.35079268292683e+01 3.48044870642926e-03 4.76613590287233e-05
2.35945121951220e+01 3.45128441433791e-03 4.73489415396263e-05
2.36810975609756e+01 3.42236450331929e-03 4.70382551428010e-05
2.37676829268293e+01 3.39368692571220e-03 4.67292949955850e-05
2.38542682926829e+01 3.36524965077238e-03 4.64220561826006e-05
2.39408536585366e+01 3.33705066489327e-03 4.61165335710995e-05
2.40274390243902e+01 3.30908797145721e-03 4.58127221048370e-05
2.41140243902439e+01 3.28135959034425e-03 4.55106166611337e-05
2.42006097560976e+01 3.25386355814365e-03 4.52102119104789e-05
2.42871951219512e+01 3.22659792800890e-03 4.49115026015278e-05
2.43737804878049e+01 3.19956076918236e-03 4.46144834224210e-05
2.44603658536585e+01 3.17275016719781e-03 4.43191488645193e-05
2.45469512195122e+01 3.14616422373922e-03 4.40254934988023e-05
2.46335365853659e+01 3.11980105618067e-03 4.37335118413174e-05
2.47201219512195e+01 3.09365879778038e-03 4.34431982209091e-05
2.48067073170732e+01 3.06773559754306e-03 4.31545470472993e-05
2.48932926829268e+01 3.04202961977462e-03 4.28675526805366e-05
2.49798780487805e+01 3.01653904426801e-03 4.25822093026053e-05
2.50664634146341e+01 2.99126206616913e-03 4.22985111774557e-05
2.51530487804878e+01 2.96619689554571e-03 4.20164525243026e-05
2.52396341463415e+01 2.94134175756542e-03 4.17360273930132e-05
2.53262195121951e+01 2.91669489236518e-03 4.14572299163568e-05
2.54128048780488e+01 2.89225455463371e-03 4.11800541870006e-05
2.54993902439024e+01 2.86801901378230e-03 4.09044941365855e-05
2.55859756097561e+01 2.84398655381735e-03 4.06305437804331e-05
2.56725609756098e+01 2.82015547293622e-03 4.03581970981278e-05
2.57591463414634e+01 2.79652408369092e-03 4.00874479161679e-05
2.58457317073171e+01 2.77309071286375e-03 3.98182901453579e-05
2.59323170731707e+01 2.74985370107611e-03 3.95507176648753e-05
2.60189024390244e+01 2.72681140294524e-03 3.92847242083880e-05
2.61054878048780e+01 2.70396218696311e-03 3.90203035943617e-05
2.61920731707317e+01 2.68130443511751e-03 3.87574496135040e-05
2.62786585365854e+01 2.65883654304233e-03 3.84961559182386e-05
2.63652439024390e+01 2.63655691989949e-03 3.82364162461557e-05
2.64518292682927e+01 2.61446398801194e-03 3.79782243107274e-05
2.65384146341463e+01 2.59255618300774e-03 3.77215736940359e-05
2.66250000000000e+01 2.57083195370493e-03 3.74664580635763e-05
2.67115853658537e+01 2.54928976175613e-03 3.72128710321048e-05
2.67981707317073e+01 2.52792808186589e-03 3.69608061899943e-05
2.68847560975610e+01 2.50674540136058e-03 3.67102571450826e-05
2.69713414634146e+01 2.48574022032197e-03 3.64612173848606e-05
2.70579268292683e+01 2.46491105147695e-03 3.62136804821485e-05
2.71445121951219e+01 2.44425641986107e-03 3.59676399943619e-05
2.72310975609756e+01 2.42377486294654e-03 3.57230893646313e-05
2.73176829268293e+01 2.40346493053480e-03 3.54800221213948e-05
