Energy (eV)          EEDF (eV^-(3/2))     First Anisotropy
3.00000000000000e-02 1.10689840976384e-01 7.96490266497162e-05
9.00000000000000e-02 1.09280125532669e-01 1.31126481616509e-04
1.50000000000000e-01 1.07888363838007e-01 1.72054062161653e-04
2.10000000000000e-01 1.06514327238408e-01 2.02516780598968e-04
2.70000000000000e-01 1.05157789991931e-01 2.27406795357241e-04
3.30000000000000e-01 1.03818529231619e-01 2.48590265325352e-04
3.90000000000000e-01 1.02496324928884e-01 2.67041103826560e-04
4.50000000000000e-01 1.01190959857364e-01 2.83352266023908e-04
5.10000000000000e-01 9.99022195572301e-02 2.97920182542083e-04
5.70000000000000e-01 9.86298922999559e-02 3.11027264979826e-04
6.30000000000000e-01 9.73737690535309e-02 3.22884199271522e-04
6.90000000000000e-01 9.61336434481191e-02 3.33653785961645e-04
7.50000000000000e-01 9.49093117421540e-02 3.43465359746422e-04
8.10000000000000e-01 9.37005727888658e-02 3.52424000176158e-04
8.70000000000000e-01 9.25072280032348e-02 3.60616677559099e-04
9.30000000000000e-01 9.13290813293654e-02 3.68116503170334e-04
9.90000000000000e-01 9.01659392082765e-02 3.74985757664299e-04
1.05000000000000e+00 8.90176105461006e-02 3.81278104385874e-04
1.11000000000000e+00 8.78839066826896e-02 3.87040242684808e-04
1.17000000000000e+00 8.67646413606192e-02 3.92313166619455e-04
1.23000000000000e+00 8.56596306945884e-02 3.97133139374723e-04
1.29000000000000e+00 8.45686931412092e-02 4.01532458848759e-04
1.35000000000000e+00 8.34916494691802e-02 4.05540067162116e-04
1.41000000000000e+00 8.24283227298407e-02 4.09182041701321e-04
1.47000000000000e+00 8.13785382280996e-02 4.12481994986777e-04
1.53000000000000e+00 8.03421234937345e-02 4.15461403480717e-04
1.59000000000000e+00 7.93189082530564e-02 4.18139880376456e-04
1.65000000000000e+00 7.83087244009356e-02 4.20535403762984e-04
1.71000000000000e+00 7.73114059731828e-02 4.22664508899470e-04
1.77000000000000e+00 7.63267891192832e-02 4.24542451369029e-04
1.83000000000000e+00 7.53547120754774e-02 4.26183346411325e-04
1.89000000000000e+00 7.43950151381846e-02 4.27600288621473e-04
1.95000000000000e+00 7.34475406377651e-02 4.28805455352624e-04
2.01000000000000e+00 7.25121329126164e-02 4.29810196503870e-04
2.07000000000000e+00 7.15886382835996e-02 4.30625112864014e-04
2.13000000000000e+00 7.06769050287910e-02 4.31260124780582e-04
2.19000000000000e+00 6.97767833585557e-02 4.31724532605918e-04
2.25000000000000e+00 6.88881253909387e-02 4.32027070118911e-04
2.31000000000000e+00 6.80107851273688e-02 4.32175951917737e-04
2.37000000000000e+00 6.71446184286726e-02 4.32178915614497e-04
2.43000000000000e+00 6.62894829913935e-02 4.32043259529131e-04
2.49000000000000e+00 6.54452383244129e-02 4.31775876470909e-04
2.55000000000000e+00 6.46117457258686e-02 4.31383284105619e-04
2.61000000000000e+00 6.37888682603670e-02 4.30871652332490e-04
2.67000000000000e+00 6.29764707364863e-02 4.30246828033223e-04
2.73000000000000e+00 6.21744196845655e-02 4.29514357504012e-04
2.79000000000000e+00 6.13825833347765e-02 4.28679506838115e-04
2.85000000000000e+00 6.06008315954757e-02 4.27747280490347e-04
2.91000000000000e+00 5.98290360318310e-02 4.26722438224160e-04
2.97000000000000e+00 5.90670698447208e-02 4.25609510615755e-04
3.03000000000000e+00 5.83148078499026e-02 4.24412813267706e-04
3.09000000000000e+00 5.75721264574460e-02 4.23136459865327e-04
3.15000000000000e+00 5.68389036514281e-02 4.21784374192893e-04
3.21000000000000e+00 5.61150189698871e-02 4.20360301212872e-04
3.27000000000000e+00 5.54003534850320e-02 4.18867817299072e-04
3.33000000000000e+00 5.46947897837032e-02 4.17310339704255e-04
3.39000000000000e+00 5.39982119480832e-02 4.15691135333701e-04
3.45000000000000e+00 5.33105055366517e-02 4.14013328888162e-04
3.51000000000000e+00 5.26315575653845e-02 4.12279910432890e-04
3.57000000000000e+00 5.19612564891907e-02 4.10493742443352e-04
3.63000000000000e+00 5.12994921835872e-02 4.08657566372772e-04
3.69000000000000e+00 5.06461559266060e-02 4.06774008782216e-04
3.75000000000000e+00 5.00011403809325e-02 4.04845587069770e-04
3.81000000000000e+00 4.93643395762704e-02 4.02874714831490e-04
3.87000000000000e+00 4.87356488919321e-02 4.00863706883922e-04
3.93000000000000e+00 4.81149650396504e-02 3.98814783974978e-04
3.99000000000000e+00 4.75021860466092e-02 3.96730077207353e-04
4.05000000000000e+00 4.68972112386901e-02 3.94611632196534e-04
4.11000000000000e+00 4.62999412239327e-02 3.92461412983385e-04
4.17000000000000e+00 4.57102778762052e-02 3.90281305719466e-04
4.23000000000000e+00 4.51281243190836e-02 3.88073122141644e-04
4.29000000000000e+00 4.45533849099351e-02 3.85838602851111e-04
4.35000000000000e+00 4.39859652242055e-02 3.83579420410679e-04
4.41000000000000e+00 4.34257720399056e-02 3.81297182272906e-04
4.47000000000000e+00 4.28727133222962e-02 3.78993433550663e-04
4.53000000000000e+00 4.23266982087669e-02 3.76669659640818e-04
4.59000000000000e+00 4.17876369939088e-02 3.74327288710667e-04
4.65000000000000e+00 4.12554411147764e-02 3.71967694056293e-04
4.71000000000000e+00 4.07300231363376e-02 3.69592196340979e-04
4.77000000000000e+00 4.02112967371089e-02 3.67202065721298e-04
4.83000000000000e+00 3.96991766949736e-02 3.64798523868010e-04
4.89000000000000e+00 3.91935788731802e-02 3.62382745888218e-04
4.95000000000000e+00 3.86944202065201e-02 3.59955862154820e-04
5.01000000000000e+00 3.82016186876802e-02 3.57518960048817e-04
5.07000000000000e+00 3.77150933537702e-02 3.55073085619656e-04
5.13000000000000e+00 3.72347642730209e-02 3.52619245168463e-04
5.19000000000000e+00 3.67605525316522e-02 3.50158406758528e-04
5.25000000000000e+00 3.62923802209081e-02 3.47691501657247e-04
5.31000000000000e+00 3.58301704242573e-02 3.45219425713384e-04
5.37000000000000e+00 3.53738472047563e-02 3.42743040673239e-04
5.43000000000000e+00 3.49233355925736e-02 3.40263175439090e-04
5.49000000000000e+00 3.44785615726731e-02 3.37780627273017e-04
5.55000000000000e+00 3.40394520726537e-02 3.35296162949059e-04
5.61000000000000e+00 3.36059349507443e-02 3.32810519856402e-04
5.67000000000000e+00 3.31779389839520e-02 3.30324407056193e-04
5.73000000000000e+00 3.27553938563598e-02 3.27838506294408e-04
5.79000000000000e+00 3.23382301475755e-02 3.25353472972923e-04
5.85000000000000e+00 3.19263793213256e-02 3.22869937080991e-04
5.91000000000000e+00 3.15197737141958e-02 3.20388504089037e-04
5.97000000000000e+00 3.11183465245147e-02 3.17909755806679e-04
6.03000000000000e+00 3.07220318013784e-02 3.15434251206722e-04
6.09000000000000e+00 3.03307644338159e-02 3.12962527216695e-04
6.15000000000000e+00 2.99444801400913e-02 3.10495099479608e-04
6.21000000000000e+00 2.95631154571435e-02 3.08032463085240e-04
6.27000000000000e+00 2.91866077301596e-02 3.05575093273450e-04
6.33000000000000e+00 2.88148951022809e-02 3.03123446110773e-04
6.39000000000000e+00 2.84479165044411e-02 3.00677959141468e-04
6.45000000000000e+00 2.80856116453323e-02 2.98239052014251e-04
6.51000000000000e+00 2.77279210015006e-02 2.95807127085782e-04
6.57000000000000e+00 2.73747858075662e-02 2.93382570001939e-04
6.63000000000000e+00 2.70261480465690e-02 2.90965750257829e-04
6.69000000000000e+00 2.66819504404373e-02 2.88557021737483e-04
6.75000000000000e+00 2.63421364405768e-02 2.86156723234132e-04
6.81000000000000e+00 2.60066502185810e-02 2.83765178951878e-04
6.87000000000000e+00 2.56754366570584e-02 2.81382698989536e-04
6.93000000000000e+00 2.53484413405775e-02 2.79009579807399e-04
6.99000000000000e+00 2.50256105467269e-02 2.76646104677665e-04
7.05000000000000e+00 2.47068912372890e-02 2.74292544119157e-04
7.11000000000000e+00 2.43922310495264e-02 2.71949156317020e-04
7.17000000000000e+00 2.40815782875793e-02 2.69616187527952e-04
7.23000000000000e+00 2.37748819139719e-02 2.67293872471608e-04
7.29000000000000e+00 2.34720915412279e-02 2.64982434708697e-04
7.35000000000000e+00 2.31731574235921e-02 2.62682087006303e-04
7.41000000000000e+00 2.28780304488575e-02 2.60393031690908e-04
7.47000000000000e+00 2.25866621302966e-02 2.58115460989647e-04
7.53000000000000e+00 2.22990045986958e-02 2.55849557360189e-04
7.59000000000000e+00 2.20150105944904e-02 2.53595493809726e-04
7.65000000000000e+00 2.17346334600008e-02 2.51353434203471e-04
7.71000000000000e+00 2.14578271317667e-02 2.49123533563027e-04
7.77000000000000e+00 2.11845461329793e-02 2.46905938355058e-04
7.83000000000000e+00 2.09147455660100e-02 2.44700786770595e-04
7.89000000000000e+00 2.06483811050343e-02 2.42508208995307e-04
7.95000000000000e+00 2.03854089887489e-02 2.40328327471096e-04
8.01000000000000e+00 2.01257860131827e-02 2.38161257149329e-04
8.07000000000000e+00 1.98694695245983e-02 2.36007105735986e-04
8.13000000000000e+00 1.96164174124849e-02 2.33865973929015e-04
8.19000000000000e+00 1.93665881026394e-02 2.31737955648220e-04
8.25000000000000e+00 1.91199405503363e-02 2.29623138257873e-04
8.31000000000000e+00 1.88764342335845e-02 2.27521602782333e-04
8.37000000000000e+00 1.86360291464701e-02 2.25433424114980e-04
8.43000000000000e+00 1.83986857925832e-02 2.23358671220595e-04
8.49000000000000e+00 1.81643651785296e-02 2.21297407331437e-04
8.55000000000000e+00 1.79330288075240e-02 2.19249690137318e-04
8.61000000000000e+00 1.77046386730659e-02 2.17215571969754e-04
8.67000000000000e+00 1.74791572526949e-02 2.15195099980469e-04
8.73000000000000e+00 1.72565475018266e-02 2.13188316314446e-04
8.79000000000000e+00 1.70367728476660e-02 2.11195258277659e-04
8.85000000000000e+00 1.68197971831994e-02 2.09215958499701e-04
8.91000000000000e+00 1.66055848612620e-02 2.07250445091480e-04
8.97000000000000e+00 1.63941006886816e-02 2.05298741798100e-04
9.03000000000000e+00 1.61853099204966e-02 2.03360868147146e-04
9.09000000000000e+00 1.59791782542474e-02 2.01436839592471e-04
9.15000000000000e+00 1.57756718243416e-02 1.99526667653657e-04
9.21000000000000e+00 1.55747571964892e-02 1.97630360051292e-04
9.27000000000000e+00 1.53764013622106e-02 1.95747920838178e-04
9.33000000000000e+00 1.51805717334128e-02 1.93879350526610e-04
9.39000000000000e+00 1.49872361370360e-02 1.92024646211863e-04
9.45000000000000e+00 1.47963628097676e-02 1.90183801691981e-04
9.51000000000000e+00 1.46079203928237e-02 1.88356807583999e-04
9.57000000000000e+00 1.44218779267975e-02 1.86543651436720e-04
9.63000000000000e+00 1.42382048465726e-02 1.84744317840120e-04
9.69000000000000e+00 1.40568709763015e-02 1.82958788531538e-04
9.75000000000000e+00 1.38778465244481e-02 1.81187042498695e-04
9.81000000000000e+00 1.37011020788931e-02 1.79429056079666e-04
9.87000000000000e+00 1.35266086021019e-02 1.77684803059919e-04
9.93000000000000e+00 1.33543374263538e-02 1.75954254766457e-04
9.99000000000000e+00 1.31842602490326e-02 1.74237380159209e-04
1.00500000000000e+01 1.30163491279762e-02 1.72534145919702e-04
1.01100000000000e+01 1.28505764768864e-02 1.70844516537139e-04
1.01700000000000e+01 1.26869150607965e-02 1.69168454391937e-04
1.02300000000000e+01 1.25253379915968e-02 1.67505919836809e-04
1.02900000000000e+01 1.23658187236172e-02 1.65856871275441e-04
1.03500000000000e+01 1.22083310492659e-02 1.64221265238874e-04
1.04100000000000e+01 1.20528490947239e-02 1.62599056459626e-04
1.04700000000000e+01 1.18993473156941e-02 1.60990197943649e-04
1.05300000000000e+01 1.17478004932045e-02 1.59394641040172e-04
1.05900000000000e+01 1.15981837294649e-02 1.57812335509466e-04
1.06500000000000e+01 1.14504724437768e-02 1.56243229588614e-04
1.07100000000000e+01 1.13046423684943e-02 1.54687270055365e-04
1.07700000000000e+01 1.11606695450381e-02 1.53144402290114e-04
1.08300000000000e+01 1.10185303199584e-02 1.51614570336035e-04
1.08900000000000e+01 1.08782013410493e-02 1.50097716957449e-04
1.09500000000000e+01 1.07396595535124e-02 1.48593783696469e-04
1.10100000000000e+01 1.06028821961688e-02 1.47102710927965e-04
1.10700000000000e+01 1.04678467977195e-02 1.45624437912930e-04
1.11300000000000e+01 1.03345311730540e-02 1.44158902850232e-04
1.11900000000000e+01 1.02029134196054e-02 1.42706042926855e-04
1.12500000000000e+01 1.00729719137517e-02 1.41265794366655e-04
1.13100000000000e+01 9.94468530726334e-03 1.39838092477640e-04
1.13700000000000e+01 9.81803252379618e-03 1.38422871697874e-04
1.14300000000000e+01 9.69299275542848e-03 1.37020065640009e-04
1.14900000000000e+01 9.56954545924250e-03 1.35629607134467e-04
1.15500000000000e+01 9.44767035394949e-03 1.34251428271346e-04
1.16100000000000e+01 9.32734741655760e-03 1.32885460441081e-04
1.16700000000000e+01 9.20855687908232e-03 1.31531634373861e-04
1.17300000000000e+01 9.09127922529878e-03 1.30189880177883e-04
1.17900000000000e+01 8.97549518753538e-03 1.28860127376436e-04
1.18500000000000e+01 8.86118574350831e-03 1.27542304943878e-04
1.19100000000000e+01 8.74833211319632e-03 1.26236341340512e-04
1.19700000000000e+01 8.63691575575540e-03 1.24942164546412e-04
1.20300000000000e+01 8.52691836647262e-03 1.23659702094216e-04
1.20900000000000e+01 8.41832187375884e-03 1.22388881100911e-04
1.21500000000000e+01 8.31110843617974e-03 1.21129628298651e-04
1.22100000000000e+01 8.20526043952460e-03 1.19881870064633e-04
1.22700000000000e+01 8.10076049391246e-03 1.18645532450040e-04
1.23300000000000e+01 7.99759143093513e-03 1.17420541208098e-04
1.23900000000000e+01 7.89573630083651e-03 1.16206821821257e-04
1.24500000000000e+01 7.79517836972799e-03 1.15004299527526e-04
1.25100000000000e+01 7.69590111683916e-03 1.13812899345987e-04
1.25700000000000e+01 7.59788823180359e-03 1.12632546101506e-04
1.26300000000000e+01 7.50112361197922e-03 1.11463164448667e-04
1.26900000000000e+01 7.40559135980282e-03 1.10304678894941e-04
1.27500000000000e+01 7.31127578017816e-03 1.09157013823126e-04
1.28100000000000e+01 7.21816137789744e-03 1.08020093513061e-04
1.28700000000000e+01 7.12623285509560e-03 1.06893842162662e-04
1.29300000000000e+01 7.03547510873696e-03 1.05778183908254e-04
1.29900000000000e+01 6.94587322813400e-03 1.04673042844261e-04
1.30500000000000e+01 6.85741249249757e-03 1.03578343042247e-04
1.31100000000000e+01 6.77007836851851e-03 1.02494008569331e-04
1.31700000000000e+01 6.68385650797984e-03 1.01419963506003e-04
1.32300000000000e+01 6.59873274539959e-03 1.00356131963340e-04
1.32900000000000e+01 6.51469309570345e-03 9.93024380996508e-05
1.33500000000000e+01 6.43172375192717e-03 9.82588061365664e-05
1.34100000000000e+01 6.34981108294825e-03 9.72251603745802e-05
1.34700000000000e+01 6.26894163124638e-03 9.62014252080638e-05
1.35300000000000e+01 6.18910211069256e-03 9.51875251397590e-05
1.35900000000000e+01 6.11027940436628e-03 9.41833847947756e-05
1.36500000000000e+01 6.03246056240054e-03 9.31889289341142e-05
1.37100000000000e+01 5.95563279985426e-03 9.22040824676961e-05
1.37700000000000e+01 5.87978349461190e-03 9.12287704669363e-05
1.38300000000000e+01 5.80490018530971e-03 9.02629181768769e-05
1.38900000000000e+01 5.73097056928843e-03 8.93064510278820e-05
1.39500000000000e+01 5.65798250057211e-03 8.83592946469031e-05
1.40100000000000e+01 5.58592398787262e-03 8.74213748683363e-05
1.40700000000000e+01 5.51478319261958e-03 8.64926177444801e-05
1.41300000000000e+01 5.44454842701538e-03 8.55729495555962e-05
1.41900000000000e+01 5.37520815211503e-03 8.46622968195933e-05
1.42500000000000e+01 5.30675097593033e-03 8.37605863013534e-05
1.43100000000000e+01 5.23916565155836e-03 8.28677450216839e-05
1.43700000000000e+01 5.17244107533364e-03 8.19837002659212e-05
1.44300000000000e+01 5.10656628500395e-03 8.11083795922104e-05
1.44900000000000e+01 5.04153045792928e-03 8.02417108394362e-05
1.45500000000000e+01 4.97732290930381e-03 7.93836221348437e-05
1.46100000000000e+01 4.91393309040047e-03 7.85340419013482e-05
1.46700000000000e+01 4.85135058683789e-03 7.76928988645309e-05
1.47300000000000e+01 4.78956511686941e-03 7.68601220593513e-05
1.47900000000000e+01 4.72856652969384e-03 7.60356408365670e-05
1.48500000000000e+01 4.66834480378786e-03 7.52193848688764e-05
1.49100000000000e+01 4.60889004525948e-03 7.44112841567880e-05
1.49700000000000e+01 4.55019248622261e-03 7.36112690342287e-05
1.50300000000000e+01 4.49224248319230e-03 7.28192701738920e-05
1.50900000000000e+01 4.43503051550036e-03 7.20352185923438e-05
1.51500000000000e+01 4.37854718373122e-03 7.12590456548808e-05
1.52100000000000e+01 4.32278320817769e-03 7.04906830801570e-05
1.52700000000000e+01 4.26772942731637e-03 6.97300629445772e-05
1.53300000000000e+01 4.21337679630255e-03 6.89771176864719e-05
1.53900000000000e+01 4.15971638548413e-03 6.82317801100609e-05
1.54500000000000e+01 4.10673937893465e-03 6.74939833891928e-05
1.55100000000000e+01 4.05443707300483e-03 6.67636610708960e-05
1.55700000000000e+01 4.00280087489272e-03 6.60407470787268e-05
1.56300000000000e+01 3.95182230123191e-03 6.53251757159198e-05
1.56900000000000e+01 3.90149297669782e-03 6.46168816683606e-05
1.57500000000000e+01 3.85180463263173e-03 6.39158000073711e-05
1.58100000000000e+01 3.80274910568226e-03 6.32218661923214e-05
1.58700000000000e+01 3.75431833646424e-03 6.25350160730685e-05
1.59300000000000e+01 3.70650436823462e-03 6.18551858922308e-05
1.59900000000000e+01 3.65929934558527e-03 6.11823122873008e-05
1.60500000000000e+01 3.61269551315234e-03 6.05163322926050e-05
1.61100000000000e+01 3.56668521434220e-03 5.98571833411067e-05
1.61700000000000e+01 3.52126089007347e-03 5.92048032660611e-05
1.62300000000000e+01 3.47641507753518e-03 5.85591303025349e-05
1.62900000000000e+01 3.43214040896066e-03 5.79201030887782e-05
1.63500000000000e+01 3.38842961041710e-03 5.72876606674688e-05
1.64100000000000e+01 3.34527550061049e-03 5.66617424868211e-05
1.64700000000000e+01 3.30267098970582e-03 5.60422884015705e-05
1.65300000000000e+01 3.26060907816229e-03 5.54292386738408e-05
1.65900000000000e+01 3.21908285558329e-03 5.48225339738809e-05
1.66500000000000e+01 3.17808549958117e-03 5.42221153806957e-05
1.67100000000000e+01 3.13761027465630e-03 5.36279243825595e-05
1.67700000000000e+01 3.09765053109055e-03 5.30399028774248e-05
1.68300000000000e+01 3.05819970385476e-03 5.24579931732274e-05
1.68900000000000e+01 3.01925131153020e-03 5.18821379880848e-05
1.69500000000000e+01 2.98079895524369e-03 5.13122804504006e-05
1.70100000000000e+01 2.94283631761635e-03 5.07483640988679e-05
1.70700000000000e+01 2.90535716172570e-03 5.01903328823895e-05
1.71300000000000e+01 2.86835533008102e-03 4.96381311599030e-05
1.71900000000000e+01 2.83182474361166e-03 4.90917037001151e-05
1.72500000000000e+01 2.79575940066837e-03 4.85509956811612e-05
1.73100000000000e+01 2.76015337603725e-03 4.80159526901795e-05
1.73700000000000e+01 2.72500081996632e-03 4.74865207228076e-05
1.74300000000000e+01 2.69029595720441e-03 4.69626461826044e-05
1.74900000000000e+01 2.65603308605237e-03 4.64442758803954e-05
1.75500000000000e+01 2.62220657742633e-03 4.59313570335498e-05
1.76100000000000e+01 2.58881087393289e-03 4.54238372651933e-05
1.76700000000000e+01 2.55584048895609e-03 4.49216646033450e-05
1.77300000000000e+01 2.52329000575600e-03 4.44247874800012e-05
1.77900000000000e+01 2.49115407657879e-03 4.39331547301531e-05
1.78500000000000e+01 2.45942742177818e-03 4.34467155907412e-05
1.79100000000000e+01 2.42810482894801e-03 4.29654196995627e-05
1.79700000000000e+01 2.39718115206588e-03 4.24892170941116e-05
1.80300000000000e+01 2.36665131064773e-03 4.20180582103756e-05
1.80900000000000e+01 2.33651028891316e-03 4.15518938815792e-05
1.81500000000000e+01 2.30675313496135e-03 4.10906753368732e-05
1.82100000000000e+01 2.27737495995756e-03 4.06343541999811e-05
1.82700000000000e+01 2.24837093732988e-03 4.01828824877992e-05
1.83300000000000e+01 2.21973630197631e-03 3.97362126089508e-05
1.83900000000000e+01 2.19146634948188e-03 3.92942973623029e-05
1.84500000000000e+01 2.16355643534576e-03 3.88570899354365e-05
1.85100000000000e+01 2.13600197421820e-03 3.84245439030807e-05
1.85700000000000e+01 2.10879843914721e-03 3.79966132255114e-05
1.86300000000000e+01 2.08194136083483e-03 3.75732522469081e-05
1.86900000000000e+01 2.05542632690283e-03 3.71544156936840e-05
1.87500000000000e+01 2.02924898116784e-03 3.67400586727787e-05
1.88100000000000e+01 2.00340502292563e-03 3.63301366699190e-05
1.88700000000000e+01 1.97789020624457e-03 3.59246055478517e-05
1.89300000000000e+01 1.95270033926806e-03 3.55234215445465e-05
