Energy (eV)          EEDF (eV^-(3/2))     First Anisotropy
4.50000000000000e-02 1.10329390156579e-01 9.69234778648876e-05
1.35000000000000e-01 1.08228392327995e-01 1.59059040264444e-04
2.25000000000000e-01 1.06167403710637e-01 2.07371680875514e-04
3.15000000000000e-01 1.04145662410821e-01 2.42528119842123e-04
4.05000000000000e-01 1.02162421043569e-01 2.70595824763465e-04
4.95000000000000e-01 1.00216946456321e-01 2.93912690912123e-04
5.85000000000000e-01 9.83085194579129e-02 3.13710390654740e-04
6.75000000000000e-01 9.64364345527037e-02 3.30745578496110e-04
7.65000000000000e-01 9.45999996797769e-02 3.45528480535666e-04
8.55000000000000e-01 9.27985359571019e-02 3.58425545029414e-04
9.45000000000000e-01 9.10313774305696e-02 3.69712261062097e-04
1.03500000000000e+00 8.92978708278061e-02 3.79603043665297e-04
1.12500000000000e+00 8.75973753166755e-02 3.88269377583642e-04
1.21500000000000e+00 8.59292622683804e-02 3.95851450863173e-04
1.30500000000000e+00 8.42929150250747e-02 4.02465947243912e-04
1.39500000000000e+00 8.26877286719010e-02 4.08211455985387e-04
1.48500000000000e+00 8.11131098133697e-02 4.13172341795731e-04
1.57500000000000e+00 7.95684763539957e-02 4.17421584546611e-04
1.66500000000000e+00 7.80532572831134e-02 4.21022909190313e-04
1.75500000000000e+00 7.65668924637886e-02 4.24032414069264e-04
1.84500000000000e+00 7.51088324257506e-02 4.26499836806725e-04
1.93500000000000e+00 7.36785381622676e-02 4.28469553187225e-04
2.02500000000000e+00 7.22754809308896e-02 4.29981375881801e-04
2.11500000000000e+00 7.08991420579865e-02 4.31071200791609e-04
2.20500000000000e+00 6.95490127470076e-02 4.31771535752194e-04
2.29500000000000e+00 6.82245938903933e-02 4.32111937266469e-04
2.38500000000000e+00 6.69253958850675e-02 4.32119374503756e-04
2.47500000000000e+00 6.56509384514445e-02 4.31818535171912e-04
2.56500000000000e+00 6.44007504558821e-02 4.31232084486805e-04
2.65500000000000e+00 6.31743697365158e-02 4.30380885958983e-04
2.74500000000000e+00 6.19713429324096e-02 4.29284190840376e-04
2.83500000000000e+00 6.07912253159603e-02 4.27959801651476e-04
2.92500000000000e+00 5.96335806284931e-02 4.26424214119939e-04
3.01500000000000e+00 5.84979809189888e-02 4.24692741018963e-04
3.10500000000000e+00 5.73840063858807e-02 4.22779620736474e-04
3.19500000000000e+00 5.62912452218652e-02 4.20698112888762e-04
3.28500000000000e+00 5.52192934616679e-02 4.18460582882089e-04
3.37500000000000e+00 5.41677548327072e-02 4.16078576997818e-04
3.46500000000000e+00 5.31362406086035e-02 4.13562889312895e-04
3.55500000000000e+00 5.21243694654770e-02 4.10923621554092e-04
3.64500000000000e+00 5.11317673409820e-02 4.08170236810250e-04
3.73500000000000e+00 5.01580672960258e-02 4.05311607884172e-04
3.82500000000000e+00 4.92029093791213e-02 4.02356060948450e-04
3.91500000000000e+00 4.82659404933221e-02 3.99311415071877e-04
4.00500000000000e+00 4.73468142656916e-02 3.96185018102278e-04
4.09500000000000e+00 4.64451909192581e-02 3.92983779323723e-04
4.18500000000000e+00 4.55607371474083e-02 3.89714199249099e-04
4.27500000000000e+00 4.46931259906723e-02 3.86382396861010e-04
4.36500000000000e+00 4.38420367158553e-02 3.82994134573206e-04
4.45500000000000e+00 4.30071546974709e-02 3.79554841150139e-04
4.54500000000000e+00 4.21881713014325e-02 3.76069632792713e-04
4.63500000000000e+00 4.13847837709589e-02 3.72543332572864e-04
4.72500000000000e+00 4.05966951146534e-02 3.68980488377913e-04
4.81500000000000e+00 3.98236139967135e-02 3.65385389506854e-04
4.90500000000000e+00 3.90652546292321e-02 3.61762082044392e-04
4.99500000000000e+00 3.83213366665487e-02 3.58114383124611e-04
5.08500000000000e+00 3.75915851016133e-02 3.54445894183664e-04
5.17500000000000e+00 3.68757301643232e-02 3.50760013290317e-04
5.26500000000000e+00 3.61735072217962e-02 3.47059946633777e-04
5.35500000000000e+00 3.54846566805428e-02 3.43348719239954e-04
5.44500000000000e+00 3.48089238905009e-02 3.39629184980084e-04
5.53500000000000e+00 3.41460590508987e-02 3.35904035929264e-04
5.62500000000000e+00 3.34958171179100e-02 3.32175811126860e-04
5.71500000000000e+00 3.28579577140671e-02 3.28446904785653e-04
5.80500000000000e+00 3.22322450394007e-02 3.24719573992205e-04
5.89500000000000e+00 3.16184477842695e-02 3.20995945936964e-04
5.98500000000000e+00 3.10163390438523e-02 3.17278024709142e-04
6.07500000000000e+00 3.04256962342664e-02 3.13567697688209e-04
6.16500000000000e+00 2.98463010102844e-02 3.09866741561069e-04
6.25500000000000e+00 2.92779391846177e-02 3.06176827991406e-04
6.34500000000000e+00 2.87204006487370e-02 3.02499528965469e-04
6.43500000000000e+00 2.81734792952007e-02 2.98836321836545e-04
6.52500000000000e+00 2.76369729414624e-02 2.95188594088461e-04
6.61500000000000e+00 2.71106832551291e-02 2.91557647836823e-04
6.70500000000000e+00 2.65944156806431e-02 2.87944704085267e-04
6.79500000000000e+00 2.60879793673599e-02 2.84350906752519e-04
6.88500000000000e+00 2.55911870989954e-02 2.80777326484884e-04
6.97500000000000e+00 2.51038552244173e-02 2.77224964267720e-04
7.06500000000000e+00 2.46258035897539e-02 2.73694754848294e-04
7.15500000000000e+00 2.41568554717959e-02 2.70187569981636e-04
7.24500000000000e+00 2.36968375126664e-02 2.66704221510087e-04
7.33500000000000e+00 2.32455796557351e-02 2.63245464286427e-04
7.42500000000000e+00 2.28029150827529e-02 2.59811998949827e-04
7.51500000000000e+00 2.23686801521834e-02 2.56404474563220e-04
7.60500000000000e+00 2.19427143387089e-02 2.53023491120010e-04
7.69500000000000e+00 2.15248601738885e-02 2.49669601927583e-04
7.78500000000000e+00 2.11149631879458e-02 2.46343315874535e-04
7.87500000000000e+00 2.07128718526661e-02 2.43045099588095e-04
7.96500000000000e+00 2.03184375253796e-02 2.39775379487746e-04
8.05500000000000e+00 1.99315143940126e-02 2.36534543740713e-04
8.14500000000000e+00 1.95519594231846e-02 2.33322944124604e-04
8.23500000000000e+00 1.91796323013314e-02 2.30140897802115e-04
8.32500000000000e+00 1.88143953888361e-02 2.26988689012492e-04
8.41500000000000e+00 1.84561136671470e-02 2.23866570684028e-04
8.50500000000000e+00 1.81046546888650e-02 2.20774765971721e-04
8.59500000000000e+00 1.77598885287810e-02 2.17713469723937e-04
8.68500000000000e+00 1.74216877358460e-02 2.14682849881639e-04
8.77500000000000e+00 1.70899272860559e-02 2.11683048813605e-04
8.86500000000000e+00 1.67644845362335e-02 2.08714184590822e-04
8.95500000000000e+00 1.64452391786902e-02 2.05776352203064e-04
9.04500000000000e+00 1.61320731967514e-02 2.02869624720483e-04
9.13500000000000e+00 1.58248708211292e-02 1.99994054402902e-04
9.22500000000000e+00 1.55235184871252e-02 1.97149673759295e-04
9.31500000000000e+00 1.52279047926485e-02 1.94336496559909e-04
9.40500000000000e+00 1.49379204570336e-02 1.91554518803218e-04
9.49500000000000e+00 1.46534582806421e-02 1.88803719639862e-04
9.58500000000000e+00 1.43744131052334e-02 1.86084062255584e-04
9.67500000000000e+00 1.41006817750909e-02 1.83395494715086e-04
9.76500000000000e+00 1.38321630988880e-02 1.80737950768606e-04
9.85500000000000e+00 1.35687578122800e-02 1.78111350622901e-04
9.94500000000000e+00 1.33103685412089e-02 1.75515601678303e-04
1.00350000000000e+01 1.30568997659066e-02 1.72950599233371e-04
1.01250000000000e+01 1.28082577855842e-02 1.70416227158575e-04
1.02150000000000e+01 1.25643506837924e-02 1.67912358540437e-04
1.03050000000000e+01 1.23250882944432e-02 1.65438856297441e-04
1.03950000000000e+01 1.20903821684774e-02 1.62995573768933e-04
1.04850000000000e+01 1.18601455411675e-02 1.60582355278243e-04
1.05750000000000e+01 1.16342933000430e-02 1.58199036671128e-04
1.06650000000000e+01 1.14127419534263e-02 1.55845445830642e-04
1.07550000000000e+01 1.11954095995686e-02 1.53521403169438e-04
1.08450000000000e+01 1.09822158963722e-02 1.51226722100480e-04
1.09350000000000e+01 1.07730820316907e-02 1.48961209487104e-04
1.10250000000000e+01 1.05679306941940e-02 1.46724666073326e-04
1.11150000000000e+01 1.03666860447883e-02 1.44516886895198e-04
1.12050000000000e+01 1.01692736885804e-02 1.42337661674071e-04
1.12950000000000e+01 9.97562064737594e-03 1.40186775192498e-04
1.13850000000000e+01 9.78565533270101e-03 1.38064007653510e-04
1.14750000000000e+01 9.59930751933805e-03 1.35969135024003e-04
1.15650000000000e+01 9.41650831936526e-03 1.33901929362859e-04
1.16550000000000e+01 9.23719015669056e-03 1.31862159134460e-04
1.17450000000000e+01 9.06128674207049e-03 1.29849589508196e-04
1.18350000000000e+01 8.88873304860481e-03 1.27863982644568e-04
1.19250000000000e+01 8.71946528769774e-03 1.25905097968429e-04
1.20150000000000e+01 8.55342088547699e-03 1.23972692429888e-04
1.21050000000000e+01 8.39053845966179e-03 1.22066520753402e-04
1.21950000000000e+01 8.23075779687156e-03 1.20186335675535e-04
1.22850000000000e+01 8.07401983036648e-03 1.18331888171854e-04
1.23750000000000e+01 7.92026661821214e-03 1.16502927673389e-04
1.24650000000000e+01 7.76944132185991e-03 1.14699202273136e-04
1.25550000000000e+01 7.62148818513515e-03 1.12920458922940e-04
1.26450000000000e+01 7.47635251362571e-03 1.11166443621203e-04
1.27350000000000e+01 7.33398065446272e-03 1.09436901591778e-04
1.28250000000000e+01 7.19431997648663e-03 1.07731577454394e-04
1.29150000000000e+01 7.05731885079078e-03 1.06050215386973e-04
1.30050000000000e+01 6.92292663163553e-03 1.04392559280169e-04
1.30950000000000e+01 6.79109363772592e-03 1.02758352884431e-04
1.31850000000000e+01 6.66177113384574e-03 1.01147339949911e-04
1.32750000000000e+01 6.53491131284139e-03 9.95592643594903e-05
1.33650000000000e+01 6.41046727794886e-03 9.79938702552176e-05
1.34550000000000e+01 6.28839302545719e-03 9.64509021584203e-05
1.35450000000000e+01 6.16864342770210e-03 9.49301050837484e-05
1.36350000000000e+01 6.05117421638349e-03 9.34312246473910e-05
1.37250000000000e+01 5.93594196620059e-03 9.19540071697039e-05
1.38150000000000e+01 5.82290407879876e-03 9.04981997724896e-05
1.39050000000000e+01 5.71201876702200e-03 8.90635504711216e-05
1.39950000000000e+01 5.60324503946532e-03 8.76498082617445e-05
1.40850000000000e+01 5.49654268532128e-03 8.62567232037435e-05
1.41750000000000e+01 5.39187225951515e-03 8.48840464976688e-05
1.42650000000000e+01 5.28919506812302e-03 8.35315305588090e-05
1.43550000000000e+01 5.18847315406774e-03 8.21989290865882e-05
1.44450000000000e+01 5.08966928308711e-03 8.08859971299611e-05
1.45350000000000e+01 4.99274692996943e-03 7.95924911489676e-05
1.46250000000000e+01 4.89767026505099e-03 7.83181690725998e-05
1.47150000000000e+01 4.80440414097085e-03 7.70627903531401e-05
1.48050000000000e+01 4.71291407967775e-03 7.58261160171170e-05
1.48950000000000e+01 4.62316625968447e-03 7.46079087130115e-05
1.49850000000000e+01 4.53512750356491e-03 7.34079327558566e-05
1.50750000000000e+01 4.44876526568928e-03 7.22259541688452e-05
1.51650000000000e+01 4.36404762019281e-03 7.10617407220947e-05
1.52550000000000e+01 4.28094324917360e-03 6.99150619686685e-05
1.53450000000000e+01 4.19942143111521e-03 6.87856892779636e-05
1.54350000000000e+01 4.11945202952972e-03 6.76733958666060e-05
1.55250000000000e+01 4.04100548181704e-03 6.65779568269253e-05
1.56150000000000e+01 3.96405278833640e-03 6.54991491531287e-05
1.57050000000000e+01 3.88856550168597e-03 6.44367517652723e-05
1.57950000000000e+01 3.81451571618653e-03 6.33905455311168e-05
1.58850000000000e+01 3.74187605756553e-03 6.23603132859662e-05
1.59750000000000e+01 3.67061967283752e-03 6.13458398505712e-05
1.60650000000000e+01 3.60072022037727e-03 6.03469120471829e-05
1.61550000000000e+01 3.53215186018202e-03 5.93633187138421e-05
1.62450000000000e+01 3.46488924431905e-03 5.83948507169728e-05
1.63350000000000e+01 3.39890750755523e-03 5.74413009623633e-05
1.64250000000000e+01 3.33418225816500e-03 5.65024644046015e-05
1.65150000000000e+01 3.27068956891337e-03 5.55781380550290e-05
1.66050000000000e+01 3.20840596821069e-03 5.46681209883012e-05
1.66950000000000e+01 3.14730843143573e-03 5.37722143475936e-05
1.67850000000000e+01 3.08737437242417e-03 5.28902213485190e-05
1.68750000000000e+01 3.02858163511903e-03 5.20219472818313e-05
1.69650000000000e+01 2.97090848538017e-03 5.11671995149581e-05
1.70550000000000e+01 2.91433360294976e-03 5.03257874924199e-05
1.71450000000000e+01 2.85883607357071e-03 4.94975227351897e-05
1.72350000000000e+01 2.80439538125521e-03 4.86822188390402e-05
1.73250000000000e+01 2.75099140070056e-03 4.78796914719350e-05
1.74150000000000e+01 2.69860438984930e-03 4.70897583705044e-05
1.75050000000000e+01 2.64721498259114e-03 4.63122393356501e-05
1.75950000000000e+01 2.59680418160380e-03 4.55469562273249e-05
1.76850000000000e+01 2.54735335133016e-03 4.47937329585276e-05
1.77750000000000e+01 2.49884421108925e-03 4.40523954885546e-05
1.78650000000000e+01 2.45125882831830e-03 4.33227718155442e-05
1.79550000000000e+01 2.40457961194356e-03 4.26046919683522e-05
1.80450000000000e+01 2.35878930587734e-03 4.18979879977930e-05
1.81350000000000e+01 2.31387098263891e-03 4.12024939672812e-05
1.82250000000000e+01 2.26980803709679e-03 4.05180459429091e-05
1.83150000000000e+01 2.22658418033032e-03 3.98444819829832e-05
1.84050000000000e+01 2.18418343360807e-03 3.91816421270605e-05
1.84950000000000e+01 2.14259012248088e-03 3.85293683845074e-05
1.85850000000000e+01 2.10178887098746e-03 3.78875047226081e-05
1.86750000000000e+01 2.06176459597031e-03 3.72558970542543e-05
1.87650000000000e+01 2.02250250149981e-03 3.66343932252373e-05
1.88550000000000e+01 1.98398807340462e-03 3.60228430011717e-05
1.89450000000000e+01 1.94620707390614e-03 3.54210980540683e-05
1.90350000000000e+01 1.90914553635515e-03 3.48290119485859e-05
1.91250000000000e+01 1.87278976006876e-03 3.42464401279791e-05
1.92150000000000e+01 1.83712630526557e-03 3.36732398997627e-05
1.93050000000000e+01 1.80214198809738e-03 3.31092704211170e-05
1.93950000000000e+01 1.76782387577543e-03 3.25543926840517e-05
1.94850000000000e+01 1.73415928178950e-03 3.20084695003442e-05
1.95750000000000e+01 1.70113576121806e-03 3.14713654862718e-05
1.96650000000000e+01 1.66874110612764e-03 3.09429470471563e-05
1.97550000000000e+01 1.63696334105997e-03 3.04230823617356e-05
1.98450000000000e+01 1.60579071860489e-03 2.99116413663786e-05
1.99350000000000e+01 1.57521171505767e-03 2.94084957391579e-05
2.00250000000000e+01 1.54521502615899e-03 2.89135188837955e-05
2.01150000000000e+01 1.51578956291607e-03 2.84265859134952e-05
2.02050000000000e+01 1.48692444750332e-03 2.79475736346720e-05
2.02950000000000e+01 1.45860900924113e-03 2.74763605305962e-05
2.03850000000000e+01 1.43083278065118e-03 2.70128267449606e-05
2.04750000000000e+01 1.40358549358688e-03 2.65568540653827e-05
2.05650000000000e+01 1.37685707543753e-03 2.61083259068544e-05
2.06550000000000e+01 1.35063764540470e-03 2.56671272951490e-05
2.07450000000000e+01 1.32491751084961e-03 2.52331448501940e-05
2.08350000000000e+01 1.29968716370994e-03 2.48062667694220e-05
2.09250000000000e+01 1.27493727698505e-03 2.43863828111086e-05
2.10150000000000e+01 1.25065870128791e-03 2.39733842777028e-05
2.11050000000000e+01 1.22684246146291e-03 2.35671639991618e-05
2.11950000000000e+01 1.20347975326794e-03 2.31676163162971e-05
2.12850000000000e+01 1.18056194011968e-03 2.27746370641394e-05
2.13750000000000e+01 1.15808054990091e-03 2.23881235553282e-05
2.14650000000000e+01 1.13602727182857e-03 2.20079745635371e-05
2.15550000000000e+01 1.11439395338146e-03 2.16340903069364e-05
2.16450000000000e+01 1.09317259728653e-03 2.12663724317006e-05
2.17350000000000e+01 1.07235535856242e-03 2.09047239955696e-05
2.18250000000000e+01 1.05193454161944e-03 2.05490494514676e-05
2.19150000000000e+01 1.03190259741467e-03 2.01992546311814e-05
2.20050000000000e+01 1.01225212066130e-03 1.98552467291097e-05
2.20950000000000e+01 9.92975847091054e-04 1.95169342860836e-05
2.21850000000000e+01 9.74066650768830e-04 1.91842271732640e-05
2.22750000000000e+01 9.55517541458390e-04 1.88570365761205e-05
2.23650000000000e+01 9.37321662038264e-04 1.85352749784956e-05
2.24550000000000e+01 9.19472285966855e-04 1.82188561467592e-05
2.25450000000000e+01 9.01962814795803e-04 1.79076951140545e-05
2.26350000000000e+01 8.84786775730721e-04 1.76017081646401e-05
2.27250000000000e+01 8.67937819238363e-04 1.73008128183340e-05
2.28150000000000e+01 8.51409716699373e-04 1.70049278150571e-05
2.29050000000000e+01 8.35196358105725e-04 1.67139730994843e-05
2.29950000000000e+01 8.19291749802015e-04 1.64278698058019e-05
2.30850000000000e+01 8.03690012269759e-04 1.61465402425776e-05
2.31750000000000e+01 7.88385377953889e-04 1.58699078777404e-05
2.32650000000000e+01 7.73372189130643e-04 1.55978973236780e-05
2.33550000000000e+01 7.58644895816047e-04 1.53304343224503e-05
2.34450000000000e+01 7.44198053714233e-04 1.50674457311201e-05
2.35350000000000e+01 7.30026322204828e-04 1.48088595072076e-05
2.36250000000000e+01 7.16124462368658e-04 1.45546046942637e-05
2.37150000000000e+01 7.02487335051065e-04 1.43046114075683e-05
2.38050000000000e+01 6.89109898962090e-04 1.40588108199537e-05
2.38950000000000e+01 6.75987208812844e-04 1.38171351477536e-05
2.39850000000000e+01 6.63114413487358e-04 1.35795176368784e-05
2.40750000000000e+01 6.50486754249259e-04 1.33458925490199e-05
2.41650000000000e+01 6.38099562982584e-04 1.31161951479846e-05
2.42550000000000e+01 6.25948260466102e-04 1.28903616861558e-05
2.43450000000000e+01 6.14028354680496e-04 1.26683293910871e-05
2.44350000000000e+01 6.02335439147777e-04 1.24500364522268e-05
2.45250000000000e+01 5.90865191302329e-04 1.22354220077731e-05
2.46150000000000e+01 5.79613370892965e-04 1.20244261316611e-05
2.47050000000000e+01 5.68575818415421e-04 1.18169898206830e-05
2.47950000000000e+01 5.57748453574692e-04 1.16130549817398e-05
2.48850000000000e+01 5.47127273776656e-04 1.14125644192259e-05
2.49750000000000e+01 5.36708352648419e-04 1.12154618225457e-05
2.50650000000000e+01 5.26487838586836e-04 1.10216917537648e-05
2.51550000000000e+01 5.16461953334675e-04 1.08311996353915e-05
2.52450000000000e+01 5.06626990583895e-04 1.06439317382920e-05
2.53350000000000e+01 4.96979314605518e-04 1.04598351697388e-05
2.54250000000000e+01 4.87515358905598e-04 1.02788578615894e-05
2.55150000000000e+01 4.78231624906778e-04 1.01009485585989e-05
2.56050000000000e+01 4.69124680654961e-04 9.92605680686374e-06
2.56950000000000e+01 4.60191159550603e-04 9.75413294239540e-06
2.57850000000000e+01 4.51427759104170e-04 9.58512807982631e-06
2.58750000000000e+01 4.42831239715295e-04 9.41899410124573e-06
2.59650000000000e+01 4.34398423475181e-04 9.25568364516629e-06
2.60550000000000e+01 4.26126192991811e-04 9.09515009561825e-06
2.61450000000000e+01 4.18011490237529e-04 8.93734757137382e-06
2.62350000000000e+01 4.10051315418572e-04 8.78223091529996e-06
2.63250000000000e+01 4.02242725866116e-04 8.62975568383750e-06
2.64150000000000e+01 3.94582834948455e-04 8.47987813660814e-06
2.65050000000000e+01 3.87068811003886e-04 8.33255522614739e-06
2.65950000000000e+01 3.79697876293919e-04 8.18774458776285e-06
2.66850000000000e+01 3.72467305976416e-04 8.04540452951673e-06
2.67750000000000e+01 3.65374427098294e-04 7.90549402233321e-06
2.68650000000000e+01 3.58416617607396e-04 7.76797269022880e-06
2.69550000000000e+01 3.51591305383196e-04 7.63280080066356e-06
2.70450000000000e+01 3.44895967285946e-04 7.49993925501535e-06
2.71350000000000e+01 3.38328128223940e-04 7.36934957917419e-06
2.72250000000000e+01 3.31885360238537e-04 7.24099391425601e-06
2.73150000000000e+01 3.25565281606607e-04 7.11483500743505e-06
2.74050000000000e+01 3.19365555960073e-04 6.99083620289433e-06
2.74950000000000e+01 3.13283891422213e-04 6.86896143289292e-06
2.75850000000000e+01 3.07318039760415e-04 6.74917520894925e-06
2.76750000000000e+01 3.01465795555066e-04 6.63144261313962e-06
2.77650000000000e+01 2.95724995384261e-04 6.51572928951013e-06
2.78550000000000e+01 2.90093517024045e-04 6.40200143560155e-06
2.79450000000000e+01 2.84569278663886e-04 6.29022579408718e-06
2.80350000000000e+01 2.79150238137077e-04 6.18036964452089e-06
2.81250000000000e+01 2.73834392165805e-04 6.07240079519530e-06
2.82150000000000e+01 2.68619775620590e-04 5.96628757510924e-06
2.83050000000000e+01 2.63504460793828e-04 5.86199882604272e-06
2.83950000000000e+01 2.58486556687168e-04 5.75950389473920e-06
