Energy (eV)          EEDF (eV^-(3/2))     First Anisotropy
4.59090909090909e-02 2.23050122115068e-01 2.48846189270622e-04
1.37727272727273e-01 2.16134817899134e-01 4.05910494054883e-04
2.29545454545455e-01 2.09433911357540e-01 5.22749527379857e-04
3.21363636363636e-01 2.02940755493158e-01 6.03918842588236e-04
4.13181818181818e-01 1.96648909301630e-01 6.65594693603315e-04
5.05000000000000e-01 1.90552131507540e-01 7.14133453832597e-04
5.96818181818182e-01 1.84644374334986e-01 7.52943212051256e-04
6.88636363636364e-01 1.78919777509305e-01 7.84150900449838e-04
7.80454545454545e-01 1.73372662444046e-01 8.09210907598446e-04
8.72272727272727e-01 1.67997526614390e-01 8.29180559833723e-04
9.64090909090909e-01 1.62789038078397e-01 8.44862998817595e-04
1.05590909090909e+00 1.57742030209553e-01 8.56888673000669e-04
1.14772727272727e+00 1.52851496572240e-01 8.65765219430187e-04
1.23954545454545e+00 1.48112585937334e-01 8.71909714423766e-04
1.33136363636364e+00 1.43520597445660e-01 8.75670452863471e-04
1.42318181818182e+00 1.39070976054234e-01 8.77342207470476e-04
1.51500000000000e+00 1.34759307902596e-01 8.77177241676973e-04
1.60681818181818e+00 1.30581315974868e-01 8.75393455211547e-04
1.69863636363636e+00 1.26532855857345e-01 8.72180555274556e-04
1.79045454545455e+00 1.22609911627467e-01 8.67704817337132e-04
1.88227272727273e+00 1.18808591849862e-01 8.62112816230291e-04
1.97409090909091e+00 1.15125125778664e-01 8.55534402511366e-04
2.06590909090909e+00 1.11555859551863e-01 8.48085104933238e-04
2.15772727272727e+00 1.08097252589368e-01 8.39868086679040e-04
2.24954545454545e+00 1.04745874081287e-01 8.30975765309345e-04
2.34136363636364e+00 1.01498399570652e-01 8.21491158516850e-04
2.43318181818182e+00 9.83516076985263e-02 8.11489019522810e-04
2.52500000000000e+00 9.53023769640120e-02 8.01036799662272e-04
2.61681818181818e+00 9.23476826432331e-02 7.90195465680489e-04
2.70863636363636e+00 8.94845937889860e-02 7.79020205544478e-04
2.80045454545455e+00 8.67102703233830e-02 7.67561038505444e-04
2.89227272727273e+00 8.40219602113710e-02 7.55863343087376e-04
2.98409090909091e+00 8.14169967592218e-02 7.43968321544811e-04
3.07590909090909e+00 7.88927959398546e-02 7.31913407963301e-04
3.16772727272727e+00 7.64468538396843e-02 7.19732624898491e-04
3.25954545454545e+00 7.40767441749635e-02 7.07456902330387e-04
3.35136363636364e+00 7.17801158781508e-02 6.95114358605625e-04
3.44318181818182e+00 6.95546907866971e-02 6.82730553457190e-04
3.53500000000000e+00 6.73982613615322e-02 6.70328714613689e-04
3.62681818181818e+00 6.53086885047185e-02 6.57929938563388e-04
3.71863636363636e+00 6.32838994375699e-02 6.45553373360083e-04
3.81045454545455e+00 6.13218856445453e-02 6.33216383473692e-04
3.90227272727273e+00 5.94207008760640e-02 6.20934697417729e-04
3.99409090909091e+00 5.75784592327018e-02 6.08722543456342e-04
4.08590909090909e+00 5.57933332791751e-02 5.96592773023217e-04
4.17772727272727e+00 5.40635522368268e-02 5.84556971038152e-04
4.26954545454545e+00 5.23874002271320e-02 5.72625558433443e-04
4.36136363636364e+00 5.07632145659115e-02 5.60807884197611e-04
4.45318181818182e+00 4.91893841253399e-02 5.49112311096006e-04
4.54500000000000e+00 4.76643477240905e-02 5.37546294307877e-04
4.63681818181818e+00 4.61865925827082e-02 5.26116451927547e-04
4.72863636363636e+00 4.47546528229976e-02 5.14828631040150e-04
4.82045454545455e+00 4.33671080139334e-02 5.03687968414973e-04
4.91227272727273e+00 4.20225817599492e-02 4.92698945438114e-04
5.00409090909091e+00 4.07197403438923e-02 4.81865439920795e-04
5.09590909090909e+00 3.94572913954935e-02 4.71190773964203e-04
5.18772727272727e+00 3.82339826123023e-02 4.60677756867549e-04
5.27954545454545e+00 3.70486005174741e-02 4.50328725995897e-04
5.37136363636364e+00 3.58999692539298e-02 4.40145583541962e-04
5.46318181818182e+00 3.47869494244327e-02 4.30129831507797e-04
5.55500000000000e+00 3.37084369546785e-02 4.20282604151441e-04
5.64681818181818e+00 3.26633620003798e-02 4.10604696993754e-04
5.73863636363636e+00 3.16506878860251e-02 4.01096594541255e-04
5.83045454545455e+00 3.06694100765380e-02 3.91758495943468e-04
5.92227272727273e+00 2.97185551792375e-02 3.82590338182126e-04
6.01409090909091e+00 2.87971799831190e-02 3.73591818351727e-04
6.10590909090909e+00 2.79043705182376e-02 3.64762414386128e-04
6.19772727272727e+00 2.70392411507877e-02 3.56101403474514e-04
6.28954545454545e+00 2.62009337045996e-02 3.47607879951082e-04
6.38136363636364e+00 2.53886166086038e-02 3.39280771244763e-04
6.47318181818182e+00 2.46014840757939e-02 3.31118853322573e-04
6.56500000000000e+00 2.38387552999590e-02 3.23120765073695e-04
6.65681818181818e+00 2.30996736825073e-02 3.15285020990953e-04
6.74863636363636e+00 2.23835060819506e-02 3.07610023495621e-04
6.84045454545454e+00 2.16895420866566e-02 3.00094074355659e-04
6.93227272727273e+00 2.10170933091950e-02 2.92735384892385e-04
7.02409090909091e+00 2.03654927064080e-02 2.85532085957531e-04
7.11590909090909e+00 1.97340939147237e-02 2.78482237227095e-04
7.20772727272727e+00 1.91222706100137e-02 2.71583835288467e-04
7.29954545454545e+00 1.85294158863087e-02 2.64834821659840e-04
7.39136363636364e+00 1.79549416530052e-02 2.58233089793224e-04
7.48318181818182e+00 1.73982780538478e-02 2.51776491980069e-04
7.57500000000000e+00 1.68588728992435e-02 2.45462845777292e-04
7.66681818181818e+00 1.63361911193343e-02 2.39289939513658e-04
7.75863636363636e+00 1.58297142332289e-02 2.33255537743891e-04
7.85045454545454e+00 1.53389398346899e-02 2.27357386275781e-04
7.94227272727273e+00 1.48633810931778e-02 2.21593216554954e-04
8.03409090909091e+00 1.44025662727377e-02 2.15960750043550e-04
8.12590909090909e+00 1.39560382622026e-02 2.10457702282500e-04
8.21772727272727e+00 1.35233541223887e-02 2.05081786281615e-04
8.30954545454545e+00 1.31040846467196e-02 1.99830715980378e-04
8.40136363636364e+00 1.26978139349930e-02 1.94702209143738e-04
8.49318181818182e+00 1.23041389822819e-02 1.89693990294062e-04
8.58500000000000e+00 1.19226692776723e-02 1.84803793418882e-04
8.67681818181818e+00 1.15530264174022e-02 1.80029364156182e-04
8.76863636363636e+00 1.11948437294999e-02 1.75368462026042e-04
8.86045454545454e+00 1.08477659100594e-02 1.70818862455088e-04
8.95227272727273e+00 1.05114486704239e-02 1.66378358444936e-04
9.04409090909091e+00 1.01855583967951e-02 1.62044762303493e-04
9.13590909090909e+00 9.86977181814081e-03 1.57815907228250e-04
9.22772727272727e+00 9.56377568591771e-03 1.53689648500638e-04
9.31954545454545e+00 9.26726646334267e-03 1.49663864782326e-04
9.41136363636364e+00 8.97995002399518e-03 1.45736459086290e-04
9.50318181818182e+00 8.70154136097477e-03 1.41905359820735e-04
9.59500000000000e+00 8.43176430324144e-03 1.38168521729112e-04
9.68681818181818e+00 8.17035124198652e-03 1.34523926524189e-04
9.77863636363636e+00 7.91704286517507e-03 1.30969583593460e-04
9.87045454545454e+00 7.67158790031826e-03 1.27503530604308e-04
9.96227272727273e+00 7.43374286498642e-03 1.24123833849878e-04
1.00540909090909e+01 7.20327182644860e-03 1.20828588957578e-04
1.01459090909091e+01 6.97994616509783e-03 1.17615921068440e-04
1.02377272727273e+01 6.76354435022786e-03 1.14483984894791e-04
1.03295454545455e+01 6.55385171933329e-03 1.11430965039669e-04
1.04213636363636e+01 6.35066026707888e-03 1.08455076791885e-04
1.05131818181818e+01 6.15376843309732e-03 1.05554565724082e-04
1.06050000000000e+01 5.96298090805519e-03 1.02727707209973e-04
1.06968181818182e+01 5.77810843786184e-03 9.99728072694865e-05
1.07886363636364e+01 5.59896763593887e-03 9.72882022620964e-05
1.08804545454545e+01 5.42538080130937e-03 9.46722586248571e-05
1.09722727272727e+01 5.25717574382795e-03 9.21233733887152e-05
1.10640909090909e+01 5.09418560875655e-03 8.96399736345166e-05
1.11559090909091e+01 4.93624871597654e-03 8.72205158929272e-05
1.12477272727273e+01 4.78320839799266e-03 8.48634866248124e-05
1.13395454545455e+01 4.63491284453114e-03 8.25674016136250e-05
1.14313636363636e+01 4.49121495317858e-03 8.03308062440241e-05
1.15231818181818e+01 4.35197217968050e-03 7.81522748996043e-05
1.16150000000000e+01 4.21704640041199e-03 7.60304103197824e-05
1.17068181818182e+01 4.08630377404302e-03 7.39638438662738e-05
1.17986363636364e+01 3.95961460877425e-03 7.19512350246865e-05
1.18904545454545e+01 3.83685323368877e-03 6.99912709478599e-05
1.19822727272727e+01 3.71789787506401e-03 6.80826665371601e-05
1.20740909090909e+01 3.60263053258821e-03 6.62241638174813e-05
1.21659090909091e+01 3.49093686536624e-03 6.44145312846077e-05
1.22577272727273e+01 3.38270607745287e-03 6.26525639934606e-05
1.23495454545455e+01 3.27783080795110e-03 6.09370829195819e-05
1.24413636363636e+01 3.17620702531264e-03 5.92669349299311e-05
1.25331818181818e+01 3.07773392168673e-03 5.76409921654614e-05
1.26250000000000e+01 2.98231381543493e-03 5.60581514041978e-05
1.27168181818182e+01 2.88985205337691e-03 5.45173340486428e-05
1.28086363636364e+01 2.80025691689884e-03 5.30174856023973e-05
1.29004545454545e+01 2.71343953097268e-03 5.15575751820595e-05
1.29922727272727e+01 2.62931377662967e-03 5.01365954012812e-05
1.30840909090909e+01 2.54779620358548e-03 4.87535617819440e-05
1.31759090909091e+01 2.46880594945353e-03 4.74075121528353e-05
1.32677272727273e+01 2.39226465885172e-03 4.60975065574206e-05
1.33595454545455e+01 2.31809640567908e-03 4.48226266738528e-05
1.34513636363636e+01 2.24622761832218e-03 4.35819756546554e-05
1.35431818181818e+01 2.17658700506916e-03 4.23746775718101e-05
1.36350000000000e+01 2.10910548503349e-03 4.11998768536268e-05
1.37268181818182e+01 2.04371611906772e-03 4.00567381510337e-05
1.38186363636364e+01 1.98035404336284e-03 3.89444458612408e-05
1.39104545454545e+01 1.91895640510620e-03 3.78622036797496e-05
1.40022727272727e+01 1.85946230055000e-03 3.68092344101169e-05
1.40940909090909e+01 1.80181271331931e-03 3.57847794558265e-05
1.41859090909091e+01 1.74595045717694e-03 3.47880983075684e-05
1.42777272727273e+01 1.69182011885048e-03 3.38184683810435e-05
1.43695454545455e+01 1.63936800306581e-03 3.28751845261590e-05
1.44613636363636e+01 1.58854207962689e-03 3.19575588257878e-05
1.45531818181818e+01 1.53929193074789e-03 3.10649201288351e-05
1.46450000000000e+01 1.49156870212058e-03 3.01966135808966e-05
1.47368181818182e+01 1.44532505408412e-03 2.93520004508468e-05
1.48286363636364e+01 1.40051511466620e-03 2.85304577267670e-05
1.49204545454545e+01 1.35709443408004e-03 2.77313777339802e-05
1.50122727272727e+01 1.31501994090622e-03 2.69541679318366e-05
1.51040909090909e+01 1.27424989852498e-03 2.61982504960783e-05
1.51959090909091e+01 1.23474386457672e-03 2.54630619005793e-05
1.52877272727273e+01 1.19646265055044e-03 2.47480527408820e-05
1.53795454545455e+01 1.15936828291104e-03 2.40526873356440e-05
1.54713636363636e+01 1.12342396565810e-03 2.33764435282102e-05
1.55631818181818e+01 1.08859404312786e-03 2.27188123087380e-05
1.56550000000000e+01 1.05484396533767e-03 2.20792974367370e-05
1.57468181818182e+01 1.02214025347030e-03 2.14574152679103e-05
1.58386363636364e+01 9.90450466664296e-04 2.08526944252449e-05
1.59304545454545e+01 9.59743169834108e-04 2.02646754870200e-05
1.60222727272727e+01 9.29987902669386e-04 1.96929107989313e-05
1.61140909090909e+01 9.01155148861468e-04 1.91369641411848e-05
1.62059090909091e+01 8.73216307394985e-04 1.85964103967966e-05
1.62977272727273e+01 8.46143663981890e-04 1.80708353869726e-05
1.63895454545455e+01 8.19910363570449e-04 1.75598355559860e-05
1.64813636363636e+01 7.94490383856743e-04 1.70630177945855e-05
1.65731818181818e+01 7.69858509008478e-04 1.65799991418894e-05
1.66650000000000e+01 7.45990305125326e-04 1.61104064889145e-05
1.67568181818182e+01 7.22862095839865e-04 1.56538764233805e-05
1.68486363636364e+01 7.00450938831626e-04 1.52100549690763e-05
1.69404545454545e+01 6.78734603069269e-04 1.47785973380056e-05
1.70322727272727e+01 6.57691546879139e-04 1.43591677688184e-05
1.71240909090909e+01 6.37300896205605e-04 1.39514392669127e-05
1.72159090909091e+01 6.17542424284281e-04 1.35550933464403e-05
1.73077272727273e+01 5.98396531448282e-04 1.31698198879425e-05
1.73995454545455e+01 5.79844225686428e-04 1.27953168937660e-05
1.74913636363636e+01 5.61867103904289e-04 1.24312903395063e-05
1.75831818181818e+01 5.44447333360538e-04 1.20774539429869e-05
1.76750000000000e+01 5.27567634292954e-04 1.17335289352547e-05
1.77668181818182e+01 5.11211262669946e-04 1.13992439294120e-05
1.78586363636364e+01 4.95361993581174e-04 1.10743347179180e-05
1.79504545454545e+01 4.80004105143109e-04 1.07585440794512e-05
1.80422727272727e+01 4.65122362984217e-04 1.04516216458263e-05
1.81340909090909e+01 4.50702004885334e-04 1.01533237021090e-05
1.82259090909091e+01 4.36728726389364e-04 9.86341298875558e-06
1.83177272727273e+01 4.23188666525355e-04 9.58165858388893e-06
1.84095454545455e+01 4.10068394059139e-04 9.30783571601091e-06
1.85013636363636e+01 3.97354894237186e-04 9.04172564336716e-06
1.85931818181818e+01 3.85035555670259e-04 8.78311547724141e-06
1.86850000000000e+01 3.73098158034212e-04 8.53179800723201e-06
1.87768181818182e+01 3.61530859875976e-04 8.28757159437745e-06
1.88686363636364e+01 3.50322186867326e-04 8.05024001566070e-06
1.89604545454545e+01 3.39461020422814e-04 7.81961231561697e-06
1.90522727272727e+01 3.28936586724594e-04 7.59550269978474e-06
1.91440909090909e+01 3.18738445869350e-04 7.37773038269208e-06
1.92359090909091e+01 3.08856481681864e-04 7.16611943771725e-06
1.93277272727273e+01 2.99280891622288e-04 6.96049870255950e-06
1.94195454545455e+01 2.90002177062519e-04 6.76070163728650e-06
1.95113636363636e+01 2.81011133908934e-04 6.56656622870230e-06
1.96031818181818e+01 2.72298843334029e-04 6.37793485652646e-06
1.96950000000000e+01 2.63856663070613e-04 6.19465416133940e-06
1.97868181818182e+01 2.55676218790798e-04 6.01657495963799e-06
1.98786363636364e+01 2.47749395799009e-04 5.84355212578827e-06
1.99704545454545e+01 2.40068330982531e-04 5.67544447922678e-06
2.00622727272727e+01 2.32625405047891e-04 5.51211470084523e-06
2.01540909090909e+01 2.25413234851442e-04 5.35342921838455e-06
2.02459090909091e+01 2.18424666189410e-04 5.19925809344481e-06
2.03377272727273e+01 2.11652766662343e-04 5.04947494713090e-06
2.04295454545455e+01 2.05090818798513e-04 4.90395685331988e-06
2.05213636363636e+01 1.98732313420708e-04 4.76258426415332e-06
2.06131818181818e+01 1.92570943096426e-04 4.62524090948265e-06
2.07050000000000e+01 1.86600595976158e-04 4.49181369780352e-06
2.07968181818182e+01 1.80815349698253e-04 4.36219264993695e-06
2.08886363636364e+01 1.75209465514181e-04 4.23627081014124e-06
2.09804545454545e+01 1.69777382595920e-04 4.11394416108468e-06
2.10722727272727e+01 1.64513712544257e-04 3.99511155919058e-06
2.11640909090909e+01 1.59413233968736e-04 3.87967464882908e-06
2.12559090909091e+01 1.54470887384866e-04 3.76753777784378e-06
2.13477272727273e+01 1.49681770169155e-04 3.65860793994965e-06
2.14395454545455e+01 1.45041131695946e-04 3.55279469499487e-06
2.15313636363636e+01 1.40544368645373e-04 3.45001011166420e-06
2.16231818181818e+01 1.36187020374408e-04 3.35016869239341e-06
2.17150000000000e+01 1.31964764556097e-04 3.25318729949617e-06
2.18068181818182e+01 1.27873412870141e-04 3.15898510407702e-06
2.18986363636364e+01 1.23908906848247e-04 3.06748351953673e-06
2.19904545454545e+01 1.20067313848294e-04 2.97860613790827e-06
2.20822727272727e+01 1.16344823169782e-04 2.89227868042583e-06
2.21740909090909e+01 1.12737742223182e-04 2.80842893363800e-06
2.22659090909091e+01 1.09242492918728e-04 2.72698668659259e-06
2.23577272727273e+01 1.05855608099449e-04 2.64788368672893e-06
2.24495454545455e+01 1.02573728101910e-04 2.57105358061817e-06
2.25413636363636e+01 9.93935974373368e-05 2.49643187034645e-06
2.26331818181818e+01 9.63120615199844e-05 2.42395585773487e-06
2.27250000000000e+01 9.33260635811526e-05 2.35356458952310e-06
2.28168181818182e+01 9.04326416222390e-05 2.28519881842340e-06
2.29086363636364e+01 8.76289254765551e-05 2.21880095364417e-06
2.30004545454545e+01 8.49121339622349e-05 2.15431501348225e-06
2.30922727272727e+01 8.22795721345547e-05 2.09168658786739e-06
2.31840909090909e+01 7.97286285784484e-05 2.03086279101689e-06
2.32759090909091e+01 7.72567728530411e-05 1.97179221493326e-06
2.33677272727273e+01 7.48615529696201e-05 1.91442489593778e-06
2.34595454545455e+01 7.25405929593771e-05 1.85871227082143e-06
2.35513636363636e+01 7.02915905258624e-05 1.80460714390868e-06
2.36431818181818e+01 6.81123147325632e-05 1.75206364579643e-06
2.37350000000000e+01 6.60006038191627e-05 1.70103719284541e-06
2.38268181818182e+01 6.39543630471765e-05 1.65148445773470e-06
2.39186363636364e+01 6.19715626220553e-05 1.60336333281193e-06
2.40104545454545e+01 6.00502356797090e-05 1.55663289495188e-06
2.41022727272727e+01 5.81884763430038e-05 1.51125337737856e-06
2.41940909090909e+01 5.63844378080341e-05 1.46718613471488e-06
2.42859090909091e+01 5.46363305358449e-05 1.42439360868592e-06
2.43777272727273e+01 5.29424204691976e-05 1.38283930291302e-06
2.44695454545455e+01 5.13010273124647e-05 1.34248775058679e-06
2.45613636363636e+01 4.97105228711643e-05 1.30330448975906e-06
2.46531818181818e+01 4.81693294174396e-05 1.26525603293162e-06
2.47450000000000e+01 4.66759181448535e-05 1.22830983722524e-06
2.48368181818182e+01 4.52288076451054e-05 1.19243428226641e-06
2.49286363636364e+01 4.38265624385320e-05 1.15759864314109e-06
2.50204545454545e+01 4.24677915501687e-05 1.12377306444575e-06
2.51122727272727e+01 4.11511471350799e-05 1.09092853921426e-06
2.52040909090909e+01 3.98753231256239e-05 1.05903688320288e-06
2.52959090909091e+01 3.86390539519537e-05 1.02807070967610e-06
2.53877272727273e+01 3.74411132811377e-05 9.98003410537217e-07
2.54795454545455e+01 3.62803128006929e-05 9.68809132570284e-07
2.55713636363636e+01 3.51555010441190e-05 9.40462759005291e-07
2.56631818181818e+01 3.40655622355023e-05 9.12939887172959e-07
2.57550000000000e+01 3.30094151961837e-05 8.86216806602086e-07
2.58468181818182e+01 3.19860122676751e-05 8.60270482505236e-07
2.59386363636364e+01 3.09943382724240e-05 8.35078535883585e-07
2.60304545454545e+01 3.00334095067971e-05 8.10619224428734e-07
2.61222727272727e+01 2.91022727687673e-05 7.86871426840585e-07
2.62140909090909e+01 2.82000044016849e-05 7.63814623961146e-07
2.63059090909091e+01 2.73257093889690e-05 7.41428880288703e-07
2.63977272727273e+01 2.64785204625588e-05 7.19694829923213e-07
2.64895454545455e+01 2.56575972426223e-05 6.98593659152958e-07
2.65813636363636e+01 2.48621254068534e-05 6.78107092763004e-07
2.66731818181818e+01 2.40913158737257e-05 6.58217377660384e-07
2.67650000000000e+01 2.33444040289202e-05 6.38907266834188e-07
2.68568181818182e+01 2.26206489637309e-05 6.20160007080083e-07
2.69486363636364e+01 2.19193327401129e-05 6.01959324406135e-07
2.70404545454545e+01 2.12397596785157e-05 5.84289410016521e-07
2.71322727272727e+01 2.05812556701675e-05 5.67134908689938e-07
2.72240909090909e+01 1.99431675011080e-05 5.50480904972380e-07
2.73159090909091e+01 1.93248622116615e-05 5.34312909656609e-07
2.74077272727273e+01 1.87257264660284e-05 5.18616849358471e-07
2.74995454545455e+01 1.81451659438831e-05 5.03379053783945e-07
2.75913636363636e+01 1.75826047528213e-05 4.88586245599895e-07
2.76831818181818e+01 1.70374848509868e-05 4.74225528462348e-07
2.77750000000000e+01 1.65092654997587e-05 4.60284375296481e-07
2.78668181818182e+01 1.59974227252309e-05 4.46750619208220e-07
2.79586363636364e+01 1.55014487984499e-05 4.33612442804502e-07
2.80504545454545e+01 1.50208517317678e-05 4.20858367932007e-07
2.81422727272727e+01 1.45551547924262e-05 4.08477247095507e-07
2.82340909090909e+01 1.41038960246944e-05 3.96458253374910e-07
2.83259090909091e+01 1.36666277966966e-05 3.84790870557136e-07
2.84177272727273e+01 1.32429163546491e-05 3.73464885433565e-07
2.85095454545455e+01 1.28323413925948e-05 3.62470378508747e-07
2.86013636363636e+01 1.24344956368346e-05 3.51797716531618e-07
2.86931818181818e+01 1.20489844377585e-05 3.41437543760818e-07
2.87850000000000e+01 1.16754253826276e-05 3.31380773418140e-07
2.88768181818182e+01 1.13134479147835e-05 3.21618580982714e-07
2.89686363636364e+01 1.09626929660698e-05 3.12142396392415e-07
