Energy (eV)          EEDF (eV^-(3/2))     First Anisotropy
3.66176470588235e-02 5.79633904876143e-02 3.72101564017420e-05
1.09852941176471e-01 5.73777553136263e-02 6.13403551416091e-05
1.83088235294118e-01 5.67980371259562e-02 8.07006735948314e-05
2.56323529411765e-01 5.62241761416252e-02 9.52422387375979e-05
3.29558823529412e-01 5.56561131821517e-02 1.07232978790295e-04
4.02794117647059e-01 5.50937896654549e-02 1.17534510159752e-04
4.76029411764706e-01 5.45371476046931e-02 1.26594765791679e-04
5.49264705882353e-01 5.39861295969703e-02 1.34685448436476e-04
6.22500000000000e-01 5.34406788194060e-02 1.41987549268753e-04
6.95735294117647e-01 5.29007390232461e-02 1.48629545806147e-04
7.68970588235294e-01 5.23662545280651e-02 1.54706953281269e-04
8.42205882352941e-01 5.18371702160215e-02 1.60293329247819e-04
9.15441176470588e-01 5.13134315261627e-02 1.65446919874345e-04
9.88676470588235e-01 5.07949844482565e-02 1.70214899063479e-04
1.06191176470588e+00 5.02817755178482e-02 1.74636192565590e-04
1.13514705882353e+00 4.97737518140977e-02 1.78743429320336e-04
1.20838235294118e+00 4.92708609432692e-02 1.82564327919937e-04
1.28161764705882e+00 4.87730510500510e-02 1.86122709464792e-04
1.35485294117647e+00 4.82802707982320e-02 1.89439254167208e-04
1.42808823529412e+00 4.77924693670827e-02 1.92532073213540e-04
1.50132352941176e+00 4.73095964563954e-02 1.95417153941178e-04
1.57455882352941e+00 4.68316022674393e-02 1.98108707613291e-04
1.64779411764706e+00 4.63584375110392e-02 2.00619445705788e-04
1.72102941176471e+00 4.58900533926490e-02 2.02960803697894e-04
1.79426470588235e+00 4.54264016082577e-02 2.05143120136522e-04
1.86750000000000e+00 4.49674343471622e-02 2.07175786338933e-04
1.94073529411765e+00 4.45131042766616e-02 2.09067369138715e-04
2.01397058823529e+00 4.40633645471368e-02 2.10825713514361e-04
2.08720588235294e+00 4.36181687776411e-02 2.12458029043726e-04
2.16044117647059e+00 4.31774710603286e-02 2.13970962771106e-04
2.23367647058824e+00 4.27412259488549e-02 2.15370662619779e-04
2.30691176470588e+00 4.23093884542240e-02 2.16662829373353e-04
2.38014705882353e+00 4.18819140458218e-02 2.17852763780593e-04
2.45338235294118e+00 4.14587586392419e-02 2.18945406323049e-04
2.52661764705882e+00 4.10398785990706e-02 2.19945371766422e-04
2.59985294117647e+00 4.06252307289068e-02 2.20856980516814e-04
2.67308823529412e+00 4.02147722672992e-02 2.21684284062573e-04
2.74632352941176e+00 3.98084608879554e-02 2.22431089436845e-04
2.81955882352941e+00 3.94062546892027e-02 2.23100979933605e-04
2.89279411764706e+00 3.90081121956577e-02 2.23697333447348e-04
2.96602941176471e+00 3.86139923494712e-02 2.24223339824548e-04
3.03926470588235e+00 3.82238545063758e-02 2.24682014509454e-04
3.11250000000000e+00 3.78376584353466e-02 2.25076212588490e-04
3.18573529411765e+00 3.74553643093154e-02 2.25408640583429e-04
3.25897058823529e+00 3.70769327060574e-02 2.25681867198908e-04
3.33220588235294e+00 3.67023245992675e-02 2.25898333115858e-04
3.40544117647059e+00 3.63315013592615e-02 2.26060359639730e-04
3.47867647058824e+00 3.59644247454619e-02 2.26170157428565e-04
3.55191176470588e+00 3.56010569026530e-02 2.26229832815774e-04
3.62514705882353e+00 3.52413603601653e-02 2.26241395155332e-04
3.69838235294118e+00 3.48852980238923e-02 2.26206762802533e-04
3.77161764705882e+00 3.45328331764810e-02 2.26127768548542e-04
3.84485294117647e+00 3.41839294705408e-02 2.26006165390770e-04
3.91808823529412e+00 3.38385509250570e-02 2.25843630373072e-04
3.99132352941177e+00 3.34966619243292e-02 2.25641769548982e-04
4.06455882352941e+00 3.31582272107643e-02 2.25402121893036e-04
4.13779411764706e+00 3.28232118846912e-02 2.25126162876130e-04
4.21102941176471e+00 3.24915813981808e-02 2.24815308482775e-04
4.28426470588235e+00 3.21633015516104e-02 2.24470917604529e-04
4.35750000000000e+00 3.18383384924353e-02 2.24094295556498e-04
4.43073529411765e+00 3.15166587086358e-02 2.23686696738797e-04
4.50397058823529e+00 3.11982290282536e-02 2.23249327197794e-04
4.57720588235294e+00 3.08830166130450e-02 2.22783347064021e-04
4.65044117647059e+00 3.05709889579550e-02 2.22289872665214e-04
4.72367647058824e+00 3.02621138856266e-02 2.21769979126257e-04
4.79691176470588e+00 2.99563595431806e-02 2.21224701622586e-04
4.87014705882353e+00 2.96536944008511e-02 2.20655037702048e-04
4.94338235294118e+00 2.93540872461749e-02 2.20061948920553e-04
5.01661764705882e+00 2.90575071832775e-02 2.19446362346245e-04
5.08985294117647e+00 2.87639236278122e-02 2.18809172542550e-04
5.16308823529412e+00 2.84733063038902e-02 2.18151242355517e-04
5.23632352941176e+00 2.81856252426486e-02 2.17473404705997e-04
5.30955882352941e+00 2.79008507769066e-02 2.16776463781458e-04
5.38279411764706e+00 2.76189535403134e-02 2.16061196132025e-04
5.45602941176471e+00 2.73399044626680e-02 2.15328352226980e-04
5.52926470588235e+00 2.70636747669910e-02 2.14578656936696e-04
5.60250000000000e+00 2.67902359680547e-02 2.13812810952429e-04
5.67573529411765e+00 2.65195598674504e-02 2.13031491673846e-04
5.74897058823530e+00 2.62516185526362e-02 2.12235354113021e-04
5.82220588235294e+00 2.59863843921412e-02 2.11425031786998e-04
5.89544117647059e+00 2.57238300345950e-02 2.10601137443880e-04
5.96867647058824e+00 2.54639284045023e-02 2.09764264218621e-04
6.04191176470588e+00 2.52066526995059e-02 2.08914985845805e-04
6.11514705882353e+00 2.49519763889048e-02 2.08053857725542e-04
6.18838235294118e+00 2.46998732092102e-02 2.07181417527546e-04
6.26161764705882e+00 2.44503171631130e-02 2.06298185743455e-04
6.33485294117647e+00 2.42032825155484e-02 2.05404666641643e-04
6.40808823529412e+00 2.39587437910916e-02 2.04501348361751e-04
6.48132352941177e+00 2.37166757724758e-02 2.03588703801301e-04
6.55455882352941e+00 2.34770534964657e-02 2.02667191083071e-04
6.62779411764706e+00 2.32398522527812e-02 2.01737253980577e-04
6.70102941176471e+00 2.30050475804278e-02 2.00799322720069e-04
6.77426470588235e+00 2.27726152652161e-02 1.99853813994094e-04
6.84750000000000e+00 2.25425313382935e-02 1.98901131709875e-04
6.92073529411765e+00 2.23147720723022e-02 1.97941667355662e-04
6.99397058823529e+00 2.20893139802776e-02 1.96975800400426e-04
7.06720588235294e+00 2.18661338119054e-02 1.96003898703021e-04
7.14044117647059e+00 2.16452085524207e-02 1.95026318812323e-04
7.21367647058824e+00 2.14265154192647e-02 1.94043406611337e-04
7.28691176470588e+00 2.12100318597697e-02 1.93055497256233e-04
7.36014705882353e+00 2.09957355497267e-02 1.92062915780970e-04
7.43338235294118e+00 2.07836043898934e-02 1.91065977361845e-04
7.50661764705882e+00 2.05736165048844e-02 1.90064987554487e-04
7.57985294117647e+00 2.03657502400404e-02 1.89060242850900e-04
7.65308823529412e+00 2.01599841592255e-02 1.88052030586421e-04
7.72632352941176e+00 1.99562970434242e-02 1.87040629464791e-04
7.79955882352941e+00 1.97546678874777e-02 1.86026309770128e-04
7.87279411764706e+00 1.95550758989747e-02 1.85009333555223e-04
7.94602941176471e+00 1.93575004953164e-02 1.83989955128124e-04
8.01926470588235e+00 1.91619213016206e-02 1.82968420937792e-04
8.09250000000000e+00 1.89683181493519e-02 1.81944970033883e-04
8.16573529411765e+00 1.87766710732686e-02 1.80919834238038e-04
8.23897058823530e+00 1.85869603103201e-02 1.79893238347281e-04
8.31220588235294e+00 1.83991662966685e-02 1.78865400350103e-04
8.38544117647059e+00 1.82132696665963e-02 1.77836531563821e-04
8.45867647058824e+00 1.80292512498164e-02 1.76806837043597e-04
8.53191176470588e+00 1.78470920695190e-02 1.75776515449234e-04
8.60514705882353e+00 1.76667733410553e-02 1.74745759432995e-04
8.67838235294118e+00 1.74882764691466e-02 1.73714755767525e-04
8.75161764705882e+00 1.73115830468068e-02 1.72683685456402e-04
8.82485294117647e+00 1.71366748528150e-02 1.71652724097550e-04
8.89808823529412e+00 1.69635338498573e-02 1.70622041743840e-04
8.97132352941177e+00 1.67921421832503e-02 1.69591803248536e-04
9.04455882352941e+00 1.66224821783224e-02 1.68562168369885e-04
9.11779411764706e+00 1.64545363393563e-02 1.67533291860209e-04
9.19102941176471e+00 1.62882873472116e-02 1.66505323790825e-04
9.26426470588235e+00 1.61237180575577e-02 1.65478409409890e-04
9.33750000000000e+00 1.59608114996376e-02 1.64452689451610e-04
9.41073529411765e+00 1.57995508738092e-02 1.63428300222198e-04
9.48397058823529e+00 1.56399195505105e-02 1.62405373713303e-04
9.55720588235294e+00 1.54819010678581e-02 1.61384037727303e-04
9.63044117647059e+00 1.53254791306249e-02 1.60364415943062e-04
9.70367647058824e+00 1.51706376080546e-02 1.59346628196627e-04
9.77691176470588e+00 1.50173605322136e-02 1.58330790338273e-04
9.85014705882353e+00 1.48656320968152e-02 1.57317014500149e-04
9.92338235294118e+00 1.47154366549628e-02 1.56305409161579e-04
9.99661764705882e+00 1.45667587181531e-02 1.55296079239950e-04
1.00698529411765e+01 1.44195829540717e-02 1.54289126230255e-04
1.01430882352941e+01 1.42738941854661e-02 1.53284648177173e-04
1.02163235294118e+01 1.41296773884276e-02 1.52282739884276e-04
1.02895588235294e+01 1.39869176908419e-02 1.51283492960912e-04
1.03627941176471e+01 1.38456003708558e-02 1.50286995906825e-04
1.04360294117647e+01 1.37057108553586e-02 1.49293334194344e-04
1.05092647058824e+01 1.35672347184794e-02 1.48302590348244e-04
1.05825000000000e+01 1.34301576800997e-02 1.47314843685330e-04
1.06557352941176e+01 1.32944656056477e-02 1.46330171411875e-04
1.07289705882353e+01 1.31601445008057e-02 1.45348648012088e-04
1.08022058823529e+01 1.30271805139361e-02 1.44370344622353e-04
1.08754411764706e+01 1.28955599333520e-02 1.43395330151760e-04
1.09486764705882e+01 1.27652691859027e-02 1.42423670996430e-04
1.10219117647059e+01 1.26362948355743e-02 1.41455431105120e-04
1.10951470588235e+01 1.25086235821041e-02 1.40490672043066e-04
1.11683823529412e+01 1.23822422596090e-02 1.39529453054099e-04
1.12416176470588e+01 1.22571378352279e-02 1.38571831121247e-04
1.13148529411765e+01 1.21332974077768e-02 1.37617861025195e-04
1.13880882352941e+01 1.20107082064199e-02 1.36667595401546e-04
1.14613235294118e+01 1.18893575893522e-02 1.35721084796916e-04
1.15345588235294e+01 1.17692330424951e-02 1.34778377722992e-04
1.16077941176471e+01 1.16503221782069e-02 1.33839520709373e-04
1.16810294117647e+01 1.15326127340043e-02 1.32904558355004e-04
1.17542647058824e+01 1.14160925712989e-02 1.31973533378273e-04
1.18275000000000e+01 1.13007496741444e-02 1.31046486396703e-04
1.19007352941176e+01 1.11865721489528e-02 1.30123456787940e-04
1.19739705882353e+01 1.10735482203794e-02 1.29204482191022e-04
1.20472058823529e+01 1.09616662330216e-02 1.28289597996595e-04
1.21204411764706e+01 1.08509146492379e-02 1.27378838227457e-04
1.21936764705882e+01 1.07412820479572e-02 1.26472235300385e-04
1.22669117647059e+01 1.06327571235019e-02 1.25569820067858e-04
1.23401470588235e+01 1.05253286844215e-02 1.24671621858739e-04
1.24133823529412e+01 1.04189856523388e-02 1.23777668517949e-04
1.24866176470588e+01 1.03137170608073e-02 1.22887986445232e-04
1.25598529411765e+01 1.02095120541798e-02 1.22002600632582e-04
1.26330882352941e+01 1.01063598864901e-02 1.21121534700991e-04
1.27063235294118e+01 1.00042499203440e-02 1.20244810936514e-04
1.27795588235294e+01 9.90317162582272e-03 1.19372450325078e-04
1.28527941176471e+01 9.80311457939678e-03 1.18504472586537e-04
1.29260294117647e+01 9.70406846285117e-03 1.17640896207896e-04
1.29992647058824e+01 9.60602306222129e-03 1.16781738475708e-04
1.30725000000000e+01 9.50896826673968e-03 1.15927015292249e-04
1.31457352941176e+01 9.41289406852007e-03 1.15076741857440e-04
1.32189705882353e+01 9.31779055932670e-03 1.14230932262746e-04
1.32922058823529e+01 9.22364793176991e-03 1.13389599076323e-04
1.33654411764706e+01 9.13045647754934e-03 1.12552754041201e-04
1.34386764705882e+01 9.03820658645272e-03 1.11720407878305e-04
1.35119117647059e+01 8.94688874536489e-03 1.10892570313695e-04
1.35851470588235e+01 8.85649353728674e-03 1.10069250105167e-04
1.36583823529412e+01 8.76701164036413e-03 1.09250455068167e-04
1.37316176470588e+01 8.67843382692655e-03 1.08436192101205e-04
1.38048529411765e+01 8.59075096253528e-03 1.07626467210378e-04
1.38780882352941e+01 8.50395400504199e-03 1.06821285533477e-04
1.39513235294118e+01 8.41803400365599e-03 1.06020651363711e-04
1.40245588235294e+01 8.33298209802119e-03 1.05224568172566e-04
1.40977941176471e+01 8.24878951730242e-03 1.04433038632242e-04
1.41710294117647e+01 8.16544757928089e-03 1.03646064637521e-04
1.42442647058824e+01 8.08294768945891e-03 1.02863647327137e-04
1.43175000000000e+01 8.00128134017358e-03 1.02085786931416e-04
1.43907352941176e+01 7.92044011027791e-03 1.01312483316140e-04
1.44639705882353e+01 7.84041566258310e-03 1.00543735651771e-04
1.45372058823529e+01 7.76119974470222e-03 9.97795420756842e-05
1.46104411764706e+01 7.68278418762658e-03 9.90199002494408e-05
1.46836764705882e+01 7.60516090488337e-03 9.82648071964836e-05
1.47569117647059e+01 7.52832189170169e-03 9.75142593201935e-05
1.48301470588235e+01 7.45225922418712e-03 9.67682524215244e-05
1.49033823529412e+01 7.37696505850455e-03 9.60267817162283e-05
1.49766176470588e+01 7.30243163006934e-03 9.52898418517324e-05
1.50498529411765e+01 7.22865125274635e-03 9.45574269234123e-05
1.51230882352941e+01 7.15561631805777e-03 9.38295304906338e-05
1.51963235294118e+01 7.08331929439834e-03 9.31061455925483e-05
1.52695588235294e+01 7.01175272625856e-03 9.23872647633043e-05
1.53427941176471e+01 6.94090923345596e-03 9.16728800469805e-05
1.54160294117647e+01 6.87078151037397e-03 9.09629830121684e-05
1.54892647058824e+01 6.80136232520856e-03 9.02575647662054e-05
1.55625000000000e+01 6.73264451922246e-03 8.95566158292693e-05
1.56357352941176e+01 6.66462100643936e-03 8.88601265704916e-05
1.57089705882353e+01 6.59728477160532e-03 8.81680869382351e-05
1.57822058823529e+01 6.53062887078396e-03 8.74804861847520e-05
1.58554411764706e+01 6.46464643019720e-03 8.67973133132986e-05
1.59286764705882e+01 6.39933064551637e-03 8.61185569445808e-05
1.60019117647059e+01 6.33467478116060e-03 8.54442053288141e-05
1.60751470588235e+01 6.27067216960214e-03 8.47742463575039e-05
1.61483823529412e+01 6.20731621067886e-03 8.41086675749608e-05
1.62216176470588e+01 6.14460037091356e-03 8.34474561895815e-05
1.62948529411765e+01 6.08251818284012e-03 8.27905990847201e-05
1.63680882352941e+01 6.02106324433681e-03 8.21380828294163e-05
1.64413235294118e+01 5.96022921796597e-03 8.14898936889628e-05
1.65145588235294e+01 5.90000983032042e-03 8.08460176350704e-05
1.65877941176471e+01 5.84039887137660e-03 8.02064403558571e-05
1.66610294117647e+01 5.78139019385410e-03 7.95711472655994e-05
1.67342647058824e+01 5.72297771258176e-03 7.89401235142481e-05
1.68075000000000e+01 5.66515540387017e-03 7.83133538835178e-05
1.68807352941176e+01 5.60791730522739e-03 7.76908231380868e-05
1.69539705882353e+01 5.55125751372512e-03 7.70725158053606e-05
1.70272058823529e+01 5.49517018641722e-03 7.64584159506929e-05
1.71004411764706e+01 5.43964953939195e-03 7.58485075375944e-05
1.71736764705882e+01 5.38468984717552e-03 7.52427743178621e-05
1.72469117647059e+01 5.33028544214165e-03 7.46411998396478e-05
1.73201470588235e+01 5.27643071392712e-03 7.40437674553209e-05
1.73933823529412e+01 5.22312010885319e-03 7.34504603291594e-05
1.74666176470588e+01 5.17034812935291e-03 7.28612614448880e-05
1.75398529411765e+01 5.11810933340406e-03 7.22761536129252e-05
1.76130882352941e+01 5.06639833396819e-03 7.16951194775403e-05
1.76863235294118e+01 5.01520979843497e-03 7.11181415239109e-05
1.77595588235294e+01 4.96453844807229e-03 7.05452020849019e-05
1.78327941176471e+01 4.91437905748187e-03 6.99762833477204e-05
1.79060294117647e+01 4.86472645406043e-03 6.94113673604082e-05
1.79792647058824e+01 4.81557551746625e-03 6.88504360381820e-05
1.80525000000000e+01 4.76692117909116e-03 6.82934710777084e-05
1.81257352941176e+01 4.71875842180184e-03 6.77404542409120e-05
1.81989705882353e+01 4.67108227862412e-03 6.71913671748697e-05
1.82722058823529e+01 4.62388783303549e-03 6.66461912280268e-05
1.83454411764706e+01 4.57717021818770e-03 6.61049077414001e-05
1.84186764705882e+01 4.53092461640487e-03 6.55674979581546e-05
1.84919117647059e+01 4.48514625868665e-03 6.50339430289517e-05
1.85651470588235e+01 4.43983042421647e-03 6.45042240171647e-05
1.86383823529412e+01 4.39497243987467e-03 6.39783219039710e-05
1.87116176470588e+01 4.35056767975662e-03 6.34562175933421e-05
1.87848529411765e+01 4.30661156469559e-03 6.29378919168306e-05
1.88580882352941e+01 4.26309956179069e-03 6.24233256383002e-05
1.89313235294118e+01 4.22002718393935e-03 6.19124994585885e-05
1.90045588235294e+01 4.17738998937461e-03 6.14053940199752e-05
1.90777941176471e+01 4.13518358120703e-03 6.09019899105715e-05
1.91510294117647e+01 4.09340360697130e-03 6.04022676685899e-05
1.92242647058824e+01 4.05204575817739e-03 5.99062077865137e-05
1.92975000000000e+01 4.01110576986624e-03 5.94137906403527e-05
1.93707352941176e+01 3.97057942037779e-03 5.89249967196745e-05
1.94439705882353e+01 3.93046253028717e-03 5.84398064801032e-05
1.95172058823529e+01 3.89075096260718e-03 5.79582001928202e-05
1.95904411764706e+01 3.85144062214878e-03 5.74801581806535e-05
1.96636764705882e+01 3.81252745509884e-03 5.70056607436146e-05
1.97369117647059e+01 3.77400744860204e-03 5.65346881623874e-05
1.98101470588235e+01 3.73587663034710e-03 5.60672207017241e-05
1.98833823529412e+01 3.69813106815711e-03 5.56032386137542e-05
1.99566176470588e+01 3.66076686958404e-03 5.51427221412332e-05
2.00298529411765e+01 3.62378018150730e-03 5.46856515206415e-05
2.01030882352941e+01 3.58716718973647e-03 5.42320069852420e-05
2.01763235294118e+01 3.55092411861794e-03 5.37817687681090e-05
2.02495588235294e+01 3.51504723064556e-03 5.33349171050039e-05
2.03227941176471e+01 3.47953282607518e-03 5.28914322372010e-05
2.03960294117647e+01 3.44437724254314e-03 5.24512944142417e-05
2.04692647058824e+01 3.40957685468862e-03 5.20144838966083e-05
2.05425000000000e+01 3.37512807377972e-03 5.15809808973119e-05
2.06157352941176e+01 3.34102734750775e-03 5.11507657688058e-05
2.06889705882353e+01 3.30727115912408e-03 5.07238188820093e-05
2.07622058823529e+01 3.27385602757819e-03 5.03001205028864e-05
2.08354411764706e+01 3.24077850699048e-03 4.98796509843334e-05
2.09086764705882e+01 3.20803518629690e-03 4.94623907048000e-05
2.09819117647059e+01 3.17562268889722e-03 4.90483200704962e-05
2.10551470588235e+01 3.14353767230678e-03 4.86374195175408e-05
2.11283823529412e+01 3.11177682781186e-03 4.82296695140457e-05
2.12016176470588e+01 3.08033688012840e-03 4.78250505621572e-05
2.12748529411765e+01 3.04921458706427e-03 4.74235431999917e-05
2.13480882352941e+01 3.01840673918498e-03 4.70251280035492e-05
2.14213235294118e+01 2.98791015948265e-03 4.66297855886070e-05
2.14945588235294e+01 2.95772170304844e-03 4.62374966125029e-05
2.15677941176471e+01 2.92783825674818e-03 4.58482417758915e-05
2.16410294117647e+01 2.89825673890135e-03 4.54620018244371e-05
2.17142647058824e+01 2.86897409896332e-03 4.50787575504639e-05
2.17875000000000e+01 2.83998731721073e-03 4.46984897447080e-05
2.18607352941176e+01 2.81129340456045e-03 4.43211793485026e-05
2.19339705882353e+01 2.78288940186723e-03 4.39468073544361e-05
2.20072058823529e+01 2.75477238001573e-03 4.35753547050030e-05
2.20804411764706e+01 2.72693943948505e-03 4.32068024488848e-05
2.21536764705882e+01 2.69938771004966e-03 4.28411316903193e-05
2.22269117647059e+01 2.67211435048349e-03 4.24783235904259e-05
2.23001470588235e+01 2.64511654826687e-03 4.21183593684911e-05
2.23733823529412e+01 2.61839151929653e-03 4.17612203032059e-05
2.24466176470588e+01 2.59193650759848e-03 4.14068877338830e-05
2.25198529411765e+01 2.56574878504376e-03 4.10553430615906e-05
2.25930882352941e+01 2.53982565106722e-03 4.07065677502744e-05
2.26663235294118e+01 2.51416443238892e-03 4.03605433278729e-05
2.27395588235294e+01 2.48876248273852e-03 4.00172513873513e-05
2.28127941176471e+01 2.46361718258238e-03 3.96766735877093e-05
2.28860294117647e+01 2.43872593885336e-03 3.93387916549632e-05
2.29592647058824e+01 2.41408618468351e-03 3.90035873830851e-05
2.30325000000000e+01 2.38969537913929e-03 3.86710425941064e-05
2.31057352941177e+01 2.36555100706336e-03 3.83411392622845e-05
