Energy (eV)          EEDF (eV^-(3/2))     First Anisotropy
1.40845070422535e-03 6.14840479417049e-01 3.79403969298883e-08
4.22535211267606e-03 6.14840449912081e-01 1.15408126868875e-07
7.04225352112676e-03 6.14840375659782e-01 2.83562215721063e-07
9.85915492957747e-03 6.14840252234867e-01 4.98760951712618e-07
1.26760563380282e-02 6.14840081514731e-01 7.48594438107682e-07
1.54929577464789e-02 6.14839862500997e-01 1.02150795787745e-06
1.83098591549296e-02 6.14839599982948e-01 1.29836697383725e-06
2.11267605633803e-02 6.14839298947263e-01 1.57522434017750e-06
2.39436619718310e-02 6.14838962846372e-01 1.85840870530894e-06
2.67605633802817e-02 6.14838592174054e-01 2.15348717601996e-06
2.95774647887324e-02 6.14838187376349e-01 2.45614864822934e-06
3.23943661971831e-02 6.14837750036071e-01 2.76021378676291e-06
3.52112676056338e-02 6.14837282178168e-01 3.07110774869082e-06
3.80281690140845e-02 6.14836783073526e-01 3.39620487122540e-06
4.08450704225352e-02 6.14836252212248e-01 3.73845251252590e-06
4.36619718309859e-02 6.14835688003265e-01 4.10070389259192e-06
4.64788732394366e-02 6.14835089214449e-01 4.48130358078072e-06
4.92957746478873e-02 6.14834454870734e-01 4.87557042593825e-06
5.21126760563380e-02 6.14833785098950e-01 5.27134852923611e-06
5.49295774647887e-02 6.14833082126826e-01 5.67172920853200e-06
5.77464788732394e-02 6.14832345034164e-01 6.08827086652752e-06
6.05633802816901e-02 6.14831572965319e-01 6.52093011174869e-06
6.33802816901408e-02 6.14830765066106e-01 6.97028621375403e-06
6.61971830985916e-02 6.14829920390911e-01 7.43699347612379e-06
6.90140845070423e-02 6.14829037982584e-01 7.91786452023105e-06
7.18309859154930e-02 6.14828117692537e-01 8.39307809263141e-06
7.46478873239437e-02 6.14827163115598e-01 8.86450779419255e-06
7.74647887323944e-02 6.14826173459497e-01 9.35101573879782e-06
8.02816901408451e-02 6.14825147959686e-01 9.85262541001975e-06
8.30985915492958e-02 6.14824085858296e-01 1.03696084524475e-05
8.59154929577465e-02 6.14822986369780e-01 1.09022403546184e-05
8.87323943661972e-02 6.14821848714038e-01 1.14504653460553e-05
9.15492957746479e-02 6.14820672150458e-01 1.20141696267616e-05
9.43661971830986e-02 6.14819455952299e-01 1.25935425469369e-05
9.71830985915493e-02 6.14818199368401e-01 1.31887815181753e-05
1.00000000000000e-01 6.14816901659135e-01 1.37857627656901e-05
1.02816901408451e-01 6.14815564894503e-01 1.43683455400121e-05
1.05633802816901e-01 6.14814191412298e-01 1.49478502923473e-05
1.08450704225352e-01 6.14812780904951e-01 1.55376282383419e-05
1.11267605633803e-01 6.14811333061099e-01 1.61377213859257e-05
1.14084507042254e-01 6.14809847564935e-01 1.67481761844584e-05
1.16901408450704e-01 6.14808324096517e-01 1.73690383238295e-05
1.19718309859155e-01 6.14806762332043e-01 1.80003528568656e-05
1.22535211267606e-01 6.14805161944084e-01 1.86421643139387e-05
1.25352112676056e-01 6.14803522601794e-01 1.92945168041352e-05
1.28169014084507e-01 6.14801843971090e-01 1.99574540991464e-05
1.30985915492958e-01 6.14800125714807e-01 2.06310197143772e-05
1.33802816901408e-01 6.14798367492839e-01 2.13152569684102e-05
1.36619718309859e-01 6.14796568962261e-01 2.20102090299048e-05
1.39436619718310e-01 6.14794729777436e-01 2.27159189704295e-05
1.42253521126761e-01 6.14792849590106e-01 2.34324298161448e-05
1.45070422535211e-01 6.14790928049479e-01 2.41597845792315e-05
1.47887323943662e-01 6.14788964802297e-01 2.48980262836858e-05
1.50704225352113e-01 6.14786959492905e-01 2.56471979937318e-05
1.53521126760563e-01 6.14784911763300e-01 2.64073428368552e-05
1.56338028169014e-01 6.14782821253190e-01 2.71785040287677e-05
1.59154929577465e-01 6.14780687600030e-01 2.79607248823111e-05
1.61971830985915e-01 6.14778510439063e-01 2.87540488298876e-05
1.64788732394366e-01 6.14776289403355e-01 2.95585194310490e-05
1.67605633802817e-01 6.14774024123821e-01 3.03741803751282e-05
1.70422535211268e-01 6.14771714229255e-01 3.12010751266808e-05
1.73239436619718e-01 6.14769359346406e-01 3.20392451091151e-05
1.76056338028169e-01 6.14766959100269e-01 3.28887223942592e-05
1.78873239436620e-01 6.14764513115226e-01 3.37495209084575e-05
1.81690140845070e-01 6.14762021016579e-01 3.46216195796161e-05
1.84507042253521e-01 6.14759482434065e-01 3.55049094641018e-05
1.87323943661972e-01 6.14756897010860e-01 3.63991562803127e-05
1.90140845070423e-01 6.14754264412054e-01 3.73040093121379e-05
1.92957746478873e-01 6.14751584331802e-01 3.82190716282586e-05
1.95774647887324e-01 6.14748856491293e-01 3.91440419625439e-05
1.98591549295775e-01 6.14746080625770e-01 4.00787673660160e-05
2.01408450704225e-01 6.14743256475659e-01 4.09627110195011e-05
2.04225352112676e-01 6.14740392733898e-01 4.17936879983710e-05
2.07042253521127e-01 6.14737489321853e-01 4.26302713633224e-05
2.09859154929577e-01 6.14734546200752e-01 4.34721336113065e-05
2.12676056338028e-01 6.14731563331571e-01 4.43192372709998e-05
2.15492957746479e-01 6.14728540674989e-01 4.51715462732504e-05
2.18309859154930e-01 6.14725478191351e-01 4.60290259027962e-05
2.21126760563380e-01 6.14722375840627e-01 4.68916427425026e-05
2.23943661971831e-01 6.14719233582387e-01 4.77593646241072e-05
2.26760563380282e-01 6.14716051375760e-01 4.86321605866200e-05
2.29577464788732e-01 6.14712829179414e-01 4.95100008265979e-05
2.32394366197183e-01 6.14709566951524e-01 5.03928566672714e-05
2.35211267605634e-01 6.14706264649750e-01 5.12807005112747e-05
2.38028169014085e-01 6.14702922231214e-01 5.21735058099550e-05
2.40845070422535e-01 6.14699539652479e-01 5.30712470247811e-05
2.43661971830986e-01 6.14696116869527e-01 5.39738996031869e-05
2.46478873239437e-01 6.14692653837743e-01 5.48814399431274e-05
2.49295774647887e-01 6.14689150511898e-01 5.57938453556042e-05
2.52112676056338e-01 6.14685606846131e-01 5.67110940383436e-05
2.54929577464789e-01 6.14682022793938e-01 5.76331650521386e-05
2.57746478873239e-01 6.14678398308155e-01 5.85600382936891e-05
2.60563380281690e-01 6.14674733340949e-01 5.94916944657053e-05
2.63380281690141e-01 6.14671027843802e-01 6.04281150549802e-05
2.66197183098592e-01 6.14667281767503e-01 6.13692823078342e-05
2.69014084507042e-01 6.14663495062139e-01 6.23151791516053e-05
2.71830985915493e-01 6.14659667677092e-01 6.32657888197332e-05
2.74647887323944e-01 6.14655799561069e-01 6.42210933747214e-05
2.77464788732394e-01 6.14651890662287e-01 6.51810710743194e-05
2.80281690140845e-01 6.14647940928812e-01 6.61456921844824e-05
2.83098591549296e-01 6.14643950309233e-01 6.71149076121780e-05
2.85915492957746e-01 6.14639918754356e-01 6.80886332143382e-05
2.88732394366197e-01 6.14635846219695e-01 6.90667461706602e-05
2.91549295774648e-01 6.14631732667495e-01 7.00490984315314e-05
2.94366197183099e-01 6.14627578067522e-01 7.10355519837568e-05
2.97183098591549e-01 6.14623382394856e-01 7.20260124245855e-05
3.00000000000000e-01 6.14619145626760e-01 7.30138699682276e-05
3.02816901408451e-01 6.14614868748992e-01 7.40241156587074e-05
3.05633802816901e-01 6.14610549080627e-01 7.51256807654221e-05
3.08450704225352e-01 6.14606179426942e-01 7.63532725847089e-05
3.11267605633803e-01 6.14601752982549e-01 7.77016662291417e-05
3.14084507042254e-01 6.14597263313724e-01 7.91658157235557e-05
3.16901408450704e-01 6.14592704341698e-01 8.07408461217805e-05
3.19718309859155e-01 6.14588070326780e-01 8.24220469613526e-05
3.22535211267606e-01 6.14583355853229e-01 8.42048660458101e-05
3.25352112676056e-01 6.14578555814860e-01 8.60849034964010e-05
3.28169014084507e-01 6.14573665401331e-01 8.80579060480167e-05
3.30985915492958e-01 6.14568680085083e-01 9.01197615944917e-05
3.33802816901408e-01 6.14563595608888e-01 9.22664939869960e-05
3.36619718309859e-01 6.14558407973990e-01 9.44942580178207e-05
3.39436619718310e-01 6.14553113428787e-01 9.67993346310261e-05
3.42253521126761e-01 6.14547708458047e-01 9.91781263267941e-05
3.45070422535211e-01 6.14542189772617e-01 1.01627152751520e-04
3.47887323943662e-01 6.14536554299604e-01 1.04143046470467e-04
3.50704225352113e-01 6.14530799173008e-01 1.06722548909557e-04
3.53521126760563e-01 6.14524921724773e-01 1.09362506467924e-04
3.56338028169014e-01 6.14518919476256e-01 1.12059866762030e-04
3.59154929577465e-01 6.14512790130067e-01 1.14811675039523e-04
3.61971830985916e-01 6.14506531562283e-01 1.17615070720778e-04
3.64788732394366e-01 6.14500141815011e-01 1.20467284085346e-04
3.67605633802817e-01 6.14493619089276e-01 1.23365633078864e-04
3.70422535211268e-01 6.14486961738231e-01 1.26307520179461e-04
3.73239436619718e-01 6.14480168260671e-01 1.29290429158700e-04
3.76056338028169e-01 6.14473237294856e-01 1.32311921080227e-04
3.78873239436620e-01 6.14466167612709e-01 1.35369630083952e-04
3.81690140845070e-01 6.14458958114329e-01 1.38461257862191e-04
3.84507042253521e-01 6.14451607823000e-01 1.41584562796859e-04
3.87323943661972e-01 6.14444115881055e-01 1.44737351826483e-04
3.90140845070423e-01 6.14436481545922e-01 1.47917479531365e-04
3.92957746478873e-01 6.14428704186238e-01 1.51122858361385e-04
3.95774647887324e-01 6.14420783276952e-01 1.54351480559264e-04
3.98591549295775e-01 6.14412718393321e-01 1.57601424283476e-04
4.01408450704225e-01 6.14404509205574e-01 1.60808276072919e-04
4.04225352112676e-01 6.14396163090333e-01 1.64042268399507e-04
4.07042253521127e-01 6.14387672516152e-01 1.67434402203912e-04
4.09859154929577e-01 6.14379030306485e-01 1.70978548987043e-04
4.12676056338028e-01 6.14370229678452e-01 1.74668262956842e-04
4.15492957746479e-01 6.14361264226326e-01 1.78497317543518e-04
4.18309859154930e-01 6.14352127905677e-01 1.82459698419645e-04
4.21126760563380e-01 6.14342815018158e-01 1.86549596760737e-04
4.23943661971831e-01 6.14333320196897e-01 1.90761402780843e-04
4.26760563380282e-01 6.14323638392468e-01 1.95089699479175e-04
4.29577464788732e-01 6.14313764859416e-01 1.99529256586015e-04
4.32394366197183e-01 6.14303695143322e-01 2.04075024757573e-04
4.35211267605634e-01 6.14293425068368e-01 2.08722129948262e-04
4.38028169014085e-01 6.14282950725397e-01 2.13465867969472e-04
4.40845070422535e-01 6.14272268460441e-01 2.18301699253749e-04
4.43661971830986e-01 6.14261374863688e-01 2.23225243773309e-04
4.46478873239437e-01 6.14250266758894e-01 2.28232276142653e-04
4.49295774647887e-01 6.14238941193191e-01 2.33318720871847e-04
4.52112676056338e-01 6.14227395427303e-01 2.38480647791463e-04
4.54929577464789e-01 6.14215626926132e-01 2.43714267625868e-04
4.57746478873239e-01 6.14203633349710e-01 2.49015927707732e-04
4.60563380281690e-01 6.14191412544505e-01 2.54382107844451e-04
4.63380281690141e-01 6.14178962535049e-01 2.59809416306895e-04
4.66197183098592e-01 6.14166281515898e-01 2.65294585962853e-04
4.69014084507042e-01 6.14153367843897e-01 2.70834470513711e-04
4.71830985915493e-01 6.14140220030736e-01 2.76426040762023e-04
4.74647887323944e-01 6.14126836735808e-01 2.82066380685351e-04
4.77464788732394e-01 6.14113216759366e-01 2.87752683272474e-04
4.80281690140845e-01 6.14099359035984e-01 2.93482245935467e-04
4.83098591549296e-01 6.14085262628353e-01 2.99252464056564e-04
4.85915492957746e-01 6.14070926721555e-01 3.05060823038773e-04
4.88732394366197e-01 6.14056350617792e-01 3.10904895298242e-04
4.91549295774648e-01 6.14041533731091e-01 3.16782342257959e-04
4.94366197183099e-01 6.14026475581977e-01 3.22690921727888e-04
4.97183098591549e-01 6.14011175791615e-01 3.28628495722511e-04
5.00000000000000e-01 6.13995634075878e-01 3.34550063657016e-04
5.02816901408451e-01 6.13979854713850e-01 3.40416351755305e-04
5.05633802816901e-01 6.13963841535905e-01 3.46280192787300e-04
5.08450704225352e-01 6.13947593416231e-01 3.52188034765512e-04
5.11267605633803e-01 6.13931109390581e-01 3.58136521749345e-04
5.14084507042254e-01 6.13914388649706e-01 3.64122405959811e-04
5.16901408450704e-01 6.13897430532875e-01 3.70142546356261e-04
5.19718309859155e-01 6.13880234521628e-01 3.76193905801552e-04
5.22535211267606e-01 6.13862800233729e-01 3.82273548299576e-04
5.25352112676056e-01 6.13845127417340e-01 3.88378636328415e-04
5.28169014084507e-01 6.13827215945381e-01 3.94506428247753e-04
5.30985915492958e-01 6.13809065810091e-01 4.00654275770776e-04
5.33802816901409e-01 6.13790677117769e-01 4.06819621527125e-04
5.36619718309859e-01 6.13772050083699e-01 4.12999996675321e-04
5.39436619718310e-01 6.13753185027240e-01 4.19193018570025e-04
5.42253521126761e-01 6.13734082367091e-01 4.25396388520181e-04
5.45070422535211e-01 6.13714742616710e-01 4.31607889584783e-04
5.47887323943662e-01 6.13695166379894e-01 4.37825384434590e-04
5.50704225352113e-01 6.13675354346504e-01 4.44046813287550e-04
5.53521126760563e-01 6.13655307288341e-01 4.50270191864944e-04
5.56338028169014e-01 6.13635026055155e-01 4.56493609429826e-04
5.59154929577465e-01 6.13614511570797e-01 4.62715226874434e-04
5.61971830985916e-01 6.13593764829495e-01 4.68933274842578e-04
5.64788732394366e-01 6.13572786892263e-01 4.75146051920167e-04
5.67605633802817e-01 6.13551578883426e-01 4.81351922858789e-04
5.70422535211268e-01 6.13530141987266e-01 4.87549316825663e-04
5.73239436619718e-01 6.13508477444786e-01 4.93736725606129e-04
5.76056338028169e-01 6.13486586550593e-01 4.99912701489578e-04
5.78873239436620e-01 6.13464470649917e-01 5.06075855016101e-04
5.81690140845070e-01 6.13442131135768e-01 5.12224852100776e-04
5.84507042253521e-01 6.13419569446279e-01 5.18358409438344e-04
5.87323943661972e-01 6.13396787062328e-01 5.24475291460117e-04
5.90140845070423e-01 6.13373785505203e-01 5.30574309469346e-04
5.92957746478873e-01 6.13350566334351e-01 5.36654325930730e-04
5.95774647887324e-01 6.13327131144683e-01 5.42714263351872e-04
5.98591549295775e-01 6.13303481563562e-01 5.48753104212535e-04
6.01408450704225e-01 6.13279619248206e-01 5.54873365629332e-04
6.04225352112676e-01 6.13255536942328e-01 5.61373568147881e-04
6.07042253521127e-01 6.13231210588950e-01 5.68534039339315e-04
6.09859154929578e-01 6.13206608988672e-01 5.76424945631124e-04
6.12676056338028e-01 6.13181702381948e-01 5.85017425422022e-04
6.15492957746479e-01 6.13156462398595e-01 5.94283491636675e-04
6.18309859154930e-01 6.13130862009036e-01 6.04196005811958e-04
6.21126760563380e-01 6.13104875477194e-01 6.14728652980750e-04
6.23943661971831e-01 6.13078478314983e-01 6.25855917301061e-04
6.26760563380282e-01 6.13051647238353e-01 6.37553058489152e-04
6.29577464788732e-01 6.13024360124812e-01 6.49796088964836e-04
6.32394366197183e-01 6.12996595972394e-01 6.62561751621514e-04
6.35211267605634e-01 6.12968334860014e-01 6.75827498264447e-04
6.38028169014085e-01 6.12939557909163e-01 6.89571468723817e-04
6.40845070422535e-01 6.12910247246902e-01 7.03772470545702e-04
6.43661971830986e-01 6.12880385970104e-01 7.18409959250642e-04
6.46478873239437e-01 6.12849958110913e-01 7.33464019215040e-04
6.49295774647887e-01 6.12818948603361e-01 7.48915345076961e-04
6.52112676056338e-01 6.12787343251126e-01 7.64745223673612e-04
6.54929577464789e-01 6.12755128696375e-01 7.80935516558785e-04
6.57746478873239e-01 6.12722292389662e-01 7.97468642965855e-04
6.60563380281690e-01 6.12688822560845e-01 8.14327563262750e-04
6.63380281690141e-01 6.12654708190993e-01 8.31495762936228e-04
6.66197183098592e-01 6.12619938985240e-01 8.48957237003297e-04
6.69014084507042e-01 6.12584505346561e-01 8.66696474844698e-04
6.71830985915493e-01 6.12548398350439e-01 8.84698445459321e-04
6.74647887323944e-01 6.12511609720395e-01 9.02948582997164e-04
6.77464788732394e-01 6.12474131804364e-01 9.21432772445166e-04
6.80281690140845e-01 6.12435957551899e-01 9.40137335463841e-04
6.83098591549296e-01 6.12397080492187e-01 9.59049015842481e-04
6.85915492957747e-01 6.12357494712905e-01 9.78154963992539e-04
6.88732394366197e-01 6.12317194839957e-01 9.97442724787468e-04
6.91549295774648e-01 6.12276176017724e-01 1.01690023083437e-03
6.94366197183099e-01 6.12234433889700e-01 1.03651579455988e-03
6.97183098591549e-01 6.12191964579774e-01 1.05627809916503e-03
7.00000000000000e-01 6.12148764673990e-01 1.07613214939935e-03
7.02816901408451e-01 6.12104835195854e-01 1.09616206272499e-03
7.05633802816901e-01 6.12060166388104e-01 1.11687677666197e-03
7.08450704225352e-01 6.12014717846291e-01 1.13883138149279e-03
7.11267605633803e-01 6.11968434917030e-01 1.16217860167564e-03
7.14084507042254e-01 6.11921265383849e-01 1.18686517208089e-03
7.16901408450704e-01 6.11873159395033e-01 1.21283916542952e-03
7.19718309859155e-01 6.11824069393499e-01 1.24004996040904e-03
7.22535211267606e-01 6.11773950048618e-01 1.26844821059706e-03
7.25352112676056e-01 6.11722758189954e-01 1.29798581416613e-03
7.28169014084507e-01 6.11670452742833e-01 1.32861588431721e-03
7.30985915492958e-01 6.11616994665723e-01 1.36029272038236e-03
7.33802816901408e-01 6.11562346889355e-01 1.39297177959336e-03
7.36619718309859e-01 6.11506474257536e-01 1.42660964948139e-03
7.39436619718310e-01 6.11449343469632e-01 1.46116402086374e-03
7.42253521126761e-01 6.11390923024637e-01 1.49659366144117e-03
7.45070422535211e-01 6.11331183166831e-01 1.53285838997465e-03
7.47887323943662e-01 6.11270095832943e-01 1.56991905101909e-03
7.50704225352113e-01 6.11207634600804e-01 1.60773749021222e-03
7.53521126760563e-01 6.11143774639446e-01 1.64627653009938e-03
7.56338028169014e-01 6.11078492660597e-01 1.68549994651546e-03
7.59154929577465e-01 6.11011766871550e-01 1.72537244542998e-03
7.61971830985916e-01 6.10943576929359e-01 1.76585964032213e-03
7.64788732394366e-01 6.10873903896330e-01 1.80692803007296e-03
7.67605633802817e-01 6.10802730196774e-01 1.84854497730633e-03
7.70422535211268e-01 6.10730039574985e-01 1.89067868717014e-03
7.73239436619718e-01 6.10655817054415e-01 1.93329818651785e-03
7.76056338028169e-01 6.10580048898022e-01 1.97637330330986e-03
7.78873239436620e-01 6.10502722569766e-01 2.01987464614519e-03
7.81690140845070e-01 6.10423826697239e-01 2.06377358349283e-03
7.84507042253521e-01 6.10343351035462e-01 2.10804222255304e-03
7.87323943661972e-01 6.10261286431801e-01 2.15265339008583e-03
7.90140845070423e-01 6.10177624791864e-01 2.19758061414996e-03
7.92957746478873e-01 6.10092359046437e-01 2.24279811360431e-03
7.95774647887324e-01 6.10005483118693e-01 2.28828078989341e-03
7.98591549295775e-01 6.09916991892256e-01 2.33400421056958e-03
8.01408450704225e-01 6.09826881180250e-01 2.37991697139126e-03
8.04225352112676e-01 6.09735149806417e-01 2.42579897055105e-03
8.07042253521127e-01 6.09641810370327e-01 2.47132447534126e-03
8.09859154929577e-01 6.09546886428504e-01 2.51634962200547e-03
8.12676056338028e-01 6.09450401333591e-01 2.56087666267639e-03
8.15492957746479e-01 6.09352378234504e-01 2.60490789278583e-03
8.18309859154930e-01 6.09252840076527e-01 2.64844565246153e-03
8.21126760563380e-01 6.09151809601335e-01 2.69149232773613e-03
8.23943661971831e-01 6.09049309346968e-01 2.73405035163220e-03
8.26760563380282e-01 6.08945361647754e-01 2.77612220509802e-03
8.29577464788732e-01 6.08839988634191e-01 2.81771041779090e-03
8.32394366197183e-01 6.08733212232786e-01 2.85881756879632e-03
8.35211267605634e-01 6.08625054165862e-01 2.89944628722868e-03
8.38028169014085e-01 6.08515535951338e-01 2.93959925275821e-03
8.40845070422535e-01 6.08404678902474e-01 2.97927919604975e-03
8.43661971830986e-01 6.08292504127599e-01 3.01848889909293e-03
8.46478873239437e-01 6.08179032529815e-01 3.05723119550144e-03
8.49295774647887e-01 6.08064284806688e-01 3.09550897072422e-03
8.52112676056338e-01 6.07948281449916e-01 3.13332516220048e-03
8.54929577464789e-01 6.07831042744994e-01 3.17068275944130e-03
8.57746478873240e-01 6.07712588770863e-01 3.20758480403859e-03
8.60563380281690e-01 6.07592939399554e-01 3.24403438965743e-03
8.63380281690141e-01 6.07472114295827e-01 3.28003466195907e-03
8.66197183098592e-01 6.07350132916803e-01 3.31558881847634e-03
8.69014084507042e-01 6.07227014511600e-01 3.35070010843629e-03
8.71830985915493e-01 6.07102778120963e-01 3.38537183247795e-03
8.74647887323944e-01 6.06977442576911e-01 3.41960734227135e-03
8.77464788732394e-01 6.06851026502376e-01 3.45341003979425e-03
8.80281690140845e-01 6.06723548310896e-01 3.48678337627736e-03
8.83098591549296e-01 6.06595026206333e-01 3.51973085029181e-03
8.85915492957747e-01 6.06465478182692e-01 3.55225600623103e-03
8.88732394366197e-01 6.06334922023948e-01 3.58436243716966e-03
