Energy (eV)          EEDF (eV^-(3/2))     First Anisotropy
3.06862745098039e-02 4.11584354028571e-02 2.16108828416772e-05
9.20588235294118e-02 4.08809174665587e-02 3.56853686887734e-05
1.53431372549020e-01 4.06052707434288e-02 4.71078263387923e-05
2.14803921568627e-01 4.03314826164637e-02 5.57850086175989e-05
2.76176470588235e-01 4.00595405537490e-02 6.30214342694811e-05
3.37549019607843e-01 3.97894321078718e-02 6.93102264213602e-05
3.98921568627451e-01 3.95211449153494e-02 7.49065282993984e-05
4.60294117647059e-01 3.92546666960624e-02 7.99643847068144e-05
5.21666666666667e-01 3.89899852526926e-02 8.45859419857522e-05
5.83039215686274e-01 3.87270884701643e-02 8.88433817362863e-05
6.44411764705882e-01 3.84659643150901e-02 9.27901266726994e-05
7.05784313725490e-01 3.82066008352197e-02 9.64671364319113e-05
7.67156862745098e-01 3.79489861588931e-02 9.99067031007035e-05
8.28529411764706e-01 3.76931084944970e-02 1.03134867782729e-04
8.89901960784314e-01 3.74389561299252e-02 1.06173027822586e-04
9.51274509803922e-01 3.71865174320423e-02 1.09039044653831e-04
1.01264705882353e+00 3.69357808461515e-02 1.11748030506126e-04
1.07401960784314e+00 3.66867348961472e-02 1.14312921778032e-04
1.13539215686274e+00 3.64393681816855e-02 1.16744905505418e-04
1.19676470588235e+00 3.61936693802563e-02 1.19053742948470e-04
1.25813725490196e+00 3.59496272456891e-02 1.21248019650233e-04
1.31950980392157e+00 3.57072306076314e-02 1.23335340886751e-04
1.38088235294118e+00 3.54664683710506e-02 1.25322486812616e-04
1.44225490196078e+00 3.52273295157275e-02 1.27215537012316e-04
1.50362745098039e+00 3.49898030957460e-02 1.29019971559611e-04
1.56500000000000e+00 3.47538782389930e-02 1.30740753611304e-04
1.62637254901961e+00 3.45195441481258e-02 1.32382398462966e-04
1.68774509803922e+00 3.42867900956170e-02 1.33949030163170e-04
1.74911764705882e+00 3.40556054277949e-02 1.35444428975980e-04
1.81049019607843e+00 3.38259795628209e-02 1.36872072483220e-04
1.87186274509804e+00 3.35979019902052e-02 1.38235169801677e-04
1.93323529411765e+00 3.33713622703234e-02 1.39536691044858e-04
1.99460784313725e+00 3.31463500339407e-02 1.40779392672359e-04
2.05598039215686e+00 3.29228549817414e-02 1.41965839415308e-04
2.11735294117647e+00 3.27008668838540e-02 1.43098423330079e-04
2.17872549019608e+00 3.24803755793829e-02 1.44179380268419e-04
2.24009803921569e+00 3.22613709769304e-02 1.45210804945869e-04
2.30147058823529e+00 3.20438430511381e-02 1.46194663445963e-04
2.36284313725490e+00 3.18277818452628e-02 1.47132804227480e-04
2.42421568627451e+00 3.16131774696953e-02 1.48026968673845e-04
2.48558823529412e+00 3.14000201015089e-02 1.48878799866316e-04
2.54696078431373e+00 3.11882999840081e-02 1.49689850562546e-04
2.60833333333333e+00 3.09780074262823e-02 1.50461590337013e-04
2.66970588235294e+00 3.07691328027651e-02 1.51195411991551e-04
2.73107843137255e+00 3.05616665527922e-02 1.51892637325856e-04
2.79245098039216e+00 3.03555991801633e-02 1.52554522210598e-04
2.85382352941176e+00 3.01509212534285e-02 1.53182261700730e-04
2.91519607843137e+00 2.99476234032711e-02 1.53776994036490e-04
2.97656862745098e+00 2.97456963242879e-02 1.54339804253574e-04
3.03794117647059e+00 2.95451307738188e-02 1.54871728130454e-04
3.09931372549020e+00 2.93459175715236e-02 1.55373755277828e-04
3.16068627450980e+00 2.91480475989620e-02 1.55846832090687e-04
3.22205882352941e+00 2.89515117991746e-02 1.56291864452226e-04
3.28343137254902e+00 2.87563011762716e-02 1.56709720216606e-04
3.34480392156863e+00 2.85624067950193e-02 1.57101231492804e-04
3.40617647058824e+00 2.83698197804316e-02 1.57467196747354e-04
3.46754901960784e+00 2.81785313173631e-02 1.57808382633356e-04
3.52892156862745e+00 2.79885326506469e-02 1.58125526120023e-04
3.59029411764706e+00 2.77998150830556e-02 1.58419335926539e-04
3.65166666666667e+00 2.76123699765574e-02 1.58690493832910e-04
3.71303921568627e+00 2.74261887513635e-02 1.58939656450890e-04
3.77441176470588e+00 2.72412628855359e-02 1.59167456435925e-04
3.83578431372549e+00 2.70575839145962e-02 1.59374503721743e-04
3.89715686274510e+00 2.68751434311398e-02 1.59561386671019e-04
3.95852941176471e+00 2.66939330844508e-02 1.59728673149403e-04
4.01990196078431e+00 2.65139445801192e-02 1.59876911528334e-04
4.08127450980392e+00 2.63351696796614e-02 1.60006631526926e-04
4.14264705882353e+00 2.61576002005731e-02 1.60118345379693e-04
4.20401960784314e+00 2.59812280146538e-02 1.60212548465290e-04
4.26539215686275e+00 2.58060450489470e-02 1.60289719882879e-04
4.32676470588235e+00 2.56320432849297e-02 1.60350323472760e-04
4.38813725490196e+00 2.54592147581449e-02 1.60394808399132e-04
4.44950980392157e+00 2.52875515578368e-02 1.60423609791535e-04
4.51088235294118e+00 2.51170458265895e-02 1.60437149348987e-04
4.57225490196078e+00 2.49476897599673e-02 1.60435835909974e-04
4.63362745098039e+00 2.47794756061571e-02 1.60420065990059e-04
4.69500000000000e+00 2.46123956656139e-02 1.60390224205920e-04
4.75637254901961e+00 2.44464422910573e-02 1.60346684007530e-04
4.81774509803922e+00 2.42816078860652e-02 1.60289807963029e-04
4.87911764705882e+00 2.41178849057915e-02 1.60219948017904e-04
4.94049019607843e+00 2.39552658562621e-02 1.60137446159490e-04
5.00186274509804e+00 2.37937432940325e-02 1.60042634716820e-04
5.06323529411765e+00 2.36333098258467e-02 1.59935836726947e-04
5.12460784313725e+00 2.34739581082988e-02 1.59817366282659e-04
5.18598039215686e+00 2.33156808474974e-02 1.59687528863155e-04
5.24735294117647e+00 2.31584707987314e-02 1.59546621648471e-04
5.30872549019608e+00 2.30023207661383e-02 1.59394933744974e-04
5.37009803921569e+00 2.28472236026639e-02 1.59232746691783e-04
5.43147058823529e+00 2.26931722088619e-02 1.59060334583529e-04
5.49284313725490e+00 2.25401595334485e-02 1.58877964179031e-04
5.55421568627451e+00 2.23881785726849e-02 1.58685895374003e-04
5.61558823529412e+00 2.22372223700557e-02 1.58484381360693e-04
5.67696078431373e+00 2.20872840159511e-02 1.58273668852775e-04
5.73833333333333e+00 2.19383566473505e-02 1.58053998300015e-04
5.79970588235294e+00 2.17904334475084e-02 1.57825604093708e-04
5.86107843137255e+00 2.16435076456425e-02 1.57588714763312e-04
5.92245098039216e+00 2.14975725166236e-02 1.57343553099400e-04
5.98382352941176e+00 2.13526213809100e-02 1.57090336529814e-04
6.04519607843137e+00 2.12086476035100e-02 1.56829277160819e-04
6.10656862745098e+00 2.10656445944154e-02 1.56560581809786e-04
6.16794117647059e+00 2.09236058080522e-02 1.56284452363682e-04
6.22931372549020e+00 2.07825247429810e-02 1.56001085864154e-04
6.29068627450980e+00 2.06423949415996e-02 1.55710674653657e-04
6.35205882352941e+00 2.05032099898468e-02 1.55413406515506e-04
6.41343137254902e+00 2.03649635169098e-02 1.55109464808578e-04
6.47480392156863e+00 2.02276491949321e-02 1.54799028596987e-04
6.53617647058824e+00 2.00912607387236e-02 1.54482272774478e-04
6.59754901960784e+00 1.99557919054735e-02 1.54159368127000e-04
6.65892156862745e+00 1.98212364946660e-02 1.53830481620620e-04
6.72029411764706e+00 1.96875883471865e-02 1.53495776396843e-04
6.78166666666667e+00 1.95548413456542e-02 1.53155411762664e-04
6.84303921568627e+00 1.94229894139359e-02 1.52809543469564e-04
6.90441176470588e+00 1.92920265168677e-02 1.52458323753818e-04
6.96578431372549e+00 1.91619466599787e-02 1.52101901432047e-04
7.02715686274510e+00 1.90327438892167e-02 1.51740421993502e-04
7.08852941176471e+00 1.89044122906760e-02 1.51374027689253e-04
7.14990196078431e+00 1.87769459903264e-02 1.51002857618124e-04
7.21127450980392e+00 1.86503391537442e-02 1.50627047758491e-04
7.27264705882353e+00 1.85245859860182e-02 1.50246731202782e-04
7.33401960784314e+00 1.83996807309625e-02 1.49862038131636e-04
7.39539215686275e+00 1.82756176713783e-02 1.49473095784297e-04
7.45676470588235e+00 1.81523911286161e-02 1.49080028688345e-04
7.51813725490196e+00 1.80299954623158e-02 1.48682958676996e-04
7.57950980392157e+00 1.79084250701481e-02 1.48282004956737e-04
7.64088235294118e+00 1.77876743875584e-02 1.47877284172832e-04
7.70225490196078e+00 1.76677378875123e-02 1.47468910472823e-04
7.76362745098039e+00 1.75486100802423e-02 1.47056995567960e-04
7.82500000000000e+00 1.74302855129965e-02 1.46641648746775e-04
7.88637254901961e+00 1.73127587699381e-02 1.46222977071138e-04
7.94774509803922e+00 1.71960244714479e-02 1.45801085339441e-04
8.00911764705882e+00 1.70800772743304e-02 1.45376076047060e-04
8.07049019607843e+00 1.69649118714176e-02 1.44948049579930e-04
8.13186274509804e+00 1.68505229913260e-02 1.44517104218176e-04
8.19323529411765e+00 1.67369053982153e-02 1.44083336185515e-04
8.25460784313725e+00 1.66240538915486e-02 1.43646839697106e-04
8.31598039215686e+00 1.65119633058547e-02 1.43207707006067e-04
8.37735294117647e+00 1.64006285104915e-02 1.42766028448697e-04
8.43872549019608e+00 1.62900444094111e-02 1.42321892446984e-04
8.50009803921569e+00 1.61802059410554e-02 1.41875385675743e-04
8.56147058823529e+00 1.60711080777355e-02 1.41426593020624e-04
8.62284313725490e+00 1.59627458257930e-02 1.40975597533994e-04
8.68421568627451e+00 1.58551142252400e-02 1.40522480600989e-04
8.74558823529412e+00 1.57482083495323e-02 1.40067321934929e-04
8.80696078431373e+00 1.56420233053438e-02 1.39610199614250e-04
8.86833333333333e+00 1.55365542323423e-02 1.39151190118388e-04
8.92970588235294e+00 1.54317963029674e-02 1.38690368362715e-04
8.99107843137255e+00 1.53277447222094e-02 1.38227807732597e-04
9.05245098039216e+00 1.52243947273896e-02 1.37763580079167e-04
9.11382352941176e+00 1.51217415880552e-02 1.37297755863906e-04
9.17519607843137e+00 1.50197806054228e-02 1.36830404114775e-04
9.23656862745098e+00 1.49185071125053e-02 1.36361592380677e-04
9.29794117647059e+00 1.48179164737836e-02 1.35891386875708e-04
9.35931372549020e+00 1.47180040849944e-02 1.35419852469731e-04
9.42068627450980e+00 1.46187653729194e-02 1.34947052716611e-04
9.48205882352941e+00 1.45201957951758e-02 1.34473049881631e-04
9.54343137254902e+00 1.44222908400089e-02 1.33997904968276e-04
9.60480392156863e+00 1.43250460260852e-02 1.33521677744418e-04
9.66617647058824e+00 1.42284569022874e-02 1.33044426767724e-04
9.72754901960784e+00 1.41325190475105e-02 1.32566209377090e-04
9.78892156862745e+00 1.40372280705570e-02 1.32087081817555e-04
9.85029411764706e+00 1.39425796096420e-02 1.31607099196517e-04
9.91166666666667e+00 1.38485693324892e-02 1.31126315438608e-04
9.97303921568627e+00 1.37551929360335e-02 1.30644783443008e-04
1.00344117647059e+01 1.36624461461312e-02 1.30162554815440e-04
1.00957843137255e+01 1.35703247180978e-02 1.29679680589230e-04
1.01571568627451e+01 1.34788244344147e-02 1.29196210363537e-04
1.02185294117647e+01 1.33879411078038e-02 1.28712192840829e-04
1.02799019607843e+01 1.32976705774399e-02 1.28227675756739e-04
1.03412745098039e+01 1.32080087123110e-02 1.27742705858367e-04
1.04026470588235e+01 1.31189514075233e-02 1.27257328963996e-04
1.04640196078431e+01 1.30304945875752e-02 1.26771589941391e-04
1.05253921568627e+01 1.29426342027516e-02 1.26285532765746e-04
1.05867647058824e+01 1.28553662323159e-02 1.25799200497992e-04
1.06481372549020e+01 1.27686866809900e-02 1.25312635341127e-04
1.07095098039216e+01 1.26825915820662e-02 1.24825878618509e-04
1.07708823529412e+01 1.25970769939718e-02 1.24338970828641e-04
1.08322549019608e+01 1.25121390033021e-02 1.23851951623488e-04
1.08936274509804e+01 1.24277737214673e-02 1.23364859861731e-04
1.09550000000000e+01 1.23439772876500e-02 1.22877733587187e-04
1.10163725490196e+01 1.22607458655311e-02 1.22390610080582e-04
1.10777450980392e+01 1.21780756461736e-02 1.21903525838057e-04
1.11391176470588e+01 1.20959628448264e-02 1.21416516621547e-04
1.12004901960784e+01 1.20144037037362e-02 1.20929617437366e-04
1.12618627450980e+01 1.19333944890262e-02 1.20442862585284e-04
1.13232352941176e+01 1.18529314934393e-02 1.19956285637197e-04
1.13846078431373e+01 1.17730110332890e-02 1.19469919484898e-04
1.14459803921569e+01 1.16936294511360e-02 1.18983796318910e-04
1.15073529411765e+01 1.16147831128095e-02 1.18497947674974e-04
1.15687254901961e+01 1.15364684100184e-02 1.18012404413039e-04
1.16300980392157e+01 1.14586817574418e-02 1.17527196762553e-04
1.16914705882353e+01 1.13814195952767e-02 1.17042354301583e-04
1.17528431372549e+01 1.13046783863954e-02 1.16557906000985e-04
1.18142156862745e+01 1.12284546188314e-02 1.16073880203658e-04
1.18755882352941e+01 1.11527448030024e-02 1.15590304667573e-04
1.19369607843137e+01 1.10775454741356e-02 1.15107206545252e-04
1.19983333333333e+01 1.10028531895547e-02 1.14624612425675e-04
1.20597058823529e+01 1.09286645310469e-02 1.14142548313950e-04
1.21210784313725e+01 1.08549761022112e-02 1.13661039672197e-04
1.21824509803922e+01 1.07817845307690e-02 1.13180111399365e-04
1.22438235294118e+01 1.07090864659726e-02 1.12699787871121e-04
1.23051960784314e+01 1.06368785808606e-02 1.12220092919871e-04
1.23665686274510e+01 1.05651575697245e-02 1.11741049873676e-04
1.24279411764706e+01 1.04939201503115e-02 1.11262681536457e-04
1.24893137254902e+01 1.04231630613470e-02 1.10785010225962e-04
1.25506862745098e+01 1.03528830646855e-02 1.10308057538915e-04
1.26120588235294e+01 1.02830769434407e-02 1.09831845250660e-04
1.26734313725490e+01 1.02137415018753e-02 1.09356394006448e-04
1.27348039215686e+01 1.01448735668929e-02 1.08881724195940e-04
1.27961764705882e+01 1.00764699857118e-02 1.08407855764893e-04
1.28575490196078e+01 1.00085276278766e-02 1.07934808196393e-04
1.29189215686275e+01 9.94104338298341e-03 1.07462600545476e-04
1.29802941176471e+01 9.87401416264496e-03 1.06991251420522e-04
1.30416666666667e+01 9.80743689826575e-03 1.06520779017106e-04
1.31030392156863e+01 9.74130854296127e-03 1.06051201099599e-04
1.31644117647059e+01 9.67562606938222e-03 1.05582535034220e-04
1.32257843137255e+01 9.61038647158933e-03 1.05114797770852e-04
1.32871568627451e+01 9.54558676292500e-03 1.04648005875329e-04
1.33485294117647e+01 9.48122397784501e-03 1.04182175511479e-04
1.34099019607843e+01 9.41729516983645e-03 1.03717322472665e-04
1.34712745098039e+01 9.35379741320739e-03 1.03253462164023e-04
1.35326470588235e+01 9.29072780104991e-03 1.02790609633312e-04
1.35940196078431e+01 9.22808344698891e-03 1.02328779553366e-04
1.36553921568627e+01 9.16586148318904e-03 1.01867986252227e-04
1.37167647058824e+01 9.10405906206375e-03 1.01408243695835e-04
1.37781372549020e+01 9.04267335432500e-03 1.00949565517468e-04
1.38395098039216e+01 8.98170155065360e-03 1.00491965000655e-04
1.39008823529412e+01 8.92114085979065e-03 1.00035455107973e-04
1.39622549019608e+01 8.86098851017008e-03 9.95800484641531e-05
1.40236274509804e+01 8.80124174805091e-03 9.91257573842420e-05
1.40850000000000e+01 8.74189783911296e-03 9.86725938569283e-05
1.41463725490196e+01 8.68295406662879e-03 9.82205695720933e-05
1.42077450980392e+01 8.62440773302363e-03 9.77696959043444e-05
1.42691176470588e+01 8.56625615808603e-03 9.73199839399644e-05
1.43304901960784e+01 8.50849668049288e-03 9.68714444606509e-05
1.43918627450980e+01 8.45112665605785e-03 9.64240879698884e-05
1.44532352941176e+01 8.39414345922237e-03 9.59779246769161e-05
1.45146078431373e+01 8.33754448134095e-03 9.55329645224896e-05
1.45759803921569e+01 8.28132713213898e-03 9.50892171630893e-05
1.46373529411765e+01 8.22548883803406e-03 9.46466919961386e-05
1.46987254901961e+01 8.17002704356143e-03 9.42053981443884e-05
1.47600980392157e+01 8.11493920973044e-03 9.37653444806164e-05
1.48214705882353e+01 8.06022281541841e-03 9.33265396122305e-05
1.48828431372549e+01 8.00587535576146e-03 9.28889919054225e-05
1.49442156862745e+01 7.95189434351754e-03 9.24527094699897e-05
1.50055882352941e+01 7.89827730749076e-03 9.20177001829920e-05
1.50669607843137e+01 7.84502179386445e-03 9.15839716737505e-05
1.51283333333333e+01 7.79212536465812e-03 9.11515313470088e-05
1.51897058823529e+01 7.73958559903135e-03 9.07203863681721e-05
1.52510784313725e+01 7.68740009177257e-03 9.02905436859534e-05
1.53124509803922e+01 7.63556645457444e-03 8.98620100178182e-05
1.53738235294118e+01 7.58408231455385e-03 8.94347918721651e-05
1.54351960784314e+01 7.53294531549941e-03 8.90088955339650e-05
1.54965686274510e+01 7.48215311642186e-03 8.85843270864990e-05
1.55579411764706e+01 7.43170339277446e-03 8.81610923971809e-05
1.56193137254902e+01 7.38159383503312e-03 8.77391971388485e-05
1.56806862745098e+01 7.33182214989024e-03 8.73186466393536e-05
1.57420588235294e+01 7.28238605917663e-03 8.68994464490646e-05
1.58034313725490e+01 7.23328329977650e-03 8.64816015099059e-05
1.58648039215686e+01 7.18451162445390e-03 8.60651167075015e-05
1.59261764705882e+01 7.13606880051140e-03 8.56499967495949e-05
1.59875490196078e+01 7.08795261091334e-03 8.52362461526816e-05
1.60489215686274e+01 7.04016085297174e-03 8.48238692616971e-05
1.61102941176471e+01 6.99269133944543e-03 8.44128702368415e-05
1.61716666666667e+01 6.94554189725247e-03 8.40032530728452e-05
1.62330392156863e+01 6.89871036854581e-03 8.35950215859964e-05
1.62944117647059e+01 6.85219460945163e-03 8.31881794330289e-05
1.63557843137255e+01 6.80599249112198e-03 8.27827300983302e-05
1.64171568627451e+01 6.76010189849852e-03 8.23786769124425e-05
1.64785294117647e+01 6.71452073134275e-03 8.19760230394386e-05
1.65399019607843e+01 6.66924690302445e-03 8.15747714950643e-05
1.66012745098039e+01 6.62427834153013e-03 8.11749251343178e-05
1.66626470588235e+01 6.57961298827559e-03 8.07764866692093e-05
1.67240196078431e+01 6.53524879909301e-03 8.03794586565151e-05
1.67853921568627e+01 6.49118374306723e-03 7.99838435151826e-05
1.68467647058824e+01 6.44741580350196e-03 7.95896435142674e-05
1.69081372549020e+01 6.40394297677914e-03 7.91968607900164e-05
1.69695098039216e+01 6.36076327330481e-03 7.88054973339417e-05
1.70308823529412e+01 6.31787471639112e-03 7.84155550095671e-05
1.70922549019608e+01 6.27527534318225e-03 7.80270355407105e-05
1.71536274509804e+01 6.23296320355854e-03 7.76399405278836e-05
1.72150000000000e+01 6.19093636104301e-03 7.72542714367299e-05
1.72763725490196e+01 6.14919289172710e-03 7.68700296141145e-05
1.73377450980392e+01 6.10773088515816e-03 7.64872162767340e-05
1.73991176470588e+01 6.06654844328639e-03 7.61058325268882e-05
1.74604901960784e+01 6.02564368133378e-03 7.57258793412509e-05
1.75218627450980e+01 5.98501472676171e-03 7.53473575863338e-05
1.75832352941176e+01 5.94465972012178e-03 7.49702680074329e-05
1.76446078431373e+01 5.90457681404364e-03 7.45946112438004e-05
1.77059803921569e+01 5.86476417406812e-03 7.42203878177326e-05
1.77673529411765e+01 5.82521997765485e-03 7.38475981494397e-05
1.78287254901961e+01 5.78594241499805e-03 7.34762425463184e-05
1.78900980392157e+01 5.74692968805358e-03 7.31063212175262e-05
1.79514705882353e+01 5.70818001133778e-03 7.27378342634077e-05
1.80128431372549e+01 5.66969161097345e-03 7.23707816897942e-05
1.80742156862745e+01 5.63146272547220e-03 7.20051633975728e-05
1.81355882352941e+01 5.59349160479895e-03 7.16409791967307e-05
1.81969607843137e+01 5.55577651113812e-03 7.12782287960765e-05
1.82583333333333e+01 5.51831571797628e-03 7.09169118169935e-05
1.83197058823529e+01 5.48110751085252e-03 7.05570277833246e-05
1.83810784313725e+01 5.44415018645889e-03 7.01985761348798e-05
1.84424509803922e+01 5.40744205337533e-03 6.98415562174555e-05
1.85038235294118e+01 5.37098143118744e-03 6.94859672960760e-05
1.85651960784314e+01 5.33476665120638e-03 6.91318085451784e-05
1.86265686274510e+01 5.29879605560360e-03 6.87790790615940e-05
1.86879411764706e+01 5.26306799811597e-03 6.84277778548777e-05
1.87493137254902e+01 5.22758084319721e-03 6.80779038600495e-05
1.88106862745098e+01 5.19233296670856e-03 6.77294558398351e-05
1.88720588235294e+01 5.15732275527117e-03 6.73824327506846e-05
1.89334313725490e+01 5.12254860620274e-03 6.70368332048552e-05
1.89948039215686e+01 5.08800892799398e-03 6.66926558267554e-05
1.90561764705882e+01 5.05370213950361e-03 6.63498991734826e-05
1.91175490196078e+01 5.01962667061093e-03 6.60085617256937e-05
1.91789215686275e+01 4.98578096142612e-03 6.56686418994769e-05
1.92402941176471e+01 4.95216346292962e-03 6.53301380373648e-05
1.93016666666667e+01 4.91877263619744e-03 6.49930484199678e-05
1.93630392156863e+01 4.88560695302759e-03 6.46573712571295e-05
