Energy (eV)          EEDF (eV^-(3/2))     First Anisotropy
9.86111111111111e-02 3.38553058568232e-02 2.97416006165351e-05
2.95833333333333e-01 3.32125656315121e-02 4.88097327390745e-05
4.93055555555556e-01 3.25820277771394e-02 6.36389806118088e-05
6.90277777777778e-01 3.19634606316210e-02 7.44323208556641e-05
8.87500000000000e-01 3.13566369333651e-02 8.30512639419585e-05
1.08472222222222e+00 3.07613337337845e-02 9.02130130130066e-05
1.28194444444444e+00 3.01773323183768e-02 9.62953791139655e-05
1.47916666666667e+00 2.96044181188096e-02 1.01530444046477e-04
1.67638888888889e+00 2.90423806498639e-02 1.06074692803068e-04
1.87361111111111e+00 2.84910134173781e-02 1.10040506490374e-04
2.07083333333333e+00 2.79501138474783e-02 1.13512365508832e-04
2.26805555555556e+00 2.74194832123272e-02 1.16556017768129e-04
2.46527777777778e+00 2.68989265548103e-02 1.19224044106047e-04
2.66250000000000e+00 2.63882526236020e-02 1.21559427125646e-04
2.85972222222222e+00 2.58872737958283e-02 1.23597941658084e-04
3.05694444444444e+00 2.53958060106505e-02 1.25369813791457e-04
3.25416666666667e+00 2.49136687001417e-02 1.26900907673408e-04
3.45138888888889e+00 2.44406847276053e-02 1.28213596663092e-04
3.64861111111111e+00 2.39766803176090e-02 1.29327416756733e-04
3.84583333333333e+00 2.35214849938215e-02 1.30259565629827e-04
4.04305555555556e+00 2.30749315164242e-02 1.31025291025896e-04
4.24027777777778e+00 2.26368558196038e-02 1.31638196833884e-04
4.43750000000000e+00 2.22070969544753e-02 1.32110488166597e-04
4.63472222222222e+00 2.17854970266287e-02 1.32453169704992e-04
4.83194444444444e+00 2.13719011392729e-02 1.32676207619755e-04
5.02916666666667e+00 2.09661573355188e-02 1.32788663359618e-04
5.22638888888889e+00 2.05681165450469e-02 1.32798805384630e-04
5.42361111111111e+00 2.01776325267558e-02 1.32714203074745e-04
5.62083333333333e+00 1.97945618159135e-02 1.32541805904895e-04
5.81805555555556e+00 1.94187636714662e-02 1.32288011251680e-04
6.01527777777778e+00 1.90501000237082e-02 1.31958722301667e-04
6.21250000000000e+00 1.86884354254363e-02 1.31559398286604e-04
6.40972222222222e+00 1.83336370002486e-02 1.31095098100877e-04
6.60694444444444e+00 1.79855743943933e-02 1.30570518128588e-04
6.80416666666667e+00 1.76441197283757e-02 1.29990025433989e-04
7.00138888888889e+00 1.73091475515166e-02 1.29357687161621e-04
7.19861111111111e+00 1.69805347942761e-02 1.28677296549524e-04
7.39583333333333e+00 1.66581607235767e-02 1.27952395785101e-04
7.59305555555556e+00 1.63419068984538e-02 1.27186296602848e-04
7.79027777777778e+00 1.60316571261395e-02 1.26382098504306e-04
7.98750000000000e+00 1.57272974205895e-02 1.25542705297810e-04
8.18472222222222e+00 1.54287159593564e-02 1.24670839996816e-04
8.38194444444444e+00 1.51358030429338e-02 1.23769058101660e-04
8.57916666666667e+00 1.48484510541195e-02 1.22839759646203e-04
8.77638888888889e+00 1.45665544195003e-02 1.21885200264030e-04
8.97361111111111e+00 1.42900095696145e-02 1.20907501267469e-04
9.17083333333333e+00 1.40187149012567e-02 1.19908658660329e-04
9.36805555555556e+00 1.37525707401528e-02 1.18890551551567e-04
9.56527777777778e+00 1.34914793040660e-02 1.17854949710414e-04
9.76250000000000e+00 1.32353446677023e-02 1.16803520649362e-04
9.95972222222222e+00 1.29840727266168e-02 1.15737836064846e-04
1.01569444444444e+01 1.27375711636463e-02 1.14659378157748e-04
1.03541666666667e+01 1.24957494109366e-02 1.13569544284882e-04
1.05513888888889e+01 1.22585186250622e-02 1.12469652423131e-04
1.07486111111111e+01 1.20257916468516e-02 1.11360946597432e-04
1.09458333333333e+01 1.17974829718334e-02 1.10244600349099e-04
1.11430555555556e+01 1.15735087188482e-02 1.09121721322225e-04
1.13402777777778e+01 1.13537865972926e-02 1.07993354334483e-04
1.15375000000000e+01 1.11382358827713e-02 1.06860485375092e-04
1.17347222222222e+01 1.09267773814252e-02 1.05724045378417e-04
1.19319444444444e+01 1.07193334028868e-02 1.04584912746788e-04
1.21291666666667e+01 1.05158277300721e-02 1.03443915836314e-04
1.23263888888889e+01 1.03161855962789e-02 1.02301836071774e-04
1.25236111111111e+01 1.01203336525071e-02 1.01159410903203e-04
1.27208333333333e+01 9.92819994227503e-03 1.00017335489153e-04
1.29180555555556e+01 9.73971387519935e-03 9.88762653216528e-05
1.31152777777778e+01 9.55480619965217e-03 9.77368177551119e-05
1.33125000000000e+01 9.37340898159393e-03 9.65995743385845e-05
1.35097222222222e+01 9.19545557525066e-03 9.54650830434803e-05
1.37069444444444e+01 9.02088060011466e-03 9.43338595771034e-05
1.39041666666667e+01 8.84961991570200e-03 9.32063887200708e-05
1.41013888888889e+01 8.68161060172610e-03 9.20831262101047e-05
1.42986111111111e+01 8.51679093116573e-03 9.09645005487288e-05
1.44958333333333e+01 8.35510034887812e-03 8.98509138504429e-05
1.46930555555556e+01 8.19647944936147e-03 8.87427434695064e-05
1.48902777777778e+01 8.04086995388739e-03 8.76403427974416e-05
1.50875000000000e+01 7.88821469225479e-03 8.65440427265251e-05
1.52847222222222e+01 7.73845757855775e-03 8.54541530600934e-05
1.54819444444444e+01 7.59154359167782e-03 8.43709632281104e-05
1.56791666666667e+01 7.44741875415786e-03 8.32947430433317e-05
1.58763888888889e+01 7.30603011515742e-03 8.22257439127414e-05
1.60736111111111e+01 7.16732572815751e-03 8.11642000085847e-05
1.62708333333333e+01 7.03125463283682e-03 8.01103286998674e-05
1.64680555555556e+01 6.89776683635596e-03 7.90643316166639e-05
1.66652777777778e+01 6.76681329420736e-03 7.80263950713767e-05
1.68625000000000e+01 6.63834589457417e-03 7.69966910240524e-05
1.70597222222222e+01 6.51231743823106e-03 7.59753780190297e-05
1.72569444444444e+01 6.38868162202689e-03 7.49626015818112e-05
1.74541666666667e+01 6.26739302118416e-03 7.39584946580958e-05
1.76513888888889e+01 6.14840707471454e-03 7.29631784265744e-05
1.78486111111111e+01 6.03168006690287e-03 7.19767630895000e-05
1.80458333333333e+01 5.91716911197147e-03 7.09993480828784e-05
1.82430555555556e+01 5.80483213832858e-03 7.00310227994648e-05
1.84402777777778e+01 5.69462787251651e-03 6.90718668056412e-05
1.86375000000000e+01 5.58651582585483e-03 6.81219505006511e-05
1.88347222222222e+01 5.48045627772451e-03 6.71813357598083e-05
1.90319444444444e+01 5.37641026159975e-03 6.62500761525027e-05
1.92291666666667e+01 5.27433955020572e-03 6.53282171987945e-05
1.94263888888889e+01 5.17420664308008e-03 6.44157969311806e-05
1.96236111111111e+01 5.07597475115968e-03 6.35128464437972e-05
1.98208333333333e+01 4.97960778381745e-03 6.26193899813268e-05
2.00180555555556e+01 4.88507033560599e-03 6.17354454433058e-05
2.02152777777778e+01 4.79232767279332e-03 6.08610244861396e-05
2.04125000000000e+01 4.70134572198801e-03 5.99961329844660e-05
2.06097222222222e+01 4.61209105620944e-03 5.91407714834077e-05
2.08069444444444e+01 4.52453088308587e-03 5.82949353127149e-05
2.10041666666667e+01 4.43863303240137e-03 5.74586147344980e-05
2.12013888888889e+01 4.35436594551315e-03 5.66317953397270e-05
2.13986111111111e+01 4.27169866249817e-03 5.58144584375591e-05
2.15958333333333e+01 4.19060081120408e-03 5.50065810768948e-05
2.17930555555556e+01 4.11104259609284e-03 5.42081364047962e-05
2.19902777777778e+01 4.03299478694102e-03 5.34190937028997e-05
2.21875000000000e+01 3.95642870917248e-03 5.26394187159409e-05
2.23847222222222e+01 3.88131623223270e-03 5.18690739751018e-05
2.25819444444444e+01 3.80762975962368e-03 5.11080188506897e-05
2.27791666666667e+01 3.73534221845070e-03 5.03562096333553e-05
2.29763888888889e+01 3.66442705043480e-03 4.96135998181237e-05
2.31736111111111e+01 3.59485820117945e-03 4.88801403843725e-05
2.33708333333333e+01 3.52661011092804e-03 4.81557797803231e-05
2.35680555555556e+01 3.45965770517493e-03 4.74404641811618e-05
2.37652777777778e+01 3.39397638517842e-03 4.67341374880659e-05
2.39625000000000e+01 3.32954201975750e-03 4.60367415649897e-05
2.41597222222222e+01 3.26633093557741e-03 4.53482164725874e-05
2.43569444444444e+01 3.20431990873989e-03 4.46685004843411e-05
2.45541666666667e+01 3.14348615600539e-03 4.39975301266350e-05
2.47513888888889e+01 3.08380732717090e-03 4.33352403843201e-05
2.49486111111111e+01 3.02526149609723e-03 4.26815649040761e-05
2.51458333333333e+01 2.96782715291072e-03 4.20364359593354e-05
2.53430555555556e+01 2.91148319610163e-03 4.13997846378739e-05
2.55402777777778e+01 2.85620892455656e-03 4.07715408200686e-05
2.57375000000000e+01 2.80198403060587e-03 4.01516333509742e-05
2.59347222222222e+01 2.74878859189857e-03 3.95399902109169e-05
2.61319444444444e+01 2.69660306430800e-03 3.89365385101313e-05
2.63291666666667e+01 2.64540827455882e-03 3.83412045033530e-05
2.65263888888889e+01 2.59518541376982e-03 3.77539137396106e-05
2.67236111111111e+01 2.54591602994654e-03 3.71745912109230e-05
2.69208333333333e+01 2.49758202140380e-03 3.66031613079192e-05
2.71180555555556e+01 2.45016563011598e-03 3.60395479569820e-05
2.73152777777778e+01 2.40364943502366e-03 3.54836745877005e-05
2.75125000000000e+01 2.35801634614681e-03 3.49354642585672e-05
2.77097222222222e+01 2.31324959778367e-03 3.43948397820254e-05
2.79069444444444e+01 2.26933274252807e-03 3.38617237068889e-05
2.81041666666667e+01 2.22624964507487e-03 3.33360383173395e-05
2.83013888888889e+01 2.18398447675453e-03 3.28177057425097e-05
2.84986111111111e+01 2.14252170924730e-03 3.23066480656450e-05
2.86958333333333e+01 2.10184610903705e-03 3.18027872764652e-05
2.88930555555556e+01 2.06194273181513e-03 3.13060453717600e-05
2.90902777777778e+01 2.02279691685626e-03 3.08163443180480e-05
2.92875000000000e+01 1.98439428203795e-03 3.03336061436385e-05
2.94847222222222e+01 1.94672071814408e-03 2.98577530305370e-05
2.96819444444444e+01 1.90976238382091e-03 2.93887072904240e-05
2.98791666666667e+01 1.87350570037167e-03 2.89263913543748e-05
3.00763888888889e+01 1.83793734713383e-03 2.84707278531578e-05
3.02736111111111e+01 1.80304425621301e-03 2.80216396975075e-05
3.04708333333333e+01 1.76881360780753e-03 2.75790500307474e-05
3.06680555555556e+01 1.73523282549891e-03 2.71428823026569e-05
3.08652777777778e+01 1.70228957152538e-03 2.67130602309510e-05
3.10625000000000e+01 1.66997174257077e-03 2.62895078687296e-05
3.12597222222222e+01 1.63826746499071e-03 2.58721496720597e-05
3.14569444444444e+01 1.60716509056106e-03 2.54609104731156e-05
3.16541666666667e+01 1.57665319210294e-03 2.50557154646982e-05
3.18513888888889e+01 1.54672055957515e-03 2.46564902590378e-05
3.20486111111111e+01 1.51735619566007e-03 2.42631609468017e-05
3.22458333333333e+01 1.48854931182313e-03 2.38756540519617e-05
3.24430555555556e+01 1.46028932434947e-03 2.34938965859794e-05
3.26402777777778e+01 1.43256585037116e-03 2.31178160102366e-05
3.28375000000000e+01 1.40536870430856e-03 2.27473402853594e-05
3.30347222222222e+01 1.37868789386804e-03 2.23823979208410e-05
3.32319444444444e+01 1.35251361645886e-03 2.20229179475686e-05
3.34291666666667e+01 1.32683625551574e-03 2.16688298997719e-05
3.36263888888889e+01 1.30164637719730e-03 2.13200638579630e-05
3.38236111111111e+01 1.27693472668477e-03 2.09765504922092e-05
3.40208333333333e+01 1.25269222486122e-03 2.06382210202898e-05
3.42180555555556e+01 1.22890996497623e-03 2.03050072473153e-05
3.44152777777778e+01 1.20557920930623e-03 1.99768415303106e-05
3.46125000000000e+01 1.18269138614859e-03 1.96536568141378e-05
3.48097222222222e+01 1.16023808646484e-03 1.93353866677999e-05
3.50069444444444e+01 1.13821106086143e-03 1.90219652577003e-05
3.52041666666667e+01 1.11660221649818e-03 1.87133273287059e-05
3.54013888888889e+01 1.09540361430004e-03 1.84094082353411e-05
3.55986111111111e+01 1.07460746585224e-03 1.81101439733755e-05
3.57958333333333e+01 1.05420613060233e-03 1.78154711417344e-05
3.59930555555556e+01 1.03419211305328e-03 1.75253269713125e-05
3.61902777777778e+01 1.01455805995583e-03 1.72396492923239e-05
3.63875000000000e+01 9.95296757770281e-04 1.69583765602916e-05
3.65847222222222e+01 9.76401129850305e-04 1.66814478824508e-05
3.67819444444444e+01 9.57864233899134e-04 1.64088029925211e-05
3.69791666666667e+01 9.39679259370313e-04 1.61403822319381e-05
3.71763888888889e+01 9.21839525113734e-04 1.58761265723384e-05
3.73736111111111e+01 9.04338476770405e-04 1.56159776384564e-05
3.75708333333333e+01 8.87169684415249e-04 1.53598776739003e-05
3.77680555555556e+01 8.70326840194892e-04 1.51077695619352e-05
3.79652777777778e+01 8.53803755967008e-04 1.48595967958536e-05
3.81625000000000e+01 8.37594361157888e-04 1.46153034975978e-05
3.83597222222222e+01 8.21692700398955e-04 1.43748344367964e-05
3.85569444444444e+01 8.06092931383843e-04 1.41381350074580e-05
3.87541666666667e+01 7.90789322682849e-04 1.39051512100180e-05
3.89513888888889e+01 7.75776251756210e-04 1.36758296673627e-05
3.91486111111111e+01 7.61048202767514e-04 1.34501176412603e-05
3.93458333333333e+01 7.46599764598005e-04 1.32279630019048e-05
3.95430555555556e+01 7.32425628858660e-04 1.30093142427337e-05
3.97402777777778e+01 7.18520587905186e-04 1.27941204538468e-05
3.99375000000000e+01 7.04879533030118e-04 1.25823313351668e-05
4.01347222222222e+01 6.91497452478852e-04 1.23738972099992e-05
4.03319444444444e+01 6.78369429644554e-04 1.21687690038229e-05
4.05291666666667e+01 6.65490641230353e-04 1.19668982275184e-05
4.07263888888889e+01 6.52856355573003e-04 1.17682369886080e-05
4.09236111111111e+01 6.40461930807235e-04 1.15727380028823e-05
4.11208333333333e+01 6.28302813193181e-04 1.13803545674940e-05
4.13180555555556e+01 6.16374535443412e-04 1.11910405713537e-05
4.15152777777778e+01 6.04672715053718e-04 1.10047504714879e-05
4.17125000000000e+01 5.93193052777853e-04 1.08214393021614e-05
4.19097222222222e+01 5.81931330961796e-04 1.06410626843740e-05
4.21069444444444e+01 5.70883412023359e-04 1.04635768067739e-05
4.23041666666667e+01 5.60045236906681e-04 1.02889384102523e-05
4.25013888888889e+01 5.49412823668120e-04 1.01171047956510e-05
4.26986111111111e+01 5.38982265934901e-04 9.94803383182833e-06
4.28958333333333e+01 5.28749731496396e-04 9.78168393202672e-06
4.30930555555556e+01 5.18711460896227e-04 9.61801406099836e-06
4.32902777777778e+01 5.08863766028500e-04 9.45698371411991e-06
4.34875000000000e+01 4.99203028851283e-04 9.29855292354175e-06
4.36847222222222e+01 4.89725699987789e-04 9.14268226467881e-06
4.38819444444444e+01 4.80428297445872e-04 8.98933283918162e-06
4.40791666666667e+01 4.71307405318264e-04 8.83846626096345e-06
4.42763888888889e+01 4.62359672589902e-04 8.69004466131284e-06
4.44736111111111e+01 4.53581811843474e-04 8.54403069433177e-06
4.46708333333333e+01 4.44970598072996e-04 8.40038751627312e-06
4.48680555555556e+01 4.36522867498998e-04 8.25907879026225e-06
4.50652777777778e+01 4.28235516387924e-04 8.12006866794559e-06
4.52625000000000e+01 4.20105499967182e-04 7.98332179346290e-06
4.54597222222222e+01 4.12129831250283e-04 7.84880330772864e-06
4.56569444444444e+01 4.04305579958441e-04 7.71647883334159e-06
4.58541666666667e+01 3.96629871427425e-04 7.58631446203207e-06
4.60513888888889e+01 3.89099885601822e-04 7.45827675788105e-06
4.62486111111111e+01 3.81712855947760e-04 7.33233276083185e-06
4.64458333333333e+01 3.74466068453773e-04 7.20844996869158e-06
4.66430555555556e+01 3.67356860633709e-04 7.08659634009789e-06
4.68402777777778e+01 3.60382620533779e-04 6.96674027846373e-06
4.70375000000000e+01 3.53540785817743e-04 6.84885063436914e-06
4.72347222222222e+01 3.46828842780006e-04 6.73289670823031e-06
4.74319444444444e+01 3.40244325437473e-04 6.61884823699971e-06
4.76291666666667e+01 3.33784814610132e-04 6.50667538297413e-06
4.78263888888889e+01 3.27447937073083e-04 6.39634873564602e-06
4.80236111111111e+01 3.21231364643156e-04 6.28783931381515e-06
4.82208333333333e+01 3.15132813337534e-04 6.18111854995805e-06
4.84180555555556e+01 3.09150042534652e-04 6.07615829192654e-06
4.86152777777778e+01 3.03280854139028e-04 5.97293078895176e-06
4.88125000000000e+01 2.97523091810017e-04 5.87140869290148e-06
4.90097222222222e+01 2.91874640132686e-04 5.77156505978446e-06
4.92069444444444e+01 2.86333423853087e-04 5.67337333808095e-06
4.94041666666667e+01 2.80897407104920e-04 5.57680735882553e-06
4.96013888888889e+01 2.75564592694690e-04 5.48184133648186e-06
4.97986111111111e+01 2.70333021334301e-04 5.38844987004884e-06
4.99958333333333e+01 2.65200770932572e-04 5.29660792952277e-06
5.01930555555556e+01 2.60165955889086e-04 5.20629085668948e-06
5.03902777777778e+01 2.55226726391705e-04 5.11747435296017e-06
5.05875000000000e+01 2.50381267766448e-04 5.03013447982885e-06
5.07847222222222e+01 2.45627799780837e-04 4.94424765954572e-06
5.09819444444444e+01 2.40964575999968e-04 4.85979066491607e-06
5.11791666666667e+01 2.36389883136022e-04 4.77674061055688e-06
5.13763888888889e+01 2.31902040445719e-04 4.69507495308795e-06
5.15736111111111e+01 2.27499399085492e-04 4.61477149152704e-06
5.17708333333333e+01 2.23180341514929e-04 4.53580835558890e-06
5.19680555555556e+01 2.18943280902504e-04 4.45816400584425e-06
5.21652777777778e+01 2.14786660534680e-04 4.38181722317412e-06
5.23625000000000e+01 2.10708953267954e-04 4.30674710867346e-06
5.25597222222222e+01 2.06708660943441e-04 4.23293308374476e-06
5.27569444444444e+01 2.02784313844684e-04 4.16035488120816e-06
5.29541666666667e+01 1.98934470150486e-04 4.08899253762467e-06
5.31513888888889e+01 1.95157715427072e-04 4.01882639302083e-06
5.33486111111111e+01 1.91452662086208e-04 3.94983709079206e-06
5.35458333333333e+01 1.87817948882905e-04 3.88200556760856e-06
5.37430555555556e+01 1.84252240415310e-04 3.81531305314186e-06
5.39402777777778e+01 1.80754226627656e-04 3.74974106094196e-06
5.41375000000000e+01 1.77322622348455e-04 3.68527138797051e-06
5.43347222222222e+01 1.73956166798530e-04 3.62188611429992e-06
5.45319444444444e+01 1.70653623134491e-04 3.55956759538669e-06
5.47291666666667e+01 1.67413777988472e-04 3.49829845535484e-06
5.49263888888889e+01 1.64235441040151e-04 3.43806158641394e-06
5.51236111111111e+01 1.61117444561342e-04 3.37884014843297e-06
5.53208333333333e+01 1.58058642993080e-04 3.32061756024657e-06
5.55180555555556e+01 1.55057912524753e-04 3.26337749909749e-06
5.57152777777778e+01 1.52114150675978e-04 3.20710389275949e-06
5.59125000000000e+01 1.49226275907447e-04 3.15178091883406e-06
5.61097222222222e+01 1.46393227207438e-04 3.09739300419195e-06
5.63069444444444e+01 1.43613963707449e-04 3.04392481827290e-06
5.65041666666667e+01 1.40887464295013e-04 2.99136126722656e-06
5.67013888888889e+01 1.38212727253063e-04 2.93968749314089e-06
5.68986111111111e+01 1.35588769877162e-04 2.88888887340586e-06
5.70958333333333e+01 1.33014628119432e-04 2.83895101323634e-06
5.72930555555556e+01 1.30489356234374e-04 2.78985974493905e-06
5.74902777777778e+01 1.28012026427128e-04 2.74160112112198e-06
5.76875000000000e+01 1.25581728525570e-04 2.69416141385261e-06
5.78847222222222e+01 1.23197569632755e-04 2.64752711394147e-06
5.80819444444444e+01 1.20858673803315e-04 2.60168492514350e-06
5.82791666666667e+01 1.18564181717740e-04 2.55662175906034e-06
5.84763888888889e+01 1.16313250378518e-04 2.51232473426342e-06
5.86736111111111e+01 1.14105052788387e-04 2.46878117553443e-06
5.88708333333333e+01 1.11938777650556e-04 2.42597860744240e-06
5.90680555555556e+01 1.09813629070646e-04 2.38390475351394e-06
5.92652777777778e+01 1.07728826260789e-04 2.34254753038741e-06
5.94625000000000e+01 1.05683603263351e-04 2.30189504690263e-06
5.96597222222222e+01 1.03677208658780e-04 2.26193560329894e-06
5.98569444444444e+01 1.01708905293161e-04 2.22265768620542e-06
6.00541666666667e+01 9.97779700042129e-05 2.18404996421559e-06
6.02513888888889e+01 9.78836933652647e-05 2.14610128696549e-06
6.04486111111111e+01 9.60253794147993e-05 2.10880068431306e-06
6.06458333333333e+01 9.42023454040697e-05 2.07213736082699e-06
6.08430555555556e+01 9.24139215462627e-05 2.03610069491606e-06
6.10402777777778e+01 9.06594507675721e-05 2.00068023380327e-06
6.12375000000000e+01 8.89382884744355e-05 1.96586569259600e-06
6.14347222222222e+01 8.72498023079368e-05 1.93164695344988e-06
6.16319444444444e+01 8.55933719144434e-05 1.89801406124753e-06
6.18291666666667e+01 8.39683887150882e-05 1.86495721976447e-06
6.20263888888889e+01 8.23742556900855e-05 1.83246679074393e-06
6.22236111111111e+01 8.08103871513611e-05 1.80053329305952e-06
