Energy (eV)          EEDF (eV^-(3/2))     First Anisotropy
5.68750000000000e-02 9.24484793255724e-02 8.60380803993612e-05
1.70625000000000e-01 9.04715658128851e-02 1.41028390842018e-04
2.84375000000000e-01 8.85369265167857e-02 1.83425615925321e-04
3.98125000000000e-01 8.66436574475942e-02 2.14010451579186e-04
5.11875000000000e-01 8.47908739465101e-02 2.38207987464298e-04
6.25625000000000e-01 8.29777102722326e-02 2.58116586395735e-04
7.39375000000000e-01 8.12033191964289e-02 2.74845621530105e-04
8.53125000000000e-01 7.94668716078531e-02 2.89078845497203e-04
9.66875000000000e-01 7.77675561249318e-02 3.01278721757288e-04
1.08062500000000e+00 7.61045787166330e-02 3.11778317675409e-04
1.19437500000000e+00 7.44771623314436e-02 3.20828657449729e-04
1.30812500000000e+00 7.28845465342800e-02 3.28625554169645e-04
1.42187500000000e+00 7.13259871511630e-02 3.35325924264858e-04
1.53562500000000e+00 6.98007559214916e-02 3.41058263954763e-04
1.64937500000000e+00 6.83081401577518e-02 3.45929677354706e-04
1.76312500000000e+00 6.68474424125028e-02 3.50030763345650e-04
1.87687500000000e+00 6.54179801524836e-02 3.53439116993455e-04
1.99062500000000e+00 6.40190854396895e-02 3.56221903043230e-04
2.10437500000000e+00 6.26501046192676e-02 3.58437789365173e-04
2.21812500000000e+00 6.13103980140865e-02 3.60138427562033e-04
2.33187500000000e+00 5.99993396258379e-02 3.61369606009944e-04
2.44562500000000e+00 5.87163168425286e-02 3.62172161277419e-04
2.55937500000000e+00 5.74607301522289e-02 3.62582708199931e-04
2.67312500000000e+00 5.62319928629413e-02 3.62634231722186e-04
2.78687500000000e+00 5.50295308284596e-02 3.62356571889047e-04
2.90062500000000e+00 5.38527821800907e-02 3.61776825191354e-04
3.01437500000000e+00 5.27011970641122e-02 3.60919679675220e-04
3.12812500000000e+00 5.15742373848458e-02 3.59807697045923e-04
3.24187500000000e+00 5.04713765532232e-02 3.58461551943167e-04
3.35562500000000e+00 4.93920992407296e-02 3.56900236301608e-04
3.46937500000000e+00 4.83359011386085e-02 3.55141235013298e-04
3.58312500000000e+00 4.73022887222160e-02 3.53200677821459e-04
3.69687500000000e+00 4.62907790204136e-02 3.51093471388184e-04
3.81062500000000e+00 4.53008993898926e-02 3.48833414715103e-04
3.92437500000000e+00 4.43321872943248e-02 3.46433300499737e-04
4.03812500000000e+00 4.33841900882346e-02 3.43905004540586e-04
4.15187500000000e+00 4.24564648054941e-02 3.41259564931234e-04
4.26562500000000e+00 4.15485779523402e-02 3.38507252485709e-04
4.37937500000000e+00 4.06601053048180e-02 3.35657633597270e-04
4.49312500000000e+00 3.97906317105559e-02 3.32719626538248e-04
4.60687500000000e+00 3.89397508947790e-02 3.29701552049999e-04
4.72062500000000e+00 3.81070652704714e-02 3.26611178941791e-04
4.83437500000000e+00 3.72921857525973e-02 3.23455765310198e-04
4.94812500000000e+00 3.64947315762954e-02 3.20242095901560e-04
5.06187500000000e+00 3.57143301189605e-02 3.16976516065863e-04
5.17562500000000e+00 3.49506167261298e-02 3.13664962688381e-04
5.28937500000000e+00 3.42032345410928e-02 3.10312992433152e-04
5.40312500000000e+00 3.34718343381448e-02 3.06925807588294e-04
5.51687500000000e+00 3.27560743594050e-02 3.03508279765770e-04
5.63062500000000e+00 3.20556201551259e-02 3.00064971676342e-04
5.74437500000000e+00 3.13701444274161e-02 2.96600157173302e-04
5.85812500000000e+00 3.06993268773052e-02 2.93117839735115e-04
5.97187500000000e+00 3.00428540550797e-02 2.89621769537184e-04
6.08562500000000e+00 2.94004192138185e-02 2.86115459245522e-04
6.19937500000000e+00 2.87717221660609e-02 2.82602198650030e-04
6.31312500000000e+00 2.81564691435393e-02 2.79085068242159e-04
6.42687500000000e+00 2.75543726599116e-02 2.75566951830316e-04
6.54062500000000e+00 2.69651513764287e-02 2.72050548276398e-04
6.65437500000000e+00 2.63885299704751e-02 2.68538382428155e-04
6.76812500000000e+00 2.58242390069197e-02 2.65032815314489e-04
6.88187500000000e+00 2.52720148122182e-02 2.61536053663973e-04
6.99562500000000e+00 2.47315993512080e-02 2.58050158800962e-04
7.10937500000000e+00 2.42027401065371e-02 2.54577054968481e-04
7.22312500000000e+00 2.36851899606714e-02 2.51118537122266e-04
7.33687500000000e+00 2.31787070804255e-02 2.47676278236290e-04
7.45062500000000e+00 2.26830548039623e-02 2.44251836156396e-04
7.56437500000000e+00 2.21980015302092e-02 2.40846660035307e-04
7.67812500000000e+00 2.17233206106392e-02 2.37462096379414e-04
7.79187500000000e+00 2.12587902433653e-02 2.34099394735033e-04
7.90562500000000e+00 2.08041933695010e-02 2.30759713039459e-04
8.01937500000000e+00 2.03593175717356e-02 2.27444122660038e-04
8.13312500000000e+00 1.99239549750794e-02 2.24153613142548e-04
8.24687500000000e+00 1.94979021497306e-02 2.20889096688414e-04
8.36062500000000e+00 1.90809600160198e-02 2.17651412378724e-04
8.47437500000000e+00 1.86729337513870e-02 2.14441330161630e-04
8.58812500000000e+00 1.82736326993478e-02 2.11259554618365e-04
8.70187500000000e+00 1.78828702804063e-02 2.08106728521981e-04
8.81562500000000e+00 1.75004639048727e-02 2.04983436201842e-04
8.92937500000000e+00 1.71262348875460e-02 2.01890206725914e-04
9.04312500000000e+00 1.67600083642200e-02 1.98827516912015e-04
9.15687500000000e+00 1.64016132099759e-02 1.95795794178405e-04
9.27062500000000e+00 1.60508819592212e-02 1.92795419243320e-04
9.38437500000000e+00 1.57076507274392e-02 1.89826728682411e-04
9.49812500000000e+00 1.53717591346109e-02 1.86890017352383e-04
9.61187500000000e+00 1.50430502302757e-02 1.83985540688585e-04
9.72562500000000e+00 1.47213704201933e-02 1.81113516883808e-04
9.83937500000000e+00 1.44065693945749e-02 1.78274128954994e-04
9.95312500000000e+00 1.40985000578483e-02 1.75467526704161e-04
1.00668750000000e+01 1.37970184599256e-02 1.72693828579445e-04
1.01806250000000e+01 1.35019837289401e-02 1.69953123441756e-04
1.02943750000000e+01 1.32132580054216e-02 1.67245472242194e-04
1.04081250000000e+01 1.29307063778801e-02 1.64570909615049e-04
1.05218750000000e+01 1.26541968197656e-02 1.61929445390954e-04
1.06356250000000e+01 1.23836001277772e-02 1.59321066034401e-04
1.07493750000000e+01 1.21187898614908e-02 1.56745736009625e-04
1.08631250000000e+01 1.18596422842776e-02 1.54203399078620e-04
1.09768750000000e+01 1.16060363054866e-02 1.51693979534797e-04
1.10906250000000e+01 1.13578534238630e-02 1.49217383375613e-04
1.12043750000000e+01 1.11149776721768e-02 1.46773499417311e-04
1.13181250000000e+01 1.08772955630351e-02 1.44362200354690e-04
1.14318750000000e+01 1.06446960358538e-02 1.41983343768704e-04
1.15456250000000e+01 1.04170704049623e-02 1.39636773084512e-04
1.16593750000000e+01 1.01943123088191e-02 1.37322318482431e-04
1.17731250000000e+01 9.97631766031213e-03 1.35039797764152e-04
1.18868750000000e+01 9.76298459812292e-03 1.32789017176416e-04
1.20006250000000e+01 9.55421343913012e-03 1.30569772194227e-04
1.21143750000000e+01 9.34990663183113e-03 1.28381848265602e-04
1.22281250000000e+01 9.14996871075962e-03 1.26225021519705e-04
1.23418750000000e+01 8.95430625187790e-03 1.24099059440133e-04
1.24556250000000e+01 8.76282782892306e-03 1.22003721505045e-04
1.25693750000000e+01 8.57544397068668e-03 1.19938759795705e-04
1.26831250000000e+01 8.39206711920806e-03 1.17903919574957e-04
1.27968750000000e+01 8.21261158886140e-03 1.15898939837055e-04
1.29106250000000e+01 8.03699352631791e-03 1.13923553830197e-04
1.30243750000000e+01 7.86513087136406e-03 1.11977489553055e-04
1.31381250000000e+01 7.69694331855767e-03 1.10060470226523e-04
1.32518750000000e+01 7.53235227970403e-03 1.08172214741844e-04
1.33656250000000e+01 7.37128084713431e-03 1.06312438086200e-04
1.34793750000000e+01 7.21365375776929e-03 1.04480851746842e-04
1.35931250000000e+01 7.05939735795157e-03 1.02677164094732e-04
1.37068750000000e+01 6.90843956902977e-03 1.00901080748654e-04
1.38206250000000e+01 6.76070985367865e-03 9.91523049207049e-05
1.39343750000000e+01 6.61613918293951e-03 9.74305377439966e-05
1.40481250000000e+01 6.47466000396533e-03 9.57354785834155e-05
1.41618750000000e+01 6.33620620845570e-03 9.40668253301982e-05
1.42756250000000e+01 6.20071310176669e-03 9.24242746810743e-05
1.43893750000000e+01 6.06811737268128e-03 9.08075224026798e-05
1.45031250000000e+01 5.93835706382628e-03 8.92162635819072e-05
1.46168750000000e+01 5.81137154272175e-03 8.76501928628436e-05
1.47306250000000e+01 5.68710147344958e-03 8.61090046709079e-05
1.48443750000000e+01 5.56548878892788e-03 8.45923934247616e-05
1.49581250000000e+01 5.44647666377823e-03 8.31000537365565e-05
1.50718750000000e+01 5.33000948777317e-03 8.16316806010524e-05
1.51856250000000e+01 5.21603283985149e-03 8.01869695741045e-05
1.52993750000000e+01 5.10449346268913e-03 7.87656169410095e-05
1.54131250000000e+01 4.99533923781391e-03 7.73673198751683e-05
1.55268750000000e+01 4.88851916125237e-03 7.59917765875138e-05
1.56406250000000e+01 4.78398331969738e-03 7.46386864671153e-05
1.57543750000000e+01 4.68168286718540e-03 7.33077502133670e-05
1.58681250000000e+01 4.58157000227246e-03 7.19986699601439e-05
1.59818750000000e+01 4.48359794569818e-03 7.07111493922913e-05
1.60956250000000e+01 4.38772091852749e-03 6.94448938548044e-05
1.62093750000000e+01 4.29389412075972e-03 6.81996104550239e-05
1.63231250000000e+01 4.20207371039507e-03 6.69750081581760e-05
1.64368750000000e+01 4.11221678294881e-03 6.57707978765566e-05
1.65506250000000e+01 4.02428135140353e-03 6.45866925526589e-05
1.66643750000000e+01 3.93822632658999e-03 6.34224072365253e-05
1.67781250000000e+01 3.85401149798765e-03 6.22776591575833e-05
1.68918750000000e+01 3.77159751493566e-03 6.11521677912257e-05
1.70056250000000e+01 3.69094586824568e-03 6.00456549203866e-05
1.71193750000000e+01 3.61201887220786e-03 5.89578446923396e-05
1.72331250000000e+01 3.53477964698162e-03 5.78884636709426e-05
1.73468750000000e+01 3.45919210136300e-03 5.68372408845499e-05
1.74606250000000e+01 3.38522091592047e-03 5.58039078697915e-05
1.75743750000000e+01 3.31283152649141e-03 5.47881987114164e-05
1.76881250000000e+01 3.24199010803148e-03 5.37898500783922e-05
1.78018750000000e+01 3.17266355880932e-03 5.28086012564369e-05
1.79156250000000e+01 3.10481948493931e-03 5.18441941771548e-05
1.80293750000000e+01 3.03842618524499e-03 5.08963734439439e-05
1.81431250000000e+01 2.97345263644623e-03 4.99648863548263e-05
1.82568750000000e+01 2.90986847866312e-03 4.90494829223660e-05
1.83706250000000e+01 2.84764400122987e-03 4.81499158908040e-05
1.84843750000000e+01 2.78675012881201e-03 4.72659407505545e-05
1.85981250000000e+01 2.72715840782053e-03 4.63973157501950e-05
1.87118750000000e+01 2.66884099311652e-03 4.55438019060765e-05
1.88256250000000e+01 2.61177063500005e-03 4.47051630096777e-05
1.89393750000000e+01 2.55592066647740e-03 4.38811656328126e-05
1.90531250000000e+01 2.50126499080044e-03 4.30715791308076e-05
1.91668750000000e+01 2.44777806927258e-03 4.22761756437537e-05
1.92806250000000e+01 2.39543490931539e-03 4.14947300959335e-05
1.93943750000000e+01 2.34421105279044e-03 4.07270201935218e-05
1.95081250000000e+01 2.29408256457087e-03 3.99728264206540e-05
1.96218750000000e+01 2.24502602135737e-03 3.92319320339495e-05
1.97356250000000e+01 2.19701850073321e-03 3.85041230555745e-05
1.98493750000000e+01 2.15003757045346e-03 3.77891882649265e-05
1.99631250000000e+01 2.10406127796316e-03 3.70869191890223e-05
2.00768750000000e+01 2.05906814013964e-03 3.63971100916590e-05
2.01906250000000e+01 2.01503713325424e-03 3.57195579614190e-05
2.03043750000000e+01 1.97194768314859e-03 3.50540624985934e-05
2.04181250000000e+01 1.92977965562111e-03 3.44004261010826e-05
2.05318750000000e+01 1.88851334701890e-03 3.37584538493397e-05
2.06456250000000e+01 1.84812947503099e-03 3.31279534904179e-05
2.07593750000000e+01 1.80860916967835e-03 3.25087354211731e-05
2.08731250000000e+01 1.76993396449660e-03 3.19006126706828e-05
2.09868750000000e+01 1.73208578790727e-03 3.13034008819294e-05
2.11006250000000e+01 1.69504695477362e-03 3.07169182928000e-05
2.12143750000000e+01 1.65880015813693e-03 3.01409857164482e-05
2.13281250000000e+01 1.62332846112962e-03 2.95754265210648e-05
2.14418750000000e+01 1.58861528906120e-03 2.90200666091015e-05
2.15556250000000e+01 1.55464442167350e-03 2.84747343959863e-05
2.16693750000000e+01 1.52139998556153e-03 2.79392607883730e-05
2.17831250000000e+01 1.48886644675637e-03 2.74134791619615e-05
2.18968750000000e+01 1.45702860346667e-03 2.68972253389253e-05
2.20106250000000e+01 1.42587157897542e-03 2.63903375649794e-05
2.21243750000000e+01 1.39538081468857e-03 2.58926564861222e-05
2.22381250000000e+01 1.36554206333227e-03 2.54040251250850e-05
2.23518750000000e+01 1.33634138229564e-03 2.49242888575149e-05
2.24656250000000e+01 1.30776512711590e-03 2.44532953879196e-05
2.25793750000000e+01 1.27979994510273e-03 2.39908947254083e-05
2.26931250000000e+01 1.25243276909906e-03 2.35369391592434e-05
2.28068750000000e+01 1.22565081137523e-03 2.30912832342370e-05
2.29206250000000e+01 1.19944155765373e-03 2.26537837260120e-05
2.30343750000000e+01 1.17379276126173e-03 2.22242996161474e-05
2.31481250000000e+01 1.14869243740861e-03 2.18026920672334e-05
2.32618750000000e+01 1.12412885758589e-03 2.13888243978547e-05
2.33756250000000e+01 1.10009054408690e-03 2.09825620575206e-05
2.34893750000000e+01 1.07656626464369e-03 2.05837726015597e-05
2.36031250000000e+01 1.05354502717852e-03 2.01923256659982e-05
2.37168750000000e+01 1.03101607466769e-03 1.98080929424366e-05
2.38306250000000e+01 1.00896888011512e-03 1.94309481529404e-05
2.39443750000000e+01 9.87393141633487e-04 1.90607670249607e-05
2.40581250000000e+01 9.66278777630498e-04 1.86974272662965e-05
2.41718750000000e+01 9.45615922098099e-04 1.83408085401153e-05
2.42856250000000e+01 9.25394920002448e-04 1.79907924400407e-05
2.43993750000000e+01 9.05606322772448e-04 1.76472624653187e-05
2.45131250000000e+01 8.86240883884759e-04 1.73101039960793e-05
2.46268750000000e+01 8.67289554543219e-04 1.69792042686974e-05
2.47406250000000e+01 8.48743479450656e-04 1.66544523512657e-05
2.48543750000000e+01 8.30593992671116e-04 1.63357391191893e-05
2.49681250000000e+01 8.12832613580573e-04 1.60229572309097e-05
2.50818750000000e+01 7.95451042904227e-04 1.57160011037667e-05
2.51956250000000e+01 7.78441158838542e-04 1.54147668900079e-05
2.53093750000000e+01 7.61795013256211e-04 1.51191524529481e-05
2.54231250000000e+01 7.45504827992271e-04 1.48290573432899e-05
2.55368750000000e+01 7.29562991209636e-04 1.45443827756122e-05
2.56506250000000e+01 7.13962053842352e-04 1.42650316050275e-05
2.57643750000000e+01 6.98694726114908e-04 1.39909083040180e-05
2.58781250000000e+01 6.83753874135977e-04 1.37219189394554e-05
2.59918750000000e+01 6.69132516564992e-04 1.34579711498062e-05
2.61056250000000e+01 6.54823821350019e-04 1.31989741225295e-05
2.62193750000000e+01 6.40821102535364e-04 1.29448385716708e-05
2.63331250000000e+01 6.27117817137468e-04 1.26954767156545e-05
2.64468750000000e+01 6.13707562087595e-04 1.24508022552790e-05
2.65606250000000e+01 6.00584071239900e-04 1.22107303519192e-05
2.66743750000000e+01 5.87741212443476e-04 1.19751776059364e-05
2.67881250000000e+01 5.75172984677017e-04 1.17440620352996e-05
2.69018750000000e+01 5.62873515244746e-04 1.15173030544202e-05
2.70156250000000e+01 5.50837057032308e-04 1.12948214532037e-05
2.71293750000000e+01 5.39057985821348e-04 1.10765393763171e-05
2.72431250000000e+01 5.27530797661503e-04 1.08623803026756e-05
2.73568750000000e+01 5.16250106298603e-04 1.06522690251519e-05
2.74706250000000e+01 5.05210640657858e-04 1.04461316305032e-05
2.75843750000000e+01 4.94407242380871e-04 1.02438954795244e-05
2.76981250000000e+01 4.83834863415312e-04 1.00454891874225e-05
2.78118750000000e+01 4.73488563656144e-04 9.85084260441556e-06
2.79256250000000e+01 4.63363508637281e-04 9.65988679655638e-06
2.80393750000000e+01 4.53454967272608e-04 9.47255402678036e-06
2.81531250000000e+01 4.43758309645316e-04 9.28877773617873e-06
2.82668750000000e+01 4.34269004844494e-04 9.10849252549682e-06
2.83806250000000e+01 4.24982618847997e-04 8.93163413685599e-06
2.84943750000000e+01 4.15894812450583e-04 8.75813943570099e-06
2.86081250000000e+01 4.07001339236349e-04 8.58794639297128e-06
2.87218750000000e+01 3.98298043594530e-04 8.42099406749623e-06
2.88356250000000e+01 3.89780858777731e-04 8.25722258861259e-06
2.89493750000000e+01 3.81445805001668e-04 8.09657313900461e-06
2.90631250000000e+01 3.73288987585564e-04 7.93898793776585e-06
2.91768750000000e+01 3.65306595132291e-04 7.78441022368122e-06
2.92906250000000e+01 3.57494897747443e-04 7.63278423872900e-06
2.94043750000000e+01 3.49850245296482e-04 7.48405521180113e-06
2.95181250000000e+01 3.42369065699159e-04 7.33816934264066e-06
2.96318750000000e+01 3.35047863260406e-04 7.19507378599586e-06
2.97456250000000e+01 3.27883217036917e-04 7.05471663598922e-06
2.98593750000000e+01 3.20871779238660e-04 6.91704691069926e-06
2.99731250000000e+01 3.14010273664575e-04 6.78201453695530e-06
3.00868750000000e+01 3.07295494171714e-04 6.64957033534239e-06
3.02006250000000e+01 3.00724303177125e-04 6.51966600541546e-06
3.03143750000000e+01 2.94293630191770e-04 6.39225411112095e-06
3.04281250000000e+01 2.88000470385788e-04 6.26728806642477e-06
3.05418750000000e+01 2.81841883184445e-04 6.14472212114404e-06
3.06556250000000e+01 2.75814990894106e-04 6.02451134698151e-06
3.07693750000000e+01 2.69916977357588e-04 5.90661162376147e-06
3.08831250000000e+01 2.64145086638268e-04 5.79097962586381e-06
3.09968750000000e+01 2.58496621732329e-04 5.67757280885595e-06
3.11106250000000e+01 2.52968943308545e-04 5.56634939632007e-06
3.12243750000000e+01 2.47559468475013e-04 5.45726836687413e-06
3.13381250000000e+01 2.42265669572258e-04 5.35028944138448e-06
3.14518750000000e+01 2.37085072992141e-04 5.24537307036826e-06
3.15656250000000e+01 2.32015258022038e-04 5.14248042158397e-06
3.16793750000000e+01 2.27053855713713e-04 5.04157336780795e-06
3.17931250000000e+01 2.22198547776400e-04 4.94261447479486e-06
3.19068750000000e+01 2.17447065493543e-04 4.84556698942023e-06
3.20206250000000e+01 2.12797188662702e-04 4.75039482800363e-06
3.21343750000000e+01 2.08246744558134e-04 4.65706256480943e-06
3.22481250000000e+01 2.03793606915550e-04 4.56553542072391e-06
3.23618750000000e+01 1.99435694938586e-04 4.47577925210677e-06
3.24756250000000e+01 1.95170972326521e-04 4.38776053981470e-06
3.25893750000000e+01 1.90997446322784e-04 4.30144637839522e-06
3.27031250000000e+01 1.86913166783806e-04 4.21680446544858e-06
3.28168750000000e+01 1.82916225267790e-04 4.13380309115617e-06
3.29306250000000e+01 1.79004754142958e-04 4.05241112797260e-06
3.30443750000000e+01 1.75176925714874e-04 3.97259802048066e-06
3.31581250000000e+01 1.71430951372426e-04 3.89433377540622e-06
3.32718750000000e+01 1.67765080752070e-04 3.81758895179110e-06
3.33856250000000e+01 1.64177600919943e-04 3.74233465132248e-06
3.34993750000000e+01 1.60666835571476e-04 3.66854250881639e-06
3.36131250000000e+01 1.57231144248107e-04 3.59618468285376e-06
3.37268750000000e+01 1.53868921570757e-04 3.52523384656673e-06
3.38406250000000e+01 1.50578596489688e-04 3.45566317857295e-06
3.39543750000000e+01 1.47358631550411e-04 3.38744635405657e-06
3.40681250000000e+01 1.44207522175284e-04 3.32055753599377e-06
3.41818750000000e+01 1.41123795960475e-04 3.25497136652099e-06
3.42956250000000e+01 1.38106011987960e-04 3.19066295844337e-06
3.44093750000000e+01 1.35152760152231e-04 3.12760788688200e-06
3.45231250000000e+01 1.32262660501405e-04 3.06578218105838e-06
3.46368750000000e+01 1.29434362592418e-04 3.00516231621356e-06
3.47506250000000e+01 1.26666544860010e-04 2.94572520566028e-06
3.48643750000000e+01 1.23957913999206e-04 2.88744819296659e-06
3.49781250000000e+01 1.21307204360996e-04 2.83030904426864e-06
3.50918750000000e+01 1.18713177360944e-04 2.77428594071112e-06
3.52056250000000e+01 1.16174620900441e-04 2.71935747101352e-06
3.53193750000000e+01 1.13690348800330e-04 2.66550262416035e-06
3.54331250000000e+01 1.11259200246649e-04 2.61270078221351e-06
3.55468750000000e+01 1.08880039248222e-04 2.56093171324490e-06
3.56606250000000e+01 1.06551754105849e-04 2.51017556438802e-06
3.57743750000000e+01 1.04273256892848e-04 2.46041285500643e-06
3.58881250000000e+01 1.02043482946707e-04 2.41162446997721e-06
