Energy (eV)          EEDF (eV^-(3/2))     First Anisotropy
4.65714285714286e-04 3.88031175016409e+01 2.09745372484065e-02
1.39714285714286e-03 3.84215279507709e+01 3.45808769465553e-02
2.32857142857143e-03 3.80436909487603e+01 4.55077240646734e-02
3.26000000000000e-03 3.76695695928679e+01 5.37224476930401e-02
4.19142857142857e-03 3.72991273427194e+01 6.05024284048797e-02
5.12285714285714e-03 3.69323280189211e+01 6.63327614507473e-02
6.05428571428571e-03 3.65691357968902e+01 7.14655376618282e-02
6.98571428571429e-03 3.62095152043780e+01 7.60536098301399e-02
7.91714285714286e-03 3.58534311179765e+01 8.01987610161693e-02
8.84857142857143e-03 3.55008487597024e+01 8.39732160417565e-02
9.78000000000000e-03 3.51517336935819e+01 8.74306504005121e-02
1.07114285714286e-02 3.48060518217817e+01 9.06123857200143e-02
1.16428571428571e-02 3.44637693821400e+01 9.35511308837148e-02
1.25742857142857e-02 3.41248529468631e+01 9.62733682652870e-02
1.35057142857143e-02 3.37892694125869e+01 9.88009429657624e-02
1.44371428571429e-02 3.34569860036189e+01 1.01152159937776e-01
1.53685714285714e-02 3.31279702682389e+01 1.03342565133784e-01
1.63000000000000e-02 3.28021900705518e+01 1.05385514830296e-01
1.72314285714286e-02 3.24796135923444e+01 1.07292600229264e-01
1.81628571428571e-02 3.21602093283007e+01 1.09073970446681e-01
1.90942857142857e-02 3.18439460841855e+01 1.10738582118835e-01
2.00257142857143e-02 3.15307929699766e+01 1.12294394930144e-01
2.09571428571429e-02 3.12207194006955e+01 1.13748526921213e-01
2.18885714285714e-02 3.09136950931978e+01 1.15107379928923e-01
2.28200000000000e-02 3.06096900600208e+01 1.16376741040182e-01
2.37514285714286e-02 3.03086746096648e+01 1.17561865900193e-01
2.46828571428571e-02 3.00106193426147e+01 1.18667547926460e-01
2.56142857142857e-02 2.97154951493338e+01 1.19698176083172e-01
2.65457142857143e-02 2.94232732048024e+01 1.20657783277680e-01
2.74771428571429e-02 2.91339249683379e+01 1.21550087283380e-01
2.84085714285714e-02 2.88474221806813e+01 1.22378526065394e-01
2.93400000000000e-02 2.85637368589644e+01 1.23146287643958e-01
3.02714285714286e-02 2.82828412962615e+01 1.23856335874785e-01
3.12028571428571e-02 2.80047080581159e+01 1.24511432980850e-01
3.21342857142857e-02 2.77293099804991e+01 1.25114159163485e-01
3.30657142857143e-02 2.74566201652261e+01 1.25666929591543e-01
3.39971428571429e-02 2.71866119792725e+01 1.26172009273005e-01
3.49285714285714e-02 2.69192590520914e+01 1.26631526547562e-01
3.58600000000000e-02 2.66545352713243e+01 1.27047484670493e-01
3.67914285714286e-02 2.63924147819742e+01 1.27421772135104e-01
3.77228571428571e-02 2.61328719833017e+01 1.27756172037914e-01
3.86542857142857e-02 2.58758815268169e+01 1.28052370445163e-01
3.95857142857143e-02 2.56214183123145e+01 1.28311963757005e-01
4.05171428571429e-02 2.53694574869210e+01 1.28536465288782e-01
4.14485714285714e-02 2.51199744426111e+01 1.28727311531058e-01
4.23800000000000e-02 2.48729448124625e+01 1.28885867500104e-01
4.33114285714286e-02 2.46283444696254e+01 1.29013431616793e-01
4.42428571428571e-02 2.43861495245133e+01 1.29111240282215e-01
4.51742857142857e-02 2.41463363228608e+01 1.29180472037415e-01
4.61057142857143e-02 2.39088814422298e+01 1.29222251239157e-01
4.70371428571429e-02 2.36737616909132e+01 1.29237651385452e-01
4.79685714285714e-02 2.34409541056287e+01 1.29227698444663e-01
4.89000000000000e-02 2.32104359481975e+01 1.29193373641582e-01
4.98314285714286e-02 2.29821847044085e+01 1.29135616045594e-01
5.07628571428571e-02 2.27561780814550e+01 1.29055325079887e-01
5.16942857142857e-02 2.25323940060759e+01 1.28953362830443e-01
5.26257142857143e-02 2.23108106214372e+01 1.28830556075078e-01
5.35571428571429e-02 2.20914062859661e+01 1.28687698130795e-01
5.44885714285714e-02 2.18741595712058e+01 1.28525550813577e-01
5.54200000000000e-02 2.16590492588391e+01 1.28344846020595e-01
5.63514285714286e-02 2.14460543395051e+01 1.28146287224287e-01
5.72828571428571e-02 2.12351540104485e+01 1.27930550973154e-01
5.82142857142857e-02 2.10263276737517e+01 1.27698288284614e-01
5.91457142857143e-02 2.08195549335264e+01 1.27450125852311e-01
6.00771428571428e-02 2.06148155947231e+01 1.27186667147141e-01
6.10085714285714e-02 2.04120896611343e+01 1.26908493665295e-01
6.19400000000000e-02 2.02113573327056e+01 1.26616165887151e-01
6.28714285714286e-02 2.00125990043423e+01 1.26310224196917e-01
6.38028571428571e-02 1.98157952637458e+01 1.25991189843018e-01
6.47342857142857e-02 1.96209268897385e+01 1.25659565834674e-01
6.56657142857143e-02 1.94279748497199e+01 1.25315837702914e-01
6.65971428571429e-02 1.92369202984781e+01 1.24960474193015e-01
6.75285714285714e-02 1.90477445763304e+01 1.24593928110340e-01
6.84600000000000e-02 1.88604292066815e+01 1.24216636931200e-01
6.93914285714286e-02 1.86749558948417e+01 1.23829023397889e-01
7.03228571428571e-02 1.84913065260310e+01 1.23431496167301e-01
7.12542857142857e-02 1.83094631637970e+01 1.23024450418779e-01
7.21857142857143e-02 1.81294080476980e+01 1.22608268356077e-01
7.31171428571429e-02 1.79511235921372e+01 1.22183319661418e-01
7.40485714285714e-02 1.77745923846284e+01 1.21749962098071e-01
7.49800000000000e-02 1.75997971835700e+01 1.21308541915031e-01
7.59114285714286e-02 1.74267209170900e+01 1.20859394247550e-01
7.68428571428571e-02 1.72553466812010e+01 1.20402843574722e-01
7.77742857142857e-02 1.70856577383087e+01 1.19939204149381e-01
7.87057142857143e-02 1.69176375150954e+01 1.19468780341405e-01
7.96371428571429e-02 1.67512696013859e+01 1.18991866945354e-01
8.05685714285714e-02 1.65865377485323e+01 1.18508749627559e-01
8.15000000000000e-02 1.64234258673757e+01 1.18019705202509e-01
8.24314285714286e-02 1.62619180271286e+01 1.17525001911165e-01
8.33628571428571e-02 1.61019984536669e+01 1.17024899755611e-01
8.42942857142857e-02 1.59436515281259e+01 1.16519650813813e-01
8.52257142857143e-02 1.57868617849611e+01 1.16009499481376e-01
8.61571428571428e-02 1.56316139108541e+01 1.15494682685464e-01
8.70885714285714e-02 1.54778927432068e+01 1.14975430227608e-01
8.80200000000000e-02 1.53256832682709e+01 1.14451964977147e-01
8.89514285714286e-02 1.51749706200735e+01 1.13924503069640e-01
8.98828571428571e-02 1.50257400788334e+01 1.13393254158977e-01
9.08142857142857e-02 1.48779770696424e+01 1.12858421654590e-01
9.17457142857143e-02 1.47316671606830e+01 1.12320202895802e-01
9.26771428571428e-02 1.45867960621796e+01 1.11778789303627e-01
9.36085714285714e-02 1.44433496249944e+01 1.11234366650846e-01
9.45400000000000e-02 1.43013138389073e+01 1.10687115199945e-01
9.54714285714286e-02 1.41606748315875e+01 1.10137209847566e-01
9.64028571428571e-02 1.40214188671248e+01 1.09584820319221e-01
9.73342857142857e-02 1.38835323447908e+01 1.09030111352407e-01
9.82657142857143e-02 1.37470017973989e+01 1.08473242824822e-01
9.91971428571428e-02 1.36118138903030e+01 1.07914369863781e-01
1.00128571428571e-01 1.34779554200871e+01 1.07353643099146e-01
1.01060000000000e-01 1.33454133126947e+01 1.06791208586559e-01
1.01991428571429e-01 1.32141746238780e+01 1.06227208241695e-01
1.02922857142857e-01 1.30842265348935e+01 1.05661779733998e-01
1.03854285714286e-01 1.29555563549038e+01 1.05095056678867e-01
1.04785714285714e-01 1.28281515160650e+01 1.04527168883173e-01
1.05717142857143e-01 1.27019995750313e+01 1.03958241992187e-01
1.06648571428571e-01 1.25770882116831e+01 1.03388398280642e-01
1.07580000000000e-01 1.24534052253349e+01 1.02817756318585e-01
1.08511428571429e-01 1.23309385369693e+01 1.02246431163324e-01
1.09442857142857e-01 1.22096761847018e+01 1.01674534487389e-01
1.10374285714286e-01 1.20896063258998e+01 1.01102174646708e-01
1.11305714285714e-01 1.19707172328048e+01 1.00529456899800e-01
1.12237142857143e-01 1.18529972937840e+01 9.99564830745759e-02
1.13168571428571e-01 1.17364350121475e+01 9.93833522715549e-02
1.14100000000000e-01 1.16210190027508e+01 9.88101605490571e-02
1.15031428571429e-01 1.15067379938941e+01 9.82370010852516e-02
1.15962857142857e-01 1.13935808232694e+01 9.76639642827851e-02
1.16894285714286e-01 1.12815364397643e+01 9.70911378198313e-02
1.17825714285714e-01 1.11705938995454e+01 9.65186068384973e-02
1.18757142857143e-01 1.10607423671014e+01 9.59464536328072e-02
1.19688571428571e-01 1.09519711141422e+01 9.53747582769834e-02
1.20620000000000e-01 1.08442695165457e+01 9.48035983309643e-02
1.21551428571429e-01 1.07376270559757e+01 9.42330489787508e-02
1.22482857142857e-01 1.06320333162500e+01 9.36631831150383e-02
1.23414285714286e-01 1.05274779848781e+01 9.30940713836581e-02
1.24345714285714e-01 1.04239508495470e+01 9.25257823410248e-02
1.25277142857143e-01 1.03214417989913e+01 9.19583821654224e-02
1.26208571428571e-01 1.02199408219674e+01 9.13919352206497e-02
1.27140000000000e-01 1.01194380045021e+01 9.08265037818393e-02
1.28071428571429e-01 1.00199235312744e+01 9.02621481546996e-02
1.29002857142857e-01 9.92138768235069e+00 8.96989267480093e-02
1.29934285714286e-01 9.82382083449829e+00 8.91368961026152e-02
1.30865714285714e-01 9.72721345802487e+00 8.85761110343340e-02
1.31797142857143e-01 9.63155611750181e+00 8.80166243640275e-02
1.32728571428571e-01 9.53683947080984e+00 8.74584874249523e-02
1.33660000000000e-01 9.44305426665359e+00 8.69017498082888e-02
1.34591428571429e-01 9.35019134574222e+00 8.63464594667287e-02
1.35522857142857e-01 9.25824163784872e+00 8.57926627756962e-02
1.36454285714286e-01 9.16719616293294e+00 8.52404045552266e-02
1.37385714285714e-01 9.07704602829204e+00 8.46897281956814e-02
1.38317142857143e-01 8.98778242916153e+00 8.41406754077053e-02
1.39248571428571e-01 8.89939664782644e+00 8.35932866801948e-02
1.40180000000000e-01 8.81188005137146e+00 8.30476010446515e-02
1.41111428571429e-01 8.72522409269096e+00 8.25036561657438e-02
1.42042857142857e-01 8.63942030783418e+00 8.19614883934261e-02
1.42974285714286e-01 8.55446031696624e+00 8.14211327793755e-02
1.43905714285714e-01 8.47033582179366e+00 8.08826231881857e-02
1.44837142857143e-01 8.38703860606255e+00 8.03459920661155e-02
1.45768571428571e-01 8.30456053473056e+00 7.98112708554478e-02
1.46700000000000e-01 8.22289355192637e+00 7.92784897766082e-02
1.47631428571429e-01 8.14202968181449e+00 7.87476779077904e-02
1.48562857142857e-01 8.06196102619355e+00 7.82188632296230e-02
1.49494285714286e-01 7.98267976531932e+00 7.76920726374092e-02
1.50425714285714e-01 7.90417815557428e+00 7.71673320399189e-02
1.51357142857143e-01 7.82644852987911e+00 7.66446661457709e-02
1.52288571428571e-01 7.74948329692116e+00 7.61240988390886e-02
1.53220000000000e-01 7.67327493930058e+00 7.56056529782299e-02
1.54151428571429e-01 7.59781601427101e+00 7.50893504661460e-02
1.55082857142857e-01 7.52309915156309e+00 7.45752122888772e-02
1.56014285714286e-01 7.44911705408937e+00 7.40632585245568e-02
1.56945714285714e-01 7.37586249583116e+00 7.35535084315211e-02
1.57877142857143e-01 7.30332832217688e+00 7.30459802510987e-02
1.58808571428571e-01 7.23150744920308e+00 7.25406915487879e-02
1.59740000000000e-01 7.16039286198757e+00 7.20376590284710e-02
1.60671428571429e-01 7.08997761524373e+00 7.15368985948228e-02
1.61602857142857e-01 7.02025483134492e+00 7.10384253866715e-02
1.62534285714286e-01 6.95121770092823e+00 7.05422537834688e-02
1.63465714285714e-01 6.88285948097536e+00 7.00483974841280e-02
1.64397142857143e-01 6.81517349508911e+00 6.95568693250654e-02
1.65328571428571e-01 6.74815313282340e+00 6.90676815905244e-02
1.66260000000000e-01 6.68179184814603e+00 6.85808458411623e-02
1.67191428571429e-01 6.61608315998179e+00 6.80963729696013e-02
1.68122857142857e-01 6.55102065041666e+00 6.76142732294526e-02
1.69054285714286e-01 6.48659796521454e+00 6.71345562398345e-02
1.69985714285714e-01 6.42280881207195e+00 6.66572310561010e-02
1.70917142857143e-01 6.35964696084225e+00 6.61823060019906e-02
1.71848571428571e-01 6.29710624291117e+00 6.57097889522925e-02
1.72780000000000e-01 6.23518054979418e+00 6.52396871747134e-02
1.73711428571429e-01 6.17386383360124e+00 6.47720073794738e-02
1.74642857142857e-01 6.11315010540207e+00 6.43067557446834e-02
1.75574285714286e-01 6.05303343566828e+00 6.38439379193002e-02
1.76505714285714e-01 5.99350795268387e+00 6.33835590867541e-02
1.77437142857143e-01 5.93456784272536e+00 6.29256238101435e-02
1.78368571428571e-01 5.87620734947973e+00 6.24701362899864e-02
1.79300000000000e-01 5.81842077276295e+00 6.20171002183817e-02
1.80231428571429e-01 5.76120246891742e+00 6.15665188234138e-02
1.81162857142857e-01 5.70454684932196e+00 6.11183948913825e-02
1.82094285714286e-01 5.64844838076969e+00 6.06727307685635e-02
1.83025714285714e-01 5.59290158401873e+00 6.02295284185639e-02
1.83957142857143e-01 5.53790103393505e+00 5.97887892795429e-02
1.84888571428571e-01 5.48344135894984e+00 5.93505144995203e-02
1.85820000000000e-01 5.42951723988757e+00 5.89147048018592e-02
1.86751428571429e-01 5.37612341030530e+00 5.84813605251153e-02
1.87682857142857e-01 5.32325465513314e+00 5.80504816425890e-02
1.88614285714286e-01 5.27090581099669e+00 5.76220677631295e-02
1.89545714285714e-01 5.21907176489410e+00 5.71961181829374e-02
1.90477142857143e-01 5.16774745430747e+00 5.67726317538882e-02
1.91408571428571e-01 5.11692786669692e+00 5.63516070985411e-02
1.92340000000000e-01 5.06660803842776e+00 5.59330424860674e-02
1.93271428571429e-01 5.01678305505969e+00 5.55169358680929e-02
1.94202857142857e-01 4.96744805010493e+00 5.51032848959206e-02
1.95134285714286e-01 4.91859820530287e+00 5.46920869206094e-02
1.96065714285714e-01 4.87022874941127e+00 5.42833390398352e-02
1.96997142857143e-01 4.82233495829108e+00 5.38770379764282e-02
1.97928571428571e-01 4.77491215443475e+00 5.34731802750162e-02
1.98860000000000e-01 4.72795570598319e+00 5.30717621875820e-02
1.99791428571429e-01 4.68146102697169e+00 5.26727797057506e-02
2.00722857142857e-01 4.63542357619449e+00 5.22762285760089e-02
2.01654285714286e-01 4.58983885743820e+00 5.18821042992011e-02
2.02585714285714e-01 4.54470241837614e+00 5.14904021729916e-02
2.03517142857143e-01 4.50000985063085e+00 5.11011171798249e-02
2.04448571428571e-01 4.45575678933434e+00 5.07142441668980e-02
2.05380000000000e-01 4.41193891222643e+00 5.03297777405921e-02
2.06311428571429e-01 4.36855193986342e+00 4.99477122955991e-02
2.07242857142857e-01 4.32559163457900e+00 4.95680420283999e-02
2.08174285714286e-01 4.28305380068202e+00 4.91907609363222e-02
2.09105714285714e-01 4.24093428344434e+00 4.88158628560582e-02
2.10037142857143e-01 4.19922896914462e+00 4.84433413602929e-02
2.10968571428571e-01 4.15793378465820e+00 4.80731899225560e-02
2.11900000000000e-01 4.11704469662955e+00 4.77054018198124e-02
2.12831428571429e-01 4.07655771164878e+00 4.73399701587824e-02
2.13762857142857e-01 4.03646887529978e+00 4.69768878878980e-02
2.14694285714286e-01 3.99677427232733e+00 4.66161477960214e-02
2.15625714285714e-01 3.95747002570974e+00 4.62577425474315e-02
2.16557142857143e-01 3.91855229668694e+00 4.59016645864396e-02
2.17488571428571e-01 3.88001728437807e+00 4.55479062884766e-02
2.18420000000000e-01 3.84186122502130e+00 4.51964598702070e-02
2.19351428571429e-01 3.80408039212253e+00 4.48473174133464e-02
2.20282857142857e-01 3.76667109558288e+00 4.45004708752734e-02
2.21214285714286e-01 3.72962968183924e+00 4.41559120875081e-02
2.22145714285714e-01 3.69295253301394e+00 4.38136327875146e-02
2.23077142857143e-01 3.65663606692977e+00 4.34736245306676e-02
2.24008571428571e-01 3.62067673675334e+00 4.31358788288266e-02
2.24940000000000e-01 3.58507103029640e+00 4.28003870673610e-02
2.25871428571429e-01 3.54981547014046e+00 4.24671405267278e-02
2.26802857142857e-01 3.51490661283642e+00 4.21361303919190e-02
2.27734285714286e-01 3.48034104902220e+00 4.18073477507438e-02
2.28665714285714e-01 3.44611540264251e+00 4.14807836227810e-02
2.29597142857143e-01 3.41222633095301e+00 4.11564288781158e-02
2.30528571428571e-01 3.37867052418768e+00 4.08342743644914e-02
2.31460000000000e-01 3.34544470491621e+00 4.05143108307186e-02
2.32391428571429e-01 3.31254562814790e+00 4.01965289462398e-02
2.33322857142857e-01 3.27997008059695e+00 3.98809193095402e-02
2.34254285714286e-01 3.24771488078031e+00 3.95674724463063e-02
2.35185714285714e-01 3.21577687830126e+00 3.92561788357969e-02
2.36117142857143e-01 3.18415295384461e+00 3.89470288358098e-02
2.37048571428571e-01 3.15284001886648e+00 3.86400127994276e-02
2.37980000000000e-01 3.12183501500292e+00 3.83351210042964e-02
2.38911428571429e-01 3.09113491415590e+00 3.80323436703812e-02
2.39842857142857e-01 3.06073671781844e+00 3.77316709674710e-02
2.40774285714286e-01 3.03063745715538e+00 3.74330930132468e-02
2.41705714285714e-01 3.00083419234524e+00 3.71365998973223e-02
2.42637142857143e-01 2.97132401256796e+00 3.68421816119582e-02
2.43568571428571e-01 2.94210403571565e+00 3.65498281592964e-02
2.44500000000000e-01 2.91317140784796e+00 3.62595294860452e-02
2.45431428571429e-01 2.88452330326273e+00 3.59712754996129e-02
2.46362857142857e-01 2.85615692387566e+00 3.56850560748048e-02
2.47294285714286e-01 2.82806949928642e+00 3.54008610518422e-02
2.48225714285714e-01 2.80025828617358e+00 3.51186802582934e-02
2.49157142857143e-01 2.77272056827639e+00 3.48385034450777e-02
2.50088571428571e-01 2.74545365612506e+00 3.45603203850123e-02
2.51020000000000e-01 2.71845488653886e+00 3.42841208124828e-02
2.51951428571429e-01 2.69172162268363e+00 3.40098944381068e-02
2.52882857142857e-01 2.66525125350123e+00 3.37376309547166e-02
2.53814285714286e-01 2.63904119376302e+00 3.34673200353612e-02
2.54745714285714e-01 2.61308888351328e+00 3.31989513533200e-02
2.55677142857143e-01 2.58739178804624e+00 3.29325145229839e-02
2.56608571428571e-01 2.56194739765448e+00 3.26679991904624e-02
2.57540000000000e-01 2.53675322716631e+00 3.24053949778358e-02
2.58471428571429e-01 2.51180681599184e+00 3.21446914965053e-02
2.59402857142857e-01 2.48710572759802e+00 3.18858783525363e-02
2.60334285714286e-01 2.46264754955122e+00 3.16289451446547e-02
2.61265714285714e-01 2.43842989300505e+00 3.13738814825400e-02
2.62197142857143e-01 2.41445039267360e+00 3.11206769321941e-02
2.63128571428571e-01 2.39070670659669e+00 3.08693210992735e-02
2.64060000000000e-01 2.36719651571332e+00 3.06198035775739e-02
2.64991428571429e-01 2.34391752389791e+00 3.03721139611885e-02
2.65922857142857e-01 2.32086745747701e+00 3.01262418492872e-02
2.66854285714286e-01 2.29804406526262e+00 2.98821768441248e-02
2.67785714285714e-01 2.27544511808050e+00 2.96399085677707e-02
2.68717142857143e-01 2.25306840874054e+00 2.93994266116099e-02
2.69648571428571e-01 2.23091175181780e+00 2.91607206130144e-02
2.70580000000000e-01 2.20897298325892e+00 2.89237802077400e-02
2.71511428571429e-01 2.18724996041001e+00 2.86885950409953e-02
2.72442857142857e-01 2.16574056157150e+00 2.84551547717196e-02
2.73374285714286e-01 2.14444268602351e+00 2.82234490706246e-02
2.74305714285714e-01 2.12335425359130e+00 2.79934676354886e-02
2.75237142857143e-01 2.10247320461345e+00 2.77652001444815e-02
2.76168571428571e-01 2.08179749973756e+00 2.75386363267358e-02
2.77100000000000e-01 2.06132511955706e+00 2.73137659183358e-02
2.78031428571429e-01 2.04105406463184e+00 2.70905786724074e-02
2.78962857142857e-01 2.02098235507813e+00 2.68690643629503e-02
2.79894285714286e-01 2.00110803058700e+00 2.66492127829216e-02
2.80825714285714e-01 1.98142915002394e+00 2.64310137582277e-02
2.81757142857143e-01 1.96194379139537e+00 2.62144571045717e-02
2.82688571428571e-01 1.94265005165814e+00 2.59995326924314e-02
2.83620000000000e-01 1.92354604638407e+00 2.57862304063621e-02
2.84551428571429e-01 1.90462990977459e+00 2.55745401542017e-02
2.85482857142857e-01 1.88589979428258e+00 2.53644518705031e-02
2.86414285714286e-01 1.86735387062517e+00 2.51559555146683e-02
2.87345714285714e-01 1.84899032741445e+00 2.49490410837536e-02
2.88277142857143e-01 1.83080737112299e+00 2.47436985725656e-02
2.89208571428571e-01 1.81280322590606e+00 2.45399180335084e-02
2.90140000000000e-01 1.79497613329180e+00 2.43376895389476e-02
2.91071428571429e-01 1.77732435219071e+00 2.41370031896103e-02
2.92002857142857e-01 1.75984615854680e+00 2.39378491176582e-02
2.92934285714286e-01 1.74253984534557e+00 2.37402174848760e-02
2.93865714285714e-01 1.72540372227336e+00 2.35440984944027e-02
