Energy (eV)          EEDF (eV^-(3/2))     First Anisotropy
2.68627450980392e-02 5.03566554689035e-02 2.64534480882252e-05
8.05882352941177e-02 5.00166441886003e-02 4.36815380465250e-05
1.34313725490196e-01 4.96789286867602e-02 5.76629284519769e-05
1.88039215686275e-01 4.93434934590510e-02 6.82836974217378e-05
2.41764705882353e-01 4.90103231116825e-02 7.71407225444925e-05
2.95490196078431e-01 4.86794023516803e-02 8.48376504198378e-05
3.49215686274510e-01 4.83507159894916e-02 9.16868134040041e-05
4.02941176470588e-01 4.80242489382653e-02 9.78767871548524e-05
4.56666666666667e-01 4.76999862122953e-02 1.03532616723884e-04
5.10392156862745e-01 4.73779129286742e-02 1.08742666148906e-04
5.64117647058824e-01 4.70580143041079e-02 1.13572335936336e-04
6.17843137254902e-01 4.67402756551213e-02 1.18071769764446e-04
6.71568627450980e-01 4.64246823974038e-02 1.22280500837414e-04
7.25294117647059e-01 4.61112200446813e-02 1.26230409976680e-04
7.79019607843137e-01 4.57998742094280e-02 1.29947693194645e-04
8.32745098039216e-01 4.54906306007703e-02 1.33454217960904e-04
8.86470588235294e-01 4.51834750243259e-02 1.36768486211642e-04
9.40196078431373e-01 4.48783933815603e-02 1.39906336021465e-04
9.93921568627451e-01 4.45753716688255e-02 1.42881463687724e-04
1.04764705882353e+00 4.42743959788071e-02 1.45705820532718e-04
1.10137254901961e+00 4.39754524954239e-02 1.48389918457994e-04
1.15509803921569e+00 4.36785274970899e-02 1.50943068958787e-04
1.20882352941176e+00 4.33836073548679e-02 1.53373573513449e-04
1.26254901960784e+00 4.30906785318442e-02 1.55688875914437e-04
1.31627450980392e+00 4.27997275825072e-02 1.57895685985927e-04
1.37000000000000e+00 4.25107411521302e-02 1.60000081230162e-04
1.42372549019608e+00 4.22237059741166e-02 1.62007589751930e-04
1.47745098039216e+00 4.19386088756217e-02 1.63923260659132e-04
1.53117647058824e+00 4.16554367706049e-02 1.65751723254961e-04
1.58490196078431e+00 4.13741766613839e-02 1.67497235703094e-04
1.63862745098039e+00 4.10948156380384e-02 1.69163727474816e-04
1.69235294117647e+00 4.08173408778172e-02 1.70754835417978e-04
1.74607843137255e+00 4.05417396445493e-02 1.72273934792468e-04
1.79980392156863e+00 4.02679992880600e-02 1.73724166111860e-04
1.85352941176471e+00 3.99961072435895e-02 1.75108458469574e-04
1.90725490196078e+00 3.97260510312162e-02 1.76429549901292e-04
1.96098039215686e+00 3.94578182552844e-02 1.77690005235446e-04
2.01470588235294e+00 3.91913966038345e-02 1.78892231804040e-04
2.06843137254902e+00 3.89267738480385e-02 1.80038493322169e-04
2.12215686274510e+00 3.86639378416383e-02 1.81130922193270e-04
2.17588235294118e+00 3.84028765203884e-02 1.82171530455273e-04
2.22960784313725e+00 3.81435779015018e-02 1.83162219548750e-04
2.28333333333333e+00 3.78860300831003e-02 1.84104789060170e-04
2.33705882352941e+00 3.76302212436681e-02 1.85000944570189e-04
2.39078431372549e+00 3.73761396415091e-02 1.85852304717927e-04
2.44450980392157e+00 3.71237736142080e-02 1.86660407576027e-04
2.49823529411765e+00 3.68731115780948e-02 1.87426716417975e-04
2.55196078431373e+00 3.66241420277134e-02 1.88152624948048e-04
2.60568627450980e+00 3.63768535352933e-02 1.88839462054711e-04
2.65941176470588e+00 3.61312347502252e-02 1.89488496140147e-04
2.71313725490196e+00 3.58872743985398e-02 1.90100939072024e-04
2.76686274509804e+00 3.56449612823904e-02 1.90677949797624e-04
2.82058823529412e+00 3.54042842795383e-02 1.91220637655222e-04
2.87431372549020e+00 3.51652323428438e-02 1.91730065414065e-04
2.92803921568627e+00 3.49277944997580e-02 1.92207252070047e-04
2.98176470588235e+00 3.46919598518192e-02 1.92653175420685e-04
3.03549019607843e+00 3.44577175741533e-02 1.93068774441073e-04
3.08921568627451e+00 3.42250569149759e-02 1.93454951479528e-04
3.14294117647059e+00 3.39939671950998e-02 1.93812574289643e-04
3.19666666666667e+00 3.37644378074443e-02 1.94142477913751e-04
3.25039215686275e+00 3.35364582165481e-02 1.94445466431073e-04
3.30411764705882e+00 3.33100179580863e-02 1.94722314582549e-04
3.35784313725490e+00 3.30851066383899e-02 1.94973769283017e-04
3.41156862745098e+00 3.28617139339683e-02 1.95200551030271e-04
3.46529411764706e+00 3.26398295910360e-02 1.95403355219759e-04
3.51901960784314e+00 3.24194434250416e-02 1.95582853372655e-04
3.57274509803922e+00 3.22005453202007e-02 1.95739694284318e-04
3.62647058823529e+00 3.19831252290309e-02 1.95874505099539e-04
3.68019607843137e+00 3.17671731718915e-02 1.95987892320311e-04
3.73392156862745e+00 3.15526792365246e-02 1.96080442751368e-04
3.78764705882353e+00 3.13396335776008e-02 1.96152724388222e-04
3.84137254901961e+00 3.11280264162668e-02 1.96205287252047e-04
3.89509803921569e+00 3.09178480396967e-02 1.96238664175353e-04
3.94882352941176e+00 3.07090888006465e-02 1.96253371541987e-04
4.00254901960784e+00 3.05017391170107e-02 1.96249909984829e-04
4.05627450980392e+00 3.02957894713829e-02 1.96228765044125e-04
4.11000000000000e+00 3.00912304106190e-02 1.96190407905792e-04
4.16372549019608e+00 2.98880525449149e-02 1.96135295637014e-04
4.21745098039216e+00 2.96862465488529e-02 1.96063871978535e-04
4.27117647058824e+00 2.94858031594830e-02 1.95976568108905e-04
4.32490196078431e+00 2.92867131763992e-02 1.95873802783790e-04
4.37862745098039e+00 2.90889674613174e-02 1.95755982929426e-04
4.43235294117647e+00 2.88925569376557e-02 1.95623504091293e-04
4.48607843137255e+00 2.86974725901180e-02 1.95476750860126e-04
4.53980392156863e+00 2.85037054642798e-02 1.95316097276765e-04
4.59352941176471e+00 2.83112466661777e-02 1.95141907217071e-04
4.64725490196078e+00 2.81200873619008e-02 1.94954534758177e-04
4.70098039215686e+00 2.79302187771853e-02 1.94754324527217e-04
4.75470588235294e+00 2.77416321970118e-02 1.94541612033557e-04
4.80843137254902e+00 2.75543189652054e-02 1.94316723985529e-04
4.86215686274510e+00 2.73682704840381e-02 1.94079978592507e-04
4.91588235294118e+00 2.71834782138343e-02 1.93831685853296e-04
4.96960784313726e+00 2.69999336725789e-02 1.93572147831461e-04
5.02333333333333e+00 2.68176284355279e-02 1.93301658918456e-04
5.07705882352941e+00 2.66365541348217e-02 1.93020506085198e-04
5.13078431372549e+00 2.64567024591011e-02 1.92728969122707e-04
5.18450980392157e+00 2.62780651531255e-02 1.92427320872391e-04
5.23823529411765e+00 2.61006340173944e-02 1.92115827446581e-04
5.29196078431373e+00 2.59244009077709e-02 1.91794748439814e-04
5.34568627450980e+00 2.57493577351076e-02 1.91464337131333e-04
5.39941176470588e+00 2.55754964648757e-02 1.91124840679308e-04
5.45313725490196e+00 2.54028091167960e-02 1.90776500307159e-04
5.50686274509804e+00 2.52312877644727e-02 1.90419551482434e-04
5.56058823529412e+00 2.50609245350294e-02 1.90054224088497e-04
5.61431372549020e+00 2.48917116087479e-02 1.89680742589559e-04
5.66803921568627e+00 2.47236412187094e-02 1.89299326189325e-04
5.72176470588235e+00 2.45567056504376e-02 1.88910188983454e-04
5.77549019607843e+00 2.43908972415450e-02 1.88513540106268e-04
5.82921568627451e+00 2.42262083813809e-02 1.88109583871919e-04
5.88294117647059e+00 2.40626315106823e-02 1.87698519910328e-04
5.93666666666667e+00 2.39001591212268e-02 1.87280543298074e-04
5.99039215686274e+00 2.37387837554880e-02 1.86855844684503e-04
6.04411764705882e+00 2.35784980062930e-02 1.86424610413308e-04
6.09784313725490e+00 2.34192945164830e-02 1.85987022639755e-04
6.15156862745098e+00 2.32611659785747e-02 1.85543259443728e-04
6.20529411764706e+00 2.31041051344259e-02 1.85093494938796e-04
6.25901960784314e+00 2.29481047749014e-02 1.84637899377522e-04
6.31274509803922e+00 2.27931577395428e-02 1.84176639253137e-04
6.36647058823529e+00 2.26392569162394e-02 1.83709877397732e-04
6.42019607843137e+00 2.24863952409020e-02 1.83237773077134e-04
6.47392156862745e+00 2.23345656971387e-02 1.82760482082627e-04
6.52764705882353e+00 2.21837613159325e-02 1.82278156819597e-04
6.58137254901961e+00 2.20339751753217e-02 1.81790946393270e-04
6.63509803921569e+00 2.18852004000822e-02 1.81298996691682e-04
6.68882352941176e+00 2.17374301614118e-02 1.80802450465945e-04
6.74254901960784e+00 2.15906576766168e-02 1.80301447407943e-04
6.79627450980392e+00 2.14448762088007e-02 1.79796124225569e-04
6.85000000000000e+00 2.13000790665549e-02 1.79286614779602e-04
6.90372549019608e+00 2.11562596034439e-02 1.78773049961171e-04
6.95745098039216e+00 2.10134112183278e-02 1.78255557889557e-04
7.01117647058824e+00 2.08715273544274e-02 1.77734264109144e-04
7.06490196078431e+00 2.07306014992349e-02 1.77209291456809e-04
7.11862745098039e+00 2.05906271842158e-02 1.76680760190287e-04
7.17235294117647e+00 2.04515979845112e-02 1.76148788048677e-04
7.22607843137255e+00 2.03135075186435e-02 1.75613490311154e-04
7.27980392156863e+00 2.01763494482231e-02 1.75074979853916e-04
7.33352941176471e+00 2.00401174776575e-02 1.74533367205520e-04
7.38725490196078e+00 1.99048053538627e-02 1.73988760600582e-04
7.44098039215686e+00 1.97704068659758e-02 1.73441266031942e-04
7.49470588235294e+00 1.96369158450700e-02 1.72890987301339e-04
7.54843137254902e+00 1.95043261638715e-02 1.72338026068675e-04
7.60215686274510e+00 1.93726317364782e-02 1.71782481899836e-04
7.65588235294118e+00 1.92418265180804e-02 1.71224452313251e-04
7.70960784313726e+00 1.91119045046836e-02 1.70664032825116e-04
7.76333333333333e+00 1.89828597328321e-02 1.70101316993401e-04
7.81705882352941e+00 1.88546862793364e-02 1.69536396460650e-04
7.87078431372549e+00 1.87273782610005e-02 1.68969360995625e-04
7.92450980392157e+00 1.86009298343519e-02 1.68400298533827e-04
7.97823529411765e+00 1.84753351953740e-02 1.67829295216919e-04
8.03196078431372e+00 1.83505885792389e-02 1.67256435431144e-04
8.08568627450980e+00 1.82266842600435e-02 1.66681801844708e-04
8.13941176470588e+00 1.81036165505462e-02 1.66105475444195e-04
8.19313725490196e+00 1.79813798019060e-02 1.65527535570022e-04
8.24686274509804e+00 1.78599684034233e-02 1.64948059951024e-04
8.30058823529412e+00 1.77393767822822e-02 1.64367124738080e-04
8.35431372549020e+00 1.76195994032949e-02 1.63784804536934e-04
8.40803921568627e+00 1.75006307686474e-02 1.63201172440212e-04
8.46176470588235e+00 1.73824654176474e-02 1.62616300058578e-04
8.51549019607843e+00 1.72650979264736e-02 1.62030257551167e-04
8.56921568627451e+00 1.71485229079266e-02 1.61443113655197e-04
8.62294117647059e+00 1.70327350111816e-02 1.60854935714925e-04
8.67666666666667e+00 1.69177289215431e-02 1.60265789709864e-04
8.73039215686275e+00 1.68034993602006e-02 1.59675740282293e-04
8.78411764705882e+00 1.66900410839866e-02 1.59084850764146e-04
8.83784313725490e+00 1.65773488851357e-02 1.58493183203226e-04
8.89156862745098e+00 1.64654175910457e-02 1.57900798388802e-04
8.94529411764706e+00 1.63542420640401e-02 1.57307755876583e-04
8.99901960784314e+00 1.62438172011322e-02 1.56714114013141e-04
9.05274509803922e+00 1.61341379337914e-02 1.56119929959744e-04
9.10647058823529e+00 1.60251992277096e-02 1.55525259715614e-04
9.16019607843137e+00 1.59169960825710e-02 1.54930158140659e-04
9.21392156862745e+00 1.58095235318221e-02 1.54334678977706e-04
9.26764705882353e+00 1.57027766424441e-02 1.53738874874186e-04
9.32137254901961e+00 1.55967505147260e-02 1.53142797403347e-04
9.37509803921569e+00 1.54914402820400e-02 1.52546497084993e-04
9.42882352941177e+00 1.53868411106182e-02 1.51950023405750e-04
9.48254901960784e+00 1.52829481993305e-02 1.51353424838860e-04
9.53627450980392e+00 1.51797567794643e-02 1.50756748863547e-04
9.59000000000000e+00 1.50772621145059e-02 1.50160042022274e-04
9.64372549019608e+00 1.49754594998172e-02 1.49563349823718e-04
9.69745098039216e+00 1.48743442627383e-02 1.48966716838225e-04
9.75117647058824e+00 1.47739117620524e-02 1.48370186793734e-04
9.80490196078431e+00 1.46741573878809e-02 1.47773802475338e-04
9.85862745098039e+00 1.45750765614710e-02 1.47177605781700e-04
9.91235294117647e+00 1.44766647349863e-02 1.46581637741669e-04
9.96607843137255e+00 1.43789173912975e-02 1.45985938530527e-04
1.00198039215686e+01 1.42818300437751e-02 1.45390547592814e-04
1.00735294117647e+01 1.41853982357966e-02 1.44795503370640e-04
1.01272549019608e+01 1.40896175413142e-02 1.44200843114821e-04
1.01809803921569e+01 1.39944835649021e-02 1.43606604169367e-04
1.02347058823529e+01 1.38999919389401e-02 1.43012823026799e-04
1.02884313725490e+01 1.38061383262402e-02 1.42419534704585e-04
1.03421568627451e+01 1.37129184188992e-02 1.41826773829914e-04
1.03958823529412e+01 1.36203279381012e-02 1.41234574294679e-04
1.04496078431373e+01 1.35283626339206e-02 1.40642969269003e-04
1.05033333333333e+01 1.34370182851277e-02 1.40051991213995e-04
1.05570588235294e+01 1.33462906989947e-02 1.39461671894769e-04
1.06107843137255e+01 1.32561757111038e-02 1.38872042393430e-04
1.06645098039216e+01 1.31666691851553e-02 1.38283132803905e-04
1.07182352941176e+01 1.30777670136042e-02 1.37694973200924e-04
1.07719607843137e+01 1.29894651149785e-02 1.37107593011835e-04
1.08256862745098e+01 1.29017594362000e-02 1.36521020380547e-04
1.08794117647059e+01 1.28146459515569e-02 1.35935283153869e-04
1.09331372549020e+01 1.27281206625193e-02 1.35350408566067e-04
1.09868627450980e+01 1.26421795975556e-02 1.34766423250041e-04
1.10405882352941e+01 1.25568188119496e-02 1.34183353247661e-04
1.10943137254902e+01 1.24720343876207e-02 1.33601224020329e-04
1.11480392156863e+01 1.23878224329431e-02 1.33020060459755e-04
1.12017647058824e+01 1.23041790825679e-02 1.32439886897910e-04
1.12554901960784e+01 1.22211004972450e-02 1.31860726830073e-04
1.13092156862745e+01 1.21385828643740e-02 1.31282603789593e-04
1.13629411764706e+01 1.20566223956358e-02 1.30705540778893e-04
1.14166666666667e+01 1.19752153290250e-02 1.30129559693280e-04
1.14703921568627e+01 1.18943579279375e-02 1.29554682211474e-04
1.15241176470588e+01 1.18140464809991e-02 1.28980929509541e-04
1.15778431372549e+01 1.17342773018944e-02 1.28408322269487e-04
1.16315686274510e+01 1.16550467291986e-02 1.27836880687890e-04
1.16852941176471e+01 1.15763511262091e-02 1.27266624484744e-04
1.17390196078431e+01 1.14981868807786e-02 1.26697572911780e-04
1.17927450980392e+01 1.14205504051491e-02 1.26129744498767e-04
1.18464705882353e+01 1.13434381364357e-02 1.25563157851192e-04
1.19001960784314e+01 1.12668465345069e-02 1.24997831130048e-04
1.19539215686275e+01 1.11907720837895e-02 1.24433781525070e-04
1.20076470588235e+01 1.11152112924475e-02 1.23871026066862e-04
1.20613725490196e+01 1.10401606922223e-02 1.23309581364958e-04
1.21150980392157e+01 1.09656168382727e-02 1.22749463615051e-04
1.21688235294118e+01 1.08915763090173e-02 1.22190688606107e-04
1.22225490196078e+01 1.08180357059779e-02 1.21633271727654e-04
1.22762745098039e+01 1.07449916536227e-02 1.21077227976783e-04
1.23300000000000e+01 1.06724407992117e-02 1.20522571725621e-04
1.23837254901961e+01 1.06003798132225e-02 1.19969317449576e-04
1.24374509803922e+01 1.05288053874484e-02 1.19417479251361e-04
1.24911764705882e+01 1.04577142366059e-02 1.18867070379012e-04
1.25449019607843e+01 1.03871030975938e-02 1.18318103967360e-04
1.25986274509804e+01 1.03169687293433e-02 1.17770592798062e-04
1.26523529411765e+01 1.02473079126697e-02 1.17224549305726e-04
1.27060784313725e+01 1.01781174501242e-02 1.16679985583772e-04
1.27598039215686e+01 1.01093941658474e-02 1.16136913390476e-04
1.28135294117647e+01 1.00411349054236e-02 1.15595344154921e-04
1.28672549019608e+01 9.97333653573609e-03 1.15055288763741e-04
1.29209803921569e+01 9.90599594534174e-03 1.14516758226707e-04
1.29747058823529e+01 9.83911004276307e-03 1.13979763240866e-04
1.30284313725490e+01 9.77267575792069e-03 1.13444313749160e-04
1.30821568627451e+01 9.70669004146458e-03 1.12910419618169e-04
1.31358823529412e+01 9.64114986463408e-03 1.12378090418102e-04
1.31896078431373e+01 9.57605221911882e-03 1.11847335427993e-04
1.32433333333333e+01 9.51139411692057e-03 1.11318163640591e-04
1.32970588235294e+01 9.44717259021644e-03 1.10790583767367e-04
1.33507843137255e+01 9.38338469122248e-03 1.10264604243611e-04
1.34045098039216e+01 9.32002749205832e-03 1.09740233032730e-04
1.34582352941176e+01 9.25709808507825e-03 1.09217478235160e-04
1.35119607843137e+01 9.19459358133354e-03 1.08696347688957e-04
1.35656862745098e+01 9.13251111185202e-03 1.08176848565316e-04
1.36194117647059e+01 9.07084782703299e-03 1.07658987988602e-04
1.36731372549020e+01 9.00960089651640e-03 1.07142772834546e-04
1.37268627450980e+01 8.94876750905296e-03 1.06628209734706e-04
1.37805882352941e+01 8.88834487237484e-03 1.06115305080522e-04
1.38343137254902e+01 8.82833021306802e-03 1.05604065027495e-04
1.38880392156863e+01 8.76872077644472e-03 1.05094495499558e-04
1.39417647058824e+01 8.70951382641699e-03 1.04586602193019e-04
1.39954901960784e+01 8.65070664537106e-03 1.04080390398416e-04
1.40492156862745e+01 8.59229653445669e-03 1.03575865553542e-04
1.41029411764706e+01 8.53428081221426e-03 1.03073032880090e-04
1.41566666666667e+01 8.47665681570771e-03 1.02571897015702e-04
1.42103921568627e+01 8.41942189998128e-03 1.02072462577100e-04
1.42641176470588e+01 8.36257343793809e-03 1.01574733976424e-04
1.43178431372549e+01 8.30610882021940e-03 1.01078715424712e-04
1.43715686274510e+01 8.25002545508515e-03 1.00584410935407e-04
1.44252941176471e+01 8.19432076829489e-03 1.00091824328016e-04
1.44790196078431e+01 8.13899220298960e-03 9.96009592315122e-05
1.45327450980392e+01 8.08403721957431e-03 9.91118189206695e-05
1.45864705882353e+01 8.02945329597409e-03 9.86244068228944e-05
1.46401960784314e+01 7.97523792639443e-03 9.81387261847880e-05
1.46939215686275e+01 7.92138862233635e-03 9.76547797344727e-05
1.47476470588235e+01 7.86790291210335e-03 9.71725701976968e-05
1.48013725490196e+01 7.81477834068799e-03 9.66921001291633e-05
1.48550980392157e+01 7.76201246965904e-03 9.62133719155226e-05
1.49088235294118e+01 7.70960287704977e-03 9.57363877783117e-05
1.49625490196078e+01 7.65754715724674e-03 9.52611497770287e-05
1.50162745098039e+01 7.60584292087940e-03 9.47876598120615e-05
1.50700000000000e+01 7.55448779471033e-03 9.43159194742812e-05
1.51237254901961e+01 7.50347942186208e-03 9.38459305098594e-05
1.51774509803922e+01 7.45281546069626e-03 9.33776945141093e-05
1.52311764705882e+01 7.40249358572437e-03 9.29112126214128e-05
1.52849019607843e+01 7.35251148715977e-03 9.24464859785635e-05
1.53386274509804e+01 7.30286687081161e-03 9.19835155897731e-05
1.53923529411765e+01 7.25355745797948e-03 9.15223023192643e-05
1.54460784313725e+01 7.20458098534888e-03 9.10628468937413e-05
1.54998039215686e+01 7.15593520488742e-03 9.06051499049617e-05
1.55535294117647e+01 7.10761788374155e-03 9.01492118122926e-05
1.56072549019608e+01 7.05962680413411e-03 8.96950328043874e-05
1.56609803921569e+01 7.01195976356537e-03 8.92426132257953e-05
1.57147058823529e+01 6.96461457379827e-03 8.87919532956541e-05
1.57684313725490e+01 6.91758906167672e-03 8.83430528228052e-05
1.58221568627451e+01 6.87088106871793e-03 8.78959116402342e-05
1.58758823529412e+01 6.82448845101327e-03 8.74505294625795e-05
1.59296078431373e+01 6.77840907912990e-03 8.70069058883514e-05
1.59833333333333e+01 6.73264083801295e-03 8.65650404020141e-05
1.60370588235294e+01 6.68718162688863e-03 8.61249323761763e-05
1.60907843137255e+01 6.64202935916771e-03 8.56865810737893e-05
1.61445098039216e+01 6.59718196234971e-03 8.52499855208921e-05
1.61982352941176e+01 6.55263737820145e-03 8.48151448983855e-05
1.62519607843137e+01 6.50839356183717e-03 8.43820582834522e-05
1.63056862745098e+01 6.46444848245456e-03 8.39507243876664e-05
1.63594117647059e+01 6.42080012296342e-03 8.35211419559621e-05
1.64131372549020e+01 6.37744647989306e-03 8.30933096355513e-05
1.64668627450980e+01 6.33438556330032e-03 8.26672259778763e-05
1.65205882352941e+01 6.29161539667815e-03 8.22428894403522e-05
1.65743137254902e+01 6.24913401686511e-03 8.18202983881968e-05
1.66280392156863e+01 6.20693947395515e-03 8.13994510963591e-05
1.66817647058824e+01 6.16502983120809e-03 8.09803457512366e-05
1.67354901960784e+01 6.12340316496073e-03 8.05629803345076e-05
1.67892156862745e+01 6.08205756478367e-03 8.01473529802820e-05
1.68429411764706e+01 6.04099113265431e-03 7.97334617391466e-05
1.68966666666667e+01 6.00020198361303e-03 7.93213043391644e-05
1.69503921568627e+01 5.95968824542761e-03 7.89108785495849e-05
