Energy (eV)          EEDF (eV^-(3/2))     First Anisotropy
2.64893617021277e-02 5.80460596710044e-02 3.17379046220806e-05
7.94680851063830e-02 5.76212108299353e-02 5.23926426866839e-05
1.32446808510638e-01 5.71994715272756e-02 6.91227553482522e-05
1.85425531914894e-01 5.67808190069211e-02 8.18075412739449e-05
2.38404255319149e-01 5.63652306731532e-02 9.23659662934992e-05
2.91382978723404e-01 5.59526841010084e-02 1.01524035405665e-04
3.44361702127660e-01 5.55431570268322e-02 1.09657687498481e-04
3.97340425531915e-01 5.51366273492672e-02 1.16994076393323e-04
4.50319148936170e-01 5.47330731309688e-02 1.23683943309423e-04
5.03297872340426e-01 5.43324725931107e-02 1.29833891260743e-04
5.56276595744681e-01 5.39348041181020e-02 1.35522879059609e-04
6.09255319148936e-01 5.35400462455763e-02 1.40811491332919e-04
6.62234042553192e-01 5.31481776717161e-02 1.45747528255588e-04
7.15212765957447e-01 5.27591772498714e-02 1.50369566022716e-04
7.68191489361702e-01 5.23730239870030e-02 1.54709325362504e-04
8.21170212765957e-01 5.19896970448137e-02 1.58793304597813e-04
8.74148936170213e-01 5.16091757369437e-02 1.62643940023143e-04
9.27127659574468e-01 5.12314395280602e-02 1.66280450968349e-04
9.80106382978723e-01 5.08564680339710e-02 1.69719469336975e-04
1.03308510638298e+00 5.04842410206557e-02 1.72975518274424e-04
1.08606382978723e+00 5.01147383969073e-02 1.76061379478861e-04
1.13904255319149e+00 4.97479402259638e-02 1.78988382552248e-04
1.19202127659574e+00 4.93838267133194e-02 1.81766635609355e-04
1.24500000000000e+00 4.90223782065266e-02 1.84405206938194e-04
1.29797872340426e+00 4.86635752029278e-02 1.86912275924908e-04
1.35095744680851e+00 4.83073983368513e-02 1.89295255143866e-04
1.40393617021277e+00 4.79538283899222e-02 1.91560891189595e-04
1.45691489361702e+00 4.76028462815507e-02 1.93715350481167e-04
1.50989361702128e+00 4.72544330684924e-02 1.95764288034427e-04
1.56287234042553e+00 4.69085699509760e-02 1.97712908442060e-04
1.61585106382979e+00 4.65652382643343e-02 1.99566017818881e-04
1.66882978723404e+00 4.62244194784735e-02 2.01328065521148e-04
1.72180851063830e+00 4.58860952031678e-02 2.03003182694835e-04
1.77478723404255e+00 4.55502471806009e-02 2.04595215666115e-04
1.82776595744681e+00 4.52168572847757e-02 2.06107752405879e-04
1.88074468085106e+00 4.48859075261320e-02 2.07544148112842e-04
1.93372340425532e+00 4.45573800448330e-02 2.08907547678999e-04
1.98670212765957e+00 4.42312571101338e-02 2.10200903068409e-04
2.03968085106383e+00 4.39075211244414e-02 2.11426991001307e-04
2.09265957446809e+00 4.35861546172214e-02 2.12588428661173e-04
2.14563829787234e+00 4.32671402443384e-02 2.13687685415199e-04
2.19861702127660e+00 4.29504607916496e-02 2.14727095470374e-04
2.25159574468085e+00 4.26360991694354e-02 2.15708869223231e-04
2.30457446808511e+00 4.23240384117218e-02 2.16635101323865e-04
2.35755319148936e+00 4.20142616794789e-02 2.17507780010538e-04
2.41053191489362e+00 4.17067522554998e-02 2.18328795549526e-04
2.46351063829787e+00 4.14014935437125e-02 2.19099945862108e-04
2.51648936170213e+00 4.10984690720398e-02 2.19822943593776e-04
2.56946808510638e+00 4.07976624876670e-02 2.20499422550894e-04
2.62244680851064e+00 4.04990575563477e-02 2.21130941660573e-04
2.67542553191489e+00 4.02026381649715e-02 2.21718990450745e-04
2.72840425531915e+00 3.99083883171737e-02 2.22264994071288e-04
2.78138297872340e+00 3.96162921326356e-02 2.22770316087853e-04
2.83436170212766e+00 3.93263338493994e-02 2.23236262819186e-04
2.88734042553192e+00 3.90384978197802e-02 2.23664087334326e-04
2.94031914893617e+00 3.87527685096635e-02 2.24054991415234e-04
2.99329787234043e+00 3.84691305005992e-02 2.24410129054674e-04
3.04627659574468e+00 3.81875684859810e-02 2.24730609696691e-04
3.09925531914894e+00 3.79080672703451e-02 2.25017499597251e-04
3.15223404255319e+00 3.76306117712689e-02 2.25271824693334e-04
3.20521276595745e+00 3.73551870157897e-02 2.25494573273441e-04
3.25819148936170e+00 3.70817781397067e-02 2.25686696896414e-04
3.31117021276596e+00 3.68103703893064e-02 2.25849112781051e-04
3.36414893617021e+00 3.65409491179970e-02 2.25982706039902e-04
3.41712765957447e+00 3.62734997856148e-02 2.26088330270184e-04
3.47010638297872e+00 3.60080079599960e-02 2.26166809571806e-04
3.52308510638298e+00 3.57444593138048e-02 2.26218940441289e-04
3.57606382978723e+00 3.54828396238476e-02 2.26245492116996e-04
3.62904255319149e+00 3.52231347725055e-02 2.26247208305006e-04
3.68202127659574e+00 3.49653307447400e-02 2.26224808804643e-04
3.73500000000000e+00 3.47094136274145e-02 2.26178989668379e-04
3.78797872340426e+00 3.44553696106026e-02 2.26110424840213e-04
3.84095744680851e+00 3.42031849840995e-02 2.26019766983476e-04
3.89393617021277e+00 3.39528461393811e-02 2.25907648228706e-04
3.94691489361702e+00 3.37043395668493e-02 2.25774681624248e-04
3.99989361702128e+00 3.34576518551701e-02 2.25621461072104e-04
4.05287234042553e+00 3.32127696924202e-02 2.25448562532127e-04
4.10585106382979e+00 3.29696798634733e-02 2.25256545164250e-04
4.15882978723404e+00 3.27283692493491e-02 2.25045951175960e-04
4.21180851063830e+00 3.24888248282628e-02 2.24817306891474e-04
4.26478723404255e+00 3.22510336731412e-02 2.24571123767615e-04
4.31776595744681e+00 3.20149829509828e-02 2.24307898174168e-04
4.37074468085106e+00 3.17806599238193e-02 2.24028112350772e-04
4.42372340425532e+00 3.15480519463518e-02 2.23732235317465e-04
4.47670212765957e+00 3.13171464653220e-02 2.23420722604266e-04
4.52968085106383e+00 3.10879310203938e-02 2.23094017113704e-04
4.58265957446809e+00 3.08603932419006e-02 2.22752549942670e-04
4.63563829787234e+00 3.06345208502280e-02 2.22396740073908e-04
4.68861702127660e+00 3.04103016566221e-02 2.22026995158619e-04
4.74159574468085e+00 3.01877235610405e-02 2.21643712262888e-04
4.79457446808511e+00 2.99667745515467e-02 2.21247277530993e-04
4.84755319148936e+00 2.97474427050506e-02 2.20838066899644e-04
4.90053191489362e+00 2.95297161852574e-02 2.20416446779828e-04
4.95351063829787e+00 2.93135832420716e-02 2.19982773699678e-04
5.00648936170213e+00 2.90990322122784e-02 2.19537394959771e-04
5.05946808510638e+00 2.88860515175809e-02 2.19080649259215e-04
5.11244680851064e+00 2.86746296640167e-02 2.18612866324172e-04
5.16542553191489e+00 2.84647552425822e-02 2.18134367511869e-04
5.21840425531915e+00 2.82564169273554e-02 2.17645466388334e-04
5.27138297872340e+00 2.80496034749224e-02 2.17146468347378e-04
5.32436170212766e+00 2.78443037249511e-02 2.16637671169594e-04
5.37734042553191e+00 2.76405065983932e-02 2.16119365557894e-04
5.43031914893617e+00 2.74382010969212e-02 2.15591834750741e-04
5.48329787234043e+00 2.72373763034552e-02 2.15055355041477e-04
5.53627659574468e+00 2.70380213804392e-02 2.14510196276619e-04
5.58925531914894e+00 2.68401255692891e-02 2.13956621466429e-04
5.64223404255319e+00 2.66436781908756e-02 2.13394887269089e-04
5.69521276595745e+00 2.64486686438716e-02 2.12825244455966e-04
5.74819148936170e+00 2.62550864042094e-02 2.12247937521882e-04
5.80117021276596e+00 2.60629210255250e-02 2.11663205137989e-04
5.85414893617021e+00 2.58721621375705e-02 2.11071280587559e-04
5.90712765957447e+00 2.56827994456825e-02 2.10472391377858e-04
5.96010638297872e+00 2.54948227311891e-02 2.09866759664976e-04
6.01308510638298e+00 2.53082218498849e-02 2.09254602663229e-04
6.06606382978723e+00 2.51229867315096e-02 2.08636132260069e-04
6.11904255319149e+00 2.49391073801210e-02 2.08011555415676e-04
6.17202127659575e+00 2.47565738726292e-02 2.07381074548525e-04
6.22500000000000e+00 2.45753763582851e-02 2.06744887154627e-04
6.27797872340426e+00 2.43955050590219e-02 2.06103186264373e-04
6.33095744680851e+00 2.42169502677644e-02 2.05456160485436e-04
6.38393617021277e+00 2.40397023490534e-02 2.04803994028440e-04
6.43691489361702e+00 2.38637517376662e-02 2.04146867143838e-04
6.48989361702128e+00 2.36890889381214e-02 2.03484955747252e-04
6.54287234042553e+00 2.35157045249788e-02 2.02818431764378e-04
6.59585106382979e+00 2.33435891415106e-02 2.02147463464307e-04
6.64882978723404e+00 2.31727334992168e-02 2.01472215091349e-04
6.70180851063830e+00 2.30031283780988e-02 2.00792847192141e-04
6.75478723404255e+00 2.28347646253792e-02 2.00109516931846e-04
6.80776595744681e+00 2.26676331550273e-02 1.99422377732891e-04
6.86074468085106e+00 2.25017249480083e-02 1.98731579585730e-04
6.91372340425532e+00 2.23370310510499e-02 1.98037269349274e-04
6.96670212765958e+00 2.21735425761767e-02 1.97339590396924e-04
7.01968085106383e+00 2.20112507009381e-02 1.96638682912256e-04
7.07265957446809e+00 2.18501466672178e-02 1.95934684174863e-04
7.12563829787234e+00 2.16902217807787e-02 1.95227728213940e-04
7.17861702127660e+00 2.15314674114696e-02 1.94517946090054e-04
7.23159574468085e+00 2.13738749920762e-02 1.93805466167500e-04
7.28457446808511e+00 2.12174360178767e-02 1.93090413775542e-04
7.33755319148936e+00 2.10621420468275e-02 1.92372911477261e-04
7.39053191489362e+00 2.09079846984560e-02 1.91653079329416e-04
7.44351063829787e+00 2.07549556534236e-02 1.90931034551445e-04
7.49648936170213e+00 2.06030466536953e-02 1.90206891782329e-04
7.54946808510638e+00 2.04522495014689e-02 1.89480763328782e-04
7.60244680851064e+00 2.03025560587486e-02 1.88752758842045e-04
7.65542553191489e+00 2.01539582474968e-02 1.88022985563542e-04
7.70840425531915e+00 2.00064480486004e-02 1.87291548562251e-04
7.76138297872340e+00 1.98600175014532e-02 1.86558550419319e-04
7.81436170212766e+00 1.97146587040918e-02 1.85824091463104e-04
7.86734042553192e+00 1.95703638121976e-02 1.85088269996524e-04
7.92031914893617e+00 1.94271250386867e-02 1.84351181989438e-04
7.97329787234043e+00 1.92849346538325e-02 1.83612921303737e-04
8.02627659574468e+00 1.91437849843007e-02 1.82873579911303e-04
8.07925531914894e+00 1.90036684127474e-02 1.82133247594081e-04
8.13223404255319e+00 1.88645773779287e-02 1.81392012159834e-04
8.18521276595745e+00 1.87265043737674e-02 1.80649959651282e-04
8.23819148936170e+00 1.85894419489595e-02 1.79907174053751e-04
8.29117021276596e+00 1.84533827070719e-02 1.79163737502200e-04
8.34414893617021e+00 1.83183193056386e-02 1.78419730482018e-04
8.39712765957447e+00 1.81842444557764e-02 1.77675231544173e-04
8.45010638297872e+00 1.80511509222701e-02 1.76930317503979e-04
8.50308510638298e+00 1.79190315226992e-02 1.76185063634033e-04
8.55606382978723e+00 1.77878791270603e-02 1.75439543386734e-04
8.60904255319149e+00 1.76576866578429e-02 1.74693828585280e-04
8.66202127659574e+00 1.75284470891828e-02 1.73947989609208e-04
8.71500000000000e+00 1.74001534464936e-02 1.73202095124119e-04
8.76797872340425e+00 1.72727988065317e-02 1.72456212313338e-04
8.82095744680851e+00 1.71463762964343e-02 1.71710406863973e-04
8.87393617021277e+00 1.70208790939305e-02 1.70964742944246e-04
8.92691489361702e+00 1.68963004265374e-02 1.70219283428846e-04
8.97989361702128e+00 1.67726335712039e-02 1.69474089639110e-04
9.03287234042553e+00 1.66498718543630e-02 1.68729221515969e-04
9.08585106382979e+00 1.65280086511526e-02 1.67984737788092e-04
9.13882978723404e+00 1.64070373850679e-02 1.67240695718984e-04
9.19180851063830e+00 1.62869515280042e-02 1.66497151273586e-04
9.24478723404255e+00 1.61677445995030e-02 1.65754159280257e-04
9.29776595744681e+00 1.60494101664110e-02 1.65011773184601e-04
9.35074468085107e+00 1.59319418429154e-02 1.64270045210044e-04
9.40372340425532e+00 1.58153332898137e-02 1.63529026513922e-04
9.45670212765958e+00 1.56995782141791e-02 1.62788766947902e-04
9.50968085106383e+00 1.55846703693898e-02 1.62049315212861e-04
9.56265957446809e+00 1.54706035544197e-02 1.61310719009325e-04
9.61563829787234e+00 1.53573716135124e-02 1.60573024804355e-04
9.66861702127660e+00 1.52449684362026e-02 1.59836277980962e-04
9.72159574468085e+00 1.51333879566293e-02 1.59100522983188e-04
9.77457446808511e+00 1.50226241532162e-02 1.58365803089311e-04
9.82755319148936e+00 1.49126710486870e-02 1.57632160555998e-04
9.88053191489362e+00 1.48035227093993e-02 1.56899636758346e-04
9.93351063829787e+00 1.46951732450322e-02 1.56168271969176e-04
9.98648936170213e+00 1.45876168085953e-02 1.55438105422499e-04
1.00394680851064e+01 1.44808475959939e-02 1.54709175564633e-04
1.00924468085106e+01 1.43748598453986e-02 1.53981520324049e-04
1.01454255319149e+01 1.42696478361214e-02 1.53255175890499e-04
1.01984042553191e+01 1.41652058914208e-02 1.52530177564815e-04
1.02513829787234e+01 1.40615283750579e-02 1.51806560536004e-04
1.03043617021277e+01 1.39586096920470e-02 1.51084359108136e-04
1.03573404255319e+01 1.38564442873733e-02 1.50363606022672e-04
1.04103191489362e+01 1.37550266486553e-02 1.49644333198607e-04
1.04632978723404e+01 1.36543513028623e-02 1.48926572479297e-04
1.05162765957447e+01 1.35544128170213e-02 1.48210354888190e-04
1.05692553191489e+01 1.34552057969917e-02 1.47495709975971e-04
1.06222340425532e+01 1.33567248899942e-02 1.46782666532018e-04
1.06752127659574e+01 1.32589647814801e-02 1.46071253302317e-04
1.07281914893617e+01 1.31619201957979e-02 1.45361498272872e-04
1.07811702127660e+01 1.30655858950216e-02 1.44653428040712e-04
1.08341489361702e+01 1.29699566813537e-02 1.43947068497975e-04
1.08871276595745e+01 1.28750273941381e-02 1.43242445521977e-04
1.09401063829787e+01 1.27807929104896e-02 1.42539583967061e-04
1.09930851063830e+01 1.26872481450195e-02 1.41838508334450e-04
1.10460638297872e+01 1.25943880487244e-02 1.41139241835695e-04
1.10990425531915e+01 1.25022076112382e-02 1.40441807041729e-04
1.11520212765957e+01 1.24107018580187e-02 1.39746226538047e-04
1.12050000000000e+01 1.23198658509334e-02 1.39052522268738e-04
1.12579787234043e+01 1.22296946871972e-02 1.38360714960030e-04
1.13109574468085e+01 1.21401835015131e-02 1.37670824744618e-04
1.13639361702128e+01 1.20513274633861e-02 1.36982871791965e-04
1.14169148936170e+01 1.19631217776763e-02 1.36296875676460e-04
1.14698936170213e+01 1.18755616835816e-02 1.35612854821821e-04
1.15228723404255e+01 1.17886424566742e-02 1.34930827101803e-04
1.15758510638298e+01 1.17023594063355e-02 1.34250810446659e-04
1.16288297872340e+01 1.16167078762771e-02 1.33572821953840e-04
1.16818085106383e+01 1.15316832442924e-02 1.32896878477027e-04
1.17347872340426e+01 1.14472809212906e-02 1.32222995799128e-04
1.17877659574468e+01 1.13634963532083e-02 1.31551189203020e-04
1.18407446808511e+01 1.12803250185887e-02 1.30881474047746e-04
1.18937234042553e+01 1.11977624290694e-02 1.30213865189445e-04
1.19467021276596e+01 1.11158041284572e-02 1.29548376471625e-04
1.19996808510638e+01 1.10344456945476e-02 1.28885021274400e-04
1.20526595744681e+01 1.09536827368113e-02 1.28223813069176e-04
1.21056382978723e+01 1.08735108968543e-02 1.27564764860643e-04
1.21586170212766e+01 1.07939258475321e-02 1.26907888695350e-04
1.22115957446809e+01 1.07149232946814e-02 1.26253196190460e-04
1.22645744680851e+01 1.06364989749092e-02 1.25600699067784e-04
1.23175531914894e+01 1.05586486560265e-02 1.24950408616021e-04
1.23705319148936e+01 1.04813681361997e-02 1.24302335216927e-04
1.24235106382979e+01 1.04046532456002e-02 1.23656488854449e-04
1.24764893617021e+01 1.03284998442896e-02 1.23012879628956e-04
1.25294680851064e+01 1.02529038226293e-02 1.22371517000261e-04
1.25824468085106e+01 1.01778611010611e-02 1.21732410287131e-04
1.26354255319149e+01 1.01033676292998e-02 1.21095567962643e-04
1.26884042553191e+01 1.00294193878844e-02 1.20460998138353e-04
1.27413829787234e+01 9.95601238617872e-03 1.19828709053464e-04
1.27943617021277e+01 9.88314266275537e-03 1.19198708581293e-04
1.28473404255319e+01 9.81080628462186e-03 1.18571003794045e-04
1.29003191489362e+01 9.73899934869849e-03 1.17945601429184e-04
1.29532978723404e+01 9.66771797990561e-03 1.17322508360609e-04
1.30062765957447e+01 9.59695833152596e-03 1.16701731122881e-04
1.30592553191489e+01 9.52671658446267e-03 1.16083275491416e-04
1.31122340425532e+01 9.45698894864804e-03 1.15467146931790e-04
1.31652127659574e+01 9.38777166121268e-03 1.14853351053698e-04
1.32181914893617e+01 9.31906098682786e-03 1.14241893152179e-04
1.32711702127660e+01 9.25085321699378e-03 1.13632777802711e-04
1.33241489361702e+01 9.18314467138276e-03 1.13026009294136e-04
1.33771276595745e+01 9.11593169608631e-03 1.12421592065930e-04
1.34301063829787e+01 9.04921066393895e-03 1.11819530062507e-04
1.34830851063830e+01 8.98297797432364e-03 1.11219827158078e-04
1.35360638297872e+01 8.91723005249436e-03 1.10622486554835e-04
1.35890425531915e+01 8.85196335084061e-03 1.10027511195013e-04
1.36420212765957e+01 8.78717434722832e-03 1.09434904177336e-04
1.36950000000000e+01 8.72285954530275e-03 1.08844668335527e-04
1.37479787234043e+01 8.65901547383821e-03 1.08256805865947e-04
1.38009574468085e+01 8.59563868794455e-03 1.07671318724760e-04
1.38539361702128e+01 8.53272576747772e-03 1.07088209029329e-04
1.39069148936170e+01 8.47027331732614e-03 1.06507478651651e-04
1.39598936170213e+01 8.40827796678648e-03 1.05929128859099e-04
1.40128723404255e+01 8.34673637071488e-03 1.05353160697270e-04
1.40658510638298e+01 8.28564520800395e-03 1.04779575376888e-04
1.41188297872340e+01 8.22500118185365e-03 1.04208373701307e-04
1.41718085106383e+01 8.16480101959435e-03 1.03639556442576e-04
1.42247872340426e+01 8.10504147209232e-03 1.03073123807490e-04
1.42777659574468e+01 8.04571931483465e-03 1.02509075802333e-04
1.43307446808511e+01 7.98683134648622e-03 1.01947412601482e-04
1.43837234042553e+01 7.92837438914342e-03 1.01388134173532e-04
1.44367021276596e+01 7.87034528776297e-03 1.00831239950676e-04
1.44896808510638e+01 7.81274091119764e-03 1.00276729180311e-04
1.45426595744681e+01 7.75555815081300e-03 9.97246012804765e-05
1.45956382978723e+01 7.69879392072730e-03 9.91748554791345e-05
1.46486170212766e+01 7.64244515726279e-03 9.86274904950766e-05
1.47015957446809e+01 7.58650881993471e-03 9.80825048769724e-05
1.47545744680851e+01 7.53098189012496e-03 9.75398973461363e-05
1.48075531914894e+01 7.47586137130901e-03 9.69996664484742e-05
1.48605319148936e+01 7.42114428852868e-03 9.64618102464914e-05
1.49135106382979e+01 7.36682768933669e-03 9.59263266462771e-05
1.49664893617021e+01 7.31290864252467e-03 9.53932137280578e-05
1.50194680851064e+01 7.25938423833784e-03 9.48624692559971e-05
1.50724468085106e+01 7.20625158831886e-03 9.43340909994691e-05
1.51254255319149e+01 7.15350782480514e-03 9.38080762755734e-05
1.51784042553191e+01 7.10115010182000e-03 9.32844222608343e-05
1.52313829787234e+01 7.04917559386605e-03 9.27631263063506e-05
1.52843617021277e+01 6.99758149612642e-03 9.22441856173888e-05
1.53373404255319e+01 6.94636502398145e-03 9.17275969697141e-05
1.53903191489362e+01 6.89552341386027e-03 9.12133570102454e-05
1.54432978723404e+01 6.84505392208304e-03 9.07014625610625e-05
1.54962765957447e+01 6.79495382505138e-03 9.01919103101917e-05
1.55492553191489e+01 6.74522041878366e-03 8.96846965377139e-05
1.56022340425532e+01 6.69585101972887e-03 8.91798174058138e-05
1.56552127659574e+01 6.64684296365552e-03 8.86772692520743e-05
1.57081914893617e+01 6.59819360583191e-03 8.81770482910122e-05
1.57611702127660e+01 6.54990032057918e-03 8.76791503496458e-05
1.58141489361702e+01 6.50196050204930e-03 8.71835711473449e-05
1.58671276595745e+01 6.45437156315852e-03 8.66903065787458e-05
1.59201063829787e+01 6.40713093575816e-03 8.61993522933772e-05
1.59730851063830e+01 6.36023607049651e-03 8.57107039706811e-05
1.60260638297872e+01 6.31368443639249e-03 8.52243569273316e-05
1.60790425531915e+01 6.26747352157029e-03 8.47403063841716e-05
1.61320212765957e+01 6.22160083224674e-03 8.42585477361829e-05
1.61850000000000e+01 6.17606389289118e-03 8.37790762774744e-05
1.62379787234043e+01 6.13086024581528e-03 8.33018869574996e-05
1.62909574468085e+01 6.08598745187552e-03 8.28269746386473e-05
1.63439361702128e+01 6.04144308950085e-03 8.23543343567714e-05
1.63969148936170e+01 5.99722475484406e-03 8.18839610556839e-05
1.64498936170213e+01 5.95333006138704e-03 8.14158493517169e-05
1.65028723404255e+01 5.90975664061266e-03 8.09499937823378e-05
1.65558510638298e+01 5.86650214107095e-03 8.04863890575711e-05
1.66088297872340e+01 5.82356422852241e-03 8.00250296858925e-05
1.66618085106383e+01 5.78094058581251e-03 7.95659102187260e-05
1.67147872340426e+01 5.73862891249494e-03 7.91090249008181e-05
