Energy (eV)          EEDF (eV^-(3/2))     First Anisotropy
4.17948717948718e-04 3.88230870216677e+01 1.98900844216560e-02
1.25384615384615e-03 3.84802857447176e+01 3.28094774847098e-02
2.08974358974359e-03 3.81405113452102e+01 4.32203856346210e-02
2.92564102564103e-03 3.78037370955635e+01 5.10739589242730e-02
3.76153846153846e-03 3.74699365059735e+01 5.75780228030174e-02
4.59743589743590e-03 3.71390833187500e+01 6.31905635397686e-02
5.43333333333333e-03 3.68111515088674e+01 6.81492414687939e-02
6.26923076923077e-03 3.64861152815698e+01 7.25979576464633e-02
7.10512820512820e-03 3.61639490689025e+01 7.66324022008521e-02
7.94102564102564e-03 3.58446275294731e+01 8.03203841390173e-02
8.77692307692308e-03 3.55281255449862e+01 8.37122296690289e-02
9.61282051282051e-03 3.52144182195097e+01 8.68466308343624e-02
1.04487179487179e-02 3.49034808770718e+01 8.97541755414870e-02
1.12846153846154e-02 3.45952890572816e+01 9.24595971500918e-02
1.21205128205128e-02 3.42898185197846e+01 9.49832726852001e-02
1.29564102564103e-02 3.39870452359416e+01 9.73422567887498e-02
1.37923076923077e-02 3.36869453877913e+01 9.95510161256478e-02
1.46282051282051e-02 3.33894953710100e+01 1.01621965616767e-01
1.54641025641026e-02 3.30946717879300e+01 1.03565868099930e-01
1.63000000000000e-02 3.28024514462323e+01 1.05392137274140e-01
1.71358974358974e-02 3.25128113610776e+01 1.07109072369382e-01
1.79717948717949e-02 3.22257287479909e+01 1.08724041765860e-01
1.88076923076923e-02 3.19411810261564e+01 1.10243628828078e-01
1.96435897435897e-02 3.16591458128492e+01 1.11673749441131e-01
2.04794871794872e-02 3.13796009220000e+01 1.13019746862294e-01
2.13153846153846e-02 3.11025243655210e+01 1.14286470074164e-01
2.21512820512820e-02 3.08278943483850e+01 1.15478338625621e-01
2.29871794871795e-02 3.05556892671715e+01 1.16599396212661e-01
2.38230769230769e-02 3.02858877109964e+01 1.17653356219497e-01
2.46589743589744e-02 3.00184684571009e+01 1.18643640260267e-01
2.54948717948718e-02 2.97534104693830e+01 1.19573410532089e-01
2.63307692307692e-02 2.94906928990347e+01 1.20445597999770e-01
2.71666666666667e-02 2.92302950805380e+01 1.21262926677572e-01
2.80025641025641e-02 2.89721965301930e+01 1.22027934215865e-01
2.88384615384615e-02 2.87163769465298e+01 1.22742990291360e-01
2.96743589743590e-02 2.84628162060125e+01 1.23410312454211e-01
3.05102564102564e-02 2.82114943640802e+01 1.24031980029216e-01
3.13461538461538e-02 2.79623916516147e+01 1.24609946600345e-01
3.21820512820513e-02 2.77154884735040e+01 1.25146050608186e-01
3.30179487179487e-02 2.74707654088050e+01 1.25642025150676e-01
3.38538461538462e-02 2.72282032074649e+01 1.26099506712191e-01
3.46897435897436e-02 2.69877827889114e+01 1.26520042589977e-01
3.55256410256410e-02 2.67494852420787e+01 1.26905097917924e-01
3.63615384615385e-02 2.65132918223530e+01 1.27256061979203e-01
3.71974358974359e-02 2.62791839501830e+01 1.27574253545669e-01
3.80333333333333e-02 2.60471432110001e+01 1.27860926084208e-01
3.88692307692308e-02 2.58171513519255e+01 1.28117272291601e-01
3.97051282051282e-02 2.55891902821362e+01 1.28344428204065e-01
4.05410256410256e-02 2.53632420700946e+01 1.28543477126272e-01
4.13769230769231e-02 2.51392889422040e+01 1.28715452855360e-01
4.22128205128205e-02 2.49173132826112e+01 1.28861342944456e-01
4.30487179487179e-02 2.46972976305948e+01 1.28982091691434e-01
4.38846153846154e-02 2.44792246792515e+01 1.29078602577666e-01
4.47205128205128e-02 2.42630772752308e+01 1.29151740808878e-01
4.55564102564103e-02 2.40488384162659e+01 1.29202335654506e-01
4.63923076923077e-02 2.38364912498896e+01 1.29231182319021e-01
4.72282051282051e-02 2.36260190731135e+01 1.29239043953374e-01
4.80641025641026e-02 2.34174053300888e+01 1.29226653516172e-01
4.89000000000000e-02 2.32106336108493e+01 1.29194715227314e-01
4.97358974358974e-02 2.30056876509465e+01 1.29143906212770e-01
5.05717948717949e-02 2.28025513289358e+01 1.29074877892690e-01
5.14076923076923e-02 2.26012086663185e+01 1.28988257266020e-01
5.22435897435897e-02 2.24016438253792e+01 1.28884648255089e-01
5.30794871794872e-02 2.22038411079777e+01 1.28764632679412e-01
5.39153846153846e-02 2.20077849551367e+01 1.28628771413403e-01
5.47512820512820e-02 2.18134599449806e+01 1.28477605469089e-01
5.55871794871795e-02 2.16208507915571e+01 1.28311656771335e-01
5.64230769230769e-02 2.14299423443970e+01 1.28131429120084e-01
5.72589743589744e-02 2.12407195865462e+01 1.27937409093105e-01
5.80948717948718e-02 2.10531676334165e+01 1.27730066667343e-01
5.89307692307692e-02 2.08672717323218e+01 1.27509856026978e-01
5.97666666666667e-02 2.06830172605984e+01 1.27277216324048e-01
6.06025641025641e-02 2.05003897244820e+01 1.27032572179231e-01
6.14384615384615e-02 2.03193747586268e+01 1.26776334389511e-01
6.22743589743590e-02 2.01399581240974e+01 1.26508900484286e-01
6.31102564102564e-02 1.99621257081113e+01 1.26230655244544e-01
6.39461538461538e-02 1.97858635222829e+01 1.25941971311650e-01
6.47820512820513e-02 1.96111577015471e+01 1.25643209538763e-01
6.56179487179487e-02 1.94379945036621e+01 1.25334719522312e-01
6.64538461538461e-02 1.92663603075254e+01 1.25016840105526e-01
6.72897435897436e-02 1.90962416121248e+01 1.24689899664273e-01
6.81256410256410e-02 1.89276250360310e+01 1.24354216567832e-01
6.89615384615384e-02 1.87604973157814e+01 1.24010099616379e-01
6.97974358974359e-02 1.85948453048572e+01 1.23657848273824e-01
7.06333333333333e-02 1.84306559731684e+01 1.23297753089133e-01
7.14692307692308e-02 1.82679164053368e+01 1.22930096002271e-01
7.23051282051282e-02 1.81066138003608e+01 1.22555150630136e-01
7.31410256410256e-02 1.79467354700989e+01 1.22173182639488e-01
7.39769230769231e-02 1.77882688382888e+01 1.21784449911322e-01
7.48128205128205e-02 1.76312014400297e+01 1.21389202866751e-01
7.56487179487179e-02 1.74755209203236e+01 1.20987684778102e-01
7.64846153846154e-02 1.73212150331196e+01 1.20580131902438e-01
7.73205128205128e-02 1.71682716407935e+01 1.20166773770854e-01
7.81564102564102e-02 1.70166787127437e+01 1.19747833464959e-01
7.89923076923077e-02 1.68664243244601e+01 1.19323527724962e-01
7.98282051282051e-02 1.67174966570024e+01 1.18894067207749e-01
8.06641025641026e-02 1.65698839956481e+01 1.18459656733998e-01
8.15000000000000e-02 1.64235747289848e+01 1.18020495375170e-01
8.23358974358974e-02 1.62785573483891e+01 1.17576776700478e-01
8.31717948717949e-02 1.61348204465986e+01 1.17128688935972e-01
8.40076923076923e-02 1.59923527173293e+01 1.16676415112559e-01
8.48435897435897e-02 1.58511429540008e+01 1.16220133290510e-01
8.56794871794872e-02 1.57111800488669e+01 1.15760016618114e-01
8.65153846153846e-02 1.55724529925008e+01 1.15296233526844e-01
8.73512820512820e-02 1.54349508725653e+01 1.14828947918908e-01
8.81871794871795e-02 1.52986628729659e+01 1.14358319212961e-01
8.90230769230769e-02 1.51635782733389e+01 1.13884502521146e-01
8.98589743589743e-02 1.50296864478645e+01 1.13407648819350e-01
9.06948717948718e-02 1.48969768644421e+01 1.12927904982088e-01
9.15307692307692e-02 1.47654390841813e+01 1.12445413943622e-01
9.23666666666667e-02 1.46350627602574e+01 1.11960314853170e-01
9.32025641025641e-02 1.45058376371063e+01 1.11472743100665e-01
9.40384615384615e-02 1.43777535499212e+01 1.10982830476805e-01
9.48743589743590e-02 1.42508004234494e+01 1.10490705263104e-01
9.57102564102564e-02 1.41249682715977e+01 1.09996492314854e-01
9.65461538461538e-02 1.40002471963485e+01 1.09500313209431e-01
9.73820512820513e-02 1.38766273869907e+01 1.09002286259409e-01
9.82179487179487e-02 1.37540991196258e+01 1.08502526640294e-01
9.90538461538461e-02 1.36326527561217e+01 1.08001146513838e-01
9.98897435897436e-02 1.35122787433624e+01 1.07498255000255e-01
1.00725641025641e-01 1.33929676130166e+01 1.06993958472271e-01
1.01561538461538e-01 1.32747099792447e+01 1.06488360328481e-01
1.02397435897436e-01 1.31574965406972e+01 1.05981561306356e-01
1.03233333333333e-01 1.30413180764771e+01 1.05473659479190e-01
1.04069230769231e-01 1.29261654487576e+01 1.04964750203646e-01
1.04905128205128e-01 1.28120295995607e+01 1.04454926656431e-01
1.05741025641026e-01 1.26989015501208e+01 1.03944279213008e-01
1.06576923076923e-01 1.25867724025116e+01 1.03432895959355e-01
1.07412820512821e-01 1.24756333358397e+01 1.02920862658939e-01
1.08248717948718e-01 1.23654756086096e+01 1.02408262789642e-01
1.09084615384615e-01 1.22562905550236e+01 1.01895177624686e-01
1.09920512820513e-01 1.21480695872671e+01 1.01381686266514e-01
1.10756410256410e-01 1.20408041919107e+01 1.00867865723851e-01
1.11592307692308e-01 1.19344859321191e+01 1.00353790843859e-01
1.12428205128205e-01 1.18291064448328e+01 9.98395347822402e-02
1.13264102564103e-01 1.17246574401738e+01 9.93251684397443e-02
1.14100000000000e-01 1.16211307028070e+01 9.88107609106990e-02
1.14935897435897e-01 1.15185180886125e+01 9.82963794454597e-02
1.15771794871795e-01 1.14168115266868e+01 9.77820894755629e-02
1.16607692307692e-01 1.13160030161048e+01 9.72679546787248e-02
1.17443589743590e-01 1.12160846278558e+01 9.67540369114288e-02
1.18279487179487e-01 1.11170485022991e+01 9.62403966340403e-02
1.19115384615385e-01 1.10188868486016e+01 9.57270923902317e-02
1.19951282051282e-01 1.09215919459217e+01 9.52141812126424e-02
1.20787179487179e-01 1.08251561404091e+01 9.47017185841465e-02
1.21623076923077e-01 1.07295718469612e+01 9.41897584564164e-02
1.22458974358974e-01 1.06348315463018e+01 9.36783533053299e-02
1.23294871794872e-01 1.05409277866807e+01 9.31675541479240e-02
1.24130769230769e-01 1.04478531810295e+01 9.26574105955305e-02
1.24966666666667e-01 1.03556004086061e+01 9.21479707880818e-02
1.25802564102564e-01 1.02641622127531e+01 9.16392817703583e-02
1.26638461538462e-01 1.01735314003731e+01 9.11313890208138e-02
1.27474358974359e-01 1.00837008429259e+01 9.06243368105022e-02
1.28310256410256e-01 9.99466347378634e+00 9.01181681640824e-02
1.29146153846154e-01 9.90641228974082e+00 8.96129248721937e-02
1.29982051282051e-01 9.81894034841261e+00 8.91086475371821e-02
1.30817948717949e-01 9.73224076971114e+00 8.86053755099693e-02
1.31653846153846e-01 9.64630673379692e+00 8.81031472324143e-02
1.32489743589744e-01 9.56113148058643e+00 8.76019998022240e-02
1.33325641025641e-01 9.47670831062286e+00 8.71019692997469e-02
1.34161538461538e-01 9.39303058268106e+00 8.66030907496681e-02
1.34997435897436e-01 9.31009171508736e+00 8.61053981298837e-02
1.35833333333333e-01 9.22788518338511e+00 8.56089244111645e-02
1.36669230769231e-01 9.14640452161311e+00 8.51137014967983e-02
1.37505128205128e-01 9.06564332045574e+00 8.46197605349860e-02
1.38341025641026e-01 8.98559522677457e+00 8.41271315169921e-02
1.39176923076923e-01 8.90625394437034e+00 8.36358435751338e-02
1.40012820512820e-01 8.82761323180774e+00 8.31459249457577e-02
1.40848717948718e-01 8.74966690358136e+00 8.26574029753748e-02
1.41684615384615e-01 8.67240882799477e+00 8.21703041552823e-02
1.42520512820513e-01 8.59583292829035e+00 8.16846541270347e-02
1.43356410256410e-01 8.51993318058103e+00 8.12004777158262e-02
1.44192307692308e-01 8.44470361494504e+00 8.07177988737980e-02
1.45028205128205e-01 8.37013831378209e+00 8.02366409589698e-02
1.45864102564103e-01 8.29623141137868e+00 7.97570263714951e-02
1.46700000000000e-01 8.22297709455262e+00 7.92789768197408e-02
1.47535897435897e-01 8.15036960072293e+00 7.88025132849393e-02
1.48371794871795e-01 8.07840321890968e+00 7.83276560247280e-02
1.49207692307692e-01 8.00707228785105e+00 7.78544246024770e-02
1.50043589743590e-01 7.93637119697258e+00 7.73828378337178e-02
1.50879487179487e-01 7.86629438488677e+00 7.69129140415784e-02
1.51715384615385e-01 7.79683633898294e+00 7.64446707206348e-02
1.52551282051282e-01 7.72799159599214e+00 7.59781247805516e-02
1.53387179487179e-01 7.65975474022768e+00 7.55132925123933e-02
1.54223076923077e-01 7.59212040447123e+00 7.50501895906519e-02
1.55058974358974e-01 7.52508326825587e+00 7.45888310991164e-02
1.55894871794872e-01 7.45863805872523e+00 7.41292315325350e-02
1.56730769230769e-01 7.39277954895794e+00 7.36714048216422e-02
1.57566666666667e-01 7.32750255880055e+00 7.32153642833390e-02
1.58402564102564e-01 7.26280195352885e+00 7.27611228497610e-02
1.59238461538462e-01 7.19867264346728e+00 7.23086927637884e-02
1.60074358974359e-01 7.13510958446794e+00 7.18580857974486e-02
1.60910256410256e-01 7.07210777634283e+00 7.14093132202773e-02
1.61746153846154e-01 7.00966226362630e+00 7.09623857999065e-02
1.62582051282051e-01 6.94776813404446e+00 7.05173138242517e-02
1.63417948717949e-01 6.88642051925479e+00 7.00741070547398e-02
1.64253846153846e-01 6.82561459362007e+00 6.96327749366401e-02
1.65089743589744e-01 6.76534557384999e+00 6.91933263174526e-02
1.65925641025641e-01 6.70560871942123e+00 6.87557696475177e-02
1.66761538461538e-01 6.64639933114394e+00 6.83201129500758e-02
1.67597435897436e-01 6.58771275183909e+00 6.78863638210332e-02
1.68433333333333e-01 6.52954436493863e+00 6.74545294486867e-02
1.69269230769231e-01 6.47188959514256e+00 6.70246165698168e-02
1.70105128205128e-01 6.41474390729525e+00 6.65966316631223e-02
1.70941025641026e-01 6.35810280604726e+00 6.61705806886539e-02
1.71776923076923e-01 6.30196183622429e+00 6.57464692722002e-02
1.72612820512821e-01 6.24631658151472e+00 6.53243026770886e-02
1.73448717948718e-01 6.19116266507189e+00 6.49040858032775e-02
1.74284615384615e-01 6.13649574823222e+00 6.44858232049784e-02
1.75120512820513e-01 6.08231153109963e+00 6.40695190896068e-02
1.75956410256410e-01 6.02860575129335e+00 6.36551773348641e-02
1.76792307692308e-01 5.97537418451496e+00 6.32428014482274e-02
1.77628205128205e-01 5.92261264354059e+00 6.28323947411232e-02
1.78464102564103e-01 5.87031697790781e+00 6.24239600926006e-02
1.79300000000000e-01 5.81848307422865e+00 6.20175001153510e-02
1.80135897435897e-01 5.76710685501444e+00 6.16130171295000e-02
1.80971794871795e-01 5.71618427919593e+00 6.12105131611092e-02
1.81807692307692e-01 5.66571134097515e+00 6.08099899574695e-02
1.82643589743590e-01 5.61568407033016e+00 6.04114489491913e-02
1.83479487179487e-01 5.56609853208895e+00 6.00148914106582e-02
1.84315384615385e-01 5.51695082563443e+00 5.96203182411924e-02
1.85151282051282e-01 5.46823708517921e+00 5.92277301179997e-02
1.85987179487179e-01 5.41995347868709e+00 5.88371274715287e-02
1.86823076923077e-01 5.37209620833638e+00 5.84485104836366e-02
1.87658974358974e-01 5.32466150946592e+00 5.80618791013201e-02
1.88494871794872e-01 5.27764565102480e+00 5.76772330347886e-02
1.89330769230769e-01 5.23104493454229e+00 5.72945717708067e-02
1.90166666666667e-01 5.18485569456432e+00 5.69138945377875e-02
1.91002564102564e-01 5.13907429782062e+00 5.65352004506258e-02
1.91838461538462e-01 5.09369714295160e+00 5.61584883120264e-02
1.92674358974359e-01 5.04872066074147e+00 5.57837567504983e-02
1.93510256410256e-01 5.00414131314983e+00 5.54110041975799e-02
1.94346153846154e-01 4.95995559371257e+00 5.50402288856945e-02
1.95182051282051e-01 4.91616002659518e+00 5.46714288601433e-02
1.96017948717949e-01 4.87275116698195e+00 5.43046019465028e-02
1.96853846153846e-01 4.82972560030890e+00 5.39397458842458e-02
1.97689743589744e-01 4.78707994200673e+00 5.35768581426340e-02
1.98525641025641e-01 4.74481083770515e+00 5.32159360480687e-02
1.99361538461538e-01 4.70291496234239e+00 5.28569767627051e-02
2.00197435897436e-01 4.66138902052260e+00 5.24999772821678e-02
2.01033333333333e-01 4.62022974564525e+00 5.21449344463530e-02
2.01869230769231e-01 4.57943390025214e+00 5.17918449089525e-02
2.02705128205128e-01 4.53899827532051e+00 5.14407052608618e-02
2.03541025641026e-01 4.49891969002096e+00 5.10915118594937e-02
2.04376923076923e-01 4.45919499189656e+00 5.07442609463456e-02
2.05212820512820e-01 4.41982105604326e+00 5.03989486269778e-02
2.06048717948718e-01 4.38079478542873e+00 5.00555708686129e-02
2.06884615384615e-01 4.34211311009091e+00 4.97141235098912e-02
2.07720512820513e-01 4.30377298744766e+00 4.93746022584498e-02
2.08556410256410e-01 4.26577140151294e+00 4.90370027004111e-02
2.09392307692308e-01 4.22810536319745e+00 4.87013202723939e-02
2.10228205128205e-01 4.19077190967081e+00 4.83675503731682e-02
2.11064102564103e-01 4.15376810413762e+00 4.80356882084993e-02
2.11900000000000e-01 4.11709103598896e+00 4.77057288975137e-02
2.12735897435897e-01 4.08073782006407e+00 4.73776674542287e-02
2.13571794871795e-01 4.04470559692668e+00 4.70514987850870e-02
2.14407692307692e-01 4.00899153214281e+00 4.67272176975384e-02
2.15243589743590e-01 3.97359281654914e+00 4.64048188738923e-02
2.16079487179487e-01 3.93850666566418e+00 4.60842969745577e-02
2.16915384615385e-01 3.90373031947745e+00 4.57656464940991e-02
2.17751282051282e-01 3.86926104258205e+00 4.54488618595612e-02
2.18587179487179e-01 3.83509612349390e+00 4.51339374131881e-02
2.19423076923077e-01 3.80123287489845e+00 4.48208674099342e-02
2.20258974358974e-01 3.76766863298481e+00 4.45096460252274e-02
2.21094871794872e-01 3.73440075768528e+00 4.42002673524743e-02
2.21930769230769e-01 3.70142663202395e+00 4.38927254106335e-02
2.22766666666667e-01 3.66874366234929e+00 4.35870141202126e-02
2.23602564102564e-01 3.63634927780189e+00 4.32831273968130e-02
2.24438461538462e-01 3.60424093011947e+00 4.29810590201803e-02
2.25274358974359e-01 3.57241609374864e+00 4.26808027232796e-02
2.26110256410256e-01 3.54087226523050e+00 4.23823521763781e-02
2.26946153846154e-01 3.50960696341454e+00 4.20857009845655e-02
2.27782051282051e-01 3.47861772885752e+00 4.17908426946145e-02
2.28617948717949e-01 3.44790212403117e+00 4.14977707725851e-02
2.29453846153846e-01 3.41745773283006e+00 4.12064786903908e-02
2.30289743589744e-01 3.38728216038816e+00 4.09169598042291e-02
2.31125641025641e-01 3.35737303317630e+00 4.06292074370305e-02
2.31961538461538e-01 3.32772799843478e+00 4.03432148635583e-02
2.32797435897436e-01 3.29834472436454e+00 4.00589753079659e-02
2.33633333333333e-01 3.26922089957193e+00 3.97764819500129e-02
2.34469230769231e-01 3.24035423325432e+00 3.94957279041547e-02
2.35305128205128e-01 3.21174245474482e+00 3.92167062997130e-02
2.36141025641026e-01 3.18338331333963e+00 3.89394101679762e-02
2.36976923076923e-01 3.15527457838285e+00 3.86638325185304e-02
2.37812820512820e-01 3.12741403874237e+00 3.83899663253244e-02
2.38648717948718e-01 3.09979950298052e+00 3.81178045242729e-02
2.39484615384615e-01 3.07242879884112e+00 3.78473400189071e-02
2.40320512820513e-01 3.04529977341520e+00 3.75785656779810e-02
2.41156410256410e-01 3.01841029263898e+00 3.73114743409798e-02
2.41992307692308e-01 2.99175824145482e+00 3.70460587989364e-02
2.42828205128205e-01 2.96534152339865e+00 3.67823118671934e-02
2.43664102564103e-01 2.93915806044035e+00 3.65202262825808e-02
2.44500000000000e-01 2.91320579305478e+00 3.62597947726878e-02
2.45335897435897e-01 2.88748267974754e+00 3.60010100430476e-02
2.46171794871795e-01 2.86198669720301e+00 3.57438647748083e-02
2.47007692307692e-01 2.83671583982013e+00 3.54883516297348e-02
2.47843589743590e-01 2.81166811985618e+00 3.52344632323023e-02
2.48679487179487e-01 2.78684156704464e+00 3.49821922371271e-02
2.49515384615385e-01 2.76223422844505e+00 3.47315312334276e-02
2.50351282051282e-01 2.73784416850447e+00 3.44824728092218e-02
2.51187179487179e-01 2.71366946861884e+00 3.42350095393331e-02
2.52023076923077e-01 2.68970822726513e+00 3.39891339831313e-02
2.52858974358974e-01 2.66595855957195e+00 3.37448386890868e-02
2.53694871794872e-01 2.64241859744791e+00 3.35021161925223e-02
2.54530769230769e-01 2.61908648916122e+00 3.32609590200574e-02
2.55366666666667e-01 2.59596039946430e+00 3.30213596731721e-02
2.56202564102564e-01 2.57303850924713e+00 3.27833106894776e-02
2.57038461538461e-01 2.55031901539834e+00 3.25468045556483e-02
2.57874358974359e-01 2.52780013085634e+00 3.23118337657293e-02
2.58710256410256e-01 2.50548008421188e+00 3.20783908101154e-02
2.59546153846154e-01 2.48335711982258e+00 3.18464681733795e-02
2.60382051282051e-01 2.46142949742388e+00 3.16160583383146e-02
2.61217948717949e-01 2.43969549224026e+00 3.13871537705985e-02
2.62053846153846e-01 2.41815339466379e+00 3.11597469756110e-02
2.62889743589744e-01 2.39680151012353e+00 3.09338304174855e-02
2.63725641025641e-01 2.37563815912942e+00 3.07093965731929e-02
