Energy (eV)          EEDF (eV^-(3/2))     First Anisotropy
1.72727272727273e-02 1.21637611089342e-01 6.86350997653052e-05
5.18181818181818e-02 1.20687047782208e-01 1.13274018480065e-04
8.63636363636364e-02 1.19743912855764e-01 1.49370278429281e-04
1.20909090909091e-01 1.18808148256123e-01 1.76693117908087e-04
1.55454545454545e-01 1.17879696395873e-01 1.99398284355392e-04
1.90000000000000e-01 1.16958500119913e-01 2.19059179626738e-04
2.24545454545455e-01 1.16044502733401e-01 2.36491106547559e-04
2.59090909090909e-01 1.15137647974487e-01 2.52187031077105e-04
2.93636363636364e-01 1.14237880029217e-01 2.66474308564828e-04
3.28181818181818e-01 1.13345143512976e-01 2.79584596042400e-04
3.62727272727273e-01 1.12459383479858e-01 2.91689590772749e-04
3.97272727272727e-01 1.11580545408203e-01 3.02921121243076e-04
4.31818181818182e-01 1.10708575204916e-01 3.13383265146517e-04
4.66363636363636e-01 1.09843419201747e-01 3.23160070789788e-04
5.00909090909091e-01 1.08985024145646e-01 3.32320693858454e-04
5.35454545454545e-01 1.08133337203533e-01 3.40922940737793e-04
5.70000000000000e-01 1.07288305951735e-01 3.49015786364727e-04
6.04545454545454e-01 1.06449878379444e-01 3.56641209187249e-04
6.39090909090909e-01 1.05618002879362e-01 3.63835558170377e-04
6.73636363636364e-01 1.04792628250215e-01 3.70630590482379e-04
7.08181818181818e-01 1.03973703688316e-01 3.77054272632612e-04
7.42727272727273e-01 1.03161178789369e-01 3.83131408000849e-04
7.77272727272727e-01 1.02355003540744e-01 3.88884135186187e-04
8.11818181818182e-01 1.01555128321750e-01 3.94332327645017e-04
8.46363636363636e-01 1.00761503900470e-01 3.99493919330767e-04
8.80909090909091e-01 9.99740814277241e-02 4.04385170550733e-04
9.15454545454546e-01 9.91928124379629e-02 4.09020888338111e-04
9.50000000000000e-01 9.84176488425946e-02 4.13414610162978e-04
9.84545454545455e-01 9.76485429305229e-02 4.17578757986809e-04
1.01909090909091e+00 9.68854473633649e-02 4.21524770012280e-04
1.05363636363636e+00 9.61283151668228e-02 4.25263209007379e-04
1.08818181818182e+00 9.53770997462028e-02 4.28803860358909e-04
1.12272727272727e+00 9.46317548565458e-02 4.32155812564417e-04
1.15727272727273e+00 9.38922346281558e-02 4.35327527305895e-04
1.19181818181818e+00 9.31584935426062e-02 4.38326904955696e-04
1.22636363636364e+00 9.24304864314842e-02 4.41161332755834e-04
1.26090909090909e+00 9.17081684913198e-02 4.43837735737741e-04
1.29545454545455e+00 9.09914952571791e-02 4.46362617527303e-04
1.33000000000000e+00 9.02804226228358e-02 4.48742096939341e-04
1.36454545454545e+00 8.95749068158547e-02 4.50981940774217e-04
1.39909090909091e+00 8.88749044164258e-02 4.53087592688425e-04
1.43363636363636e+00 8.81803723338069e-02 4.55064199293033e-04
1.46818181818182e+00 8.74912678239421e-02 4.56916633219745e-04
1.50272727272727e+00 8.68075484671477e-02 4.58649514144571e-04
1.53727272727273e+00 8.61291721846226e-02 4.60267226701590e-04
1.57181818181818e+00 8.54560972215706e-02 4.61773940517124e-04
1.60636363636364e+00 8.47882821454703e-02 4.63173621084602e-04
1.64090909090909e+00 8.41256858559351e-02 4.64470046642960e-04
1.67545454545455e+00 8.34682675656308e-02 4.65666820222888e-04
1.71000000000000e+00 8.28159868138890e-02 4.66767381077209e-04
1.74454545454545e+00 8.21688034485057e-02 4.67775015368495e-04
1.77909090909091e+00 8.15266776385838e-02 4.68692865708130e-04
1.81363636363636e+00 8.08895698571503e-02 4.69523940141772e-04
1.84818181818182e+00 8.02574408932858e-02 4.70271120170205e-04
1.88272727272727e+00 7.96302518355047e-02 4.70937168360623e-04
1.91727272727273e+00 7.90079640832229e-02 4.71524734541140e-04
1.95181818181818e+00 7.83905393340159e-02 4.72036364684513e-04
1.98636363636364e+00 7.77779395817799e-02 4.72474503124022e-04
2.02090909090909e+00 7.71701271236005e-02 4.72841500425790e-04
2.05545454545455e+00 7.65670645451571e-02 4.73139617929463e-04
2.09000000000000e+00 7.59687147304192e-02 4.73371032354339e-04
2.12454545454545e+00 7.53750408476299e-02 4.73537840277708e-04
2.15909090909091e+00 7.47860063585120e-02 4.73642062115143e-04
2.19363636363636e+00 7.42015750047968e-02 4.73685646020320e-04
2.22818181818182e+00 7.36217108169715e-02 4.73670471341499e-04
2.26272727272727e+00 7.30463781013223e-02 4.73598352034883e-04
2.29727272727273e+00 7.24755414482511e-02 4.73471039180093e-04
2.33181818181818e+00 7.19091657222308e-02 4.73290225986810e-04
2.36636363636364e+00 7.13472160599903e-02 4.73057547443178e-04
2.40090909090909e+00 7.07896578754589e-02 4.72774584898239e-04
2.43545454545455e+00 7.02364568481876e-02 4.72442868028222e-04
2.47000000000000e+00 6.96875789304966e-02 4.72063877022891e-04
2.50454545454545e+00 6.91429903363052e-02 4.71639044801704e-04
2.53909090909091e+00 6.86026575479461e-02 4.71169758948128e-04
2.57363636363636e+00 6.80665473053839e-02 4.70657363687295e-04
2.60818181818182e+00 6.75346266127158e-02 4.70103161603092e-04
2.64272727272727e+00 6.70068627277590e-02 4.69508415409565e-04
2.67727272727273e+00 6.64832231682553e-02 4.68874349055388e-04
2.71181818181818e+00 6.59636757037209e-02 4.68202151019875e-04
2.74636363636364e+00 6.54481883537074e-02 4.67492973134320e-04
2.78090909090909e+00 6.49367293914388e-02 4.66747933660891e-04
2.81545454545455e+00 6.44292673343897e-02 4.65968118208373e-04
2.85000000000000e+00 6.39257709496786e-02 4.65154580894322e-04
2.88454545454545e+00 6.34262092449492e-02 4.64308345579536e-04
2.91909090909091e+00 6.29305514735276e-02 4.63430406913614e-04
2.95363636363636e+00 6.24387671255932e-02 4.62521731456607e-04
2.98818181818182e+00 6.19508259331123e-02 4.61583258622001e-04
3.02272727272727e+00 6.14666978612861e-02 4.60615901698596e-04
3.05727272727273e+00 6.09863531132711e-02 4.59620548338268e-04
3.09181818181818e+00 6.05097621234293e-02 4.58598062952393e-04
3.12636363636364e+00 6.00368955556872e-02 4.57549285299032e-04
3.16090909090909e+00 5.95677243062471e-02 4.56475032750156e-04
3.19545454545455e+00 5.91022194957785e-02 4.55376100725499e-04
3.23000000000000e+00 5.86403524735542e-02 4.54253263363129e-04
3.26454545454545e+00 5.81820948098743e-02 4.53107274270532e-04
3.29909090909091e+00 5.77274183000300e-02 4.51938867135370e-04
3.33363636363636e+00 5.72762949569507e-02 4.50748756417232e-04
3.36818181818182e+00 5.68286970150037e-02 4.49537637905083e-04
3.40272727272727e+00 5.63845969228551e-02 4.48306189355711e-04
3.43727272727273e+00 5.59439673471138e-02 4.47055070687681e-04
3.47181818181818e+00 5.55067811666524e-02 4.45784925837743e-04
3.50636363636364e+00 5.50730114710732e-02 4.44496381336450e-04
3.54090909090909e+00 5.46426315627468e-02 4.43190048078415e-04
3.57545454545455e+00 5.42156149502472e-02 4.41866521517060e-04
3.61000000000000e+00 5.37919353515629e-02 4.40526382076012e-04
3.64454545454545e+00 5.33715666877154e-02 4.39170195637940e-04
3.67909090909091e+00 5.29544830858418e-02 4.37798513922829e-04
3.71363636363636e+00 5.25406588729893e-02 4.36411874943043e-04
3.74818181818182e+00 5.21300685790744e-02 4.35010803351639e-04
3.78272727272727e+00 5.17226869308480e-02 4.33595810866638e-04
3.81727272727273e+00 5.13184888547365e-02 4.32167396317318e-04
3.85181818181818e+00 5.09174494720073e-02 4.30726047142629e-04
3.88636363636364e+00 5.05195440973421e-02 4.29272238041155e-04
3.92090909090909e+00 5.01247482403758e-02 4.27806432407179e-04
3.95545454545455e+00 4.97330376001157e-02 4.26329082400393e-04
3.99000000000000e+00 4.93443880674562e-02 4.24840629210316e-04
4.02454545454545e+00 4.89587757197458e-02 4.23341503391748e-04
4.05909090909091e+00 4.85761768232037e-02 4.21832125109788e-04
4.09363636363636e+00 4.81965678276290e-02 4.20312904454699e-04
4.12818181818182e+00 4.78199253687229e-02 4.18784241669008e-04
4.16272727272727e+00 4.74462262629361e-02 4.17246527443488e-04
4.19727272727273e+00 4.70754475097003e-02 4.15700142887441e-04
4.23181818181818e+00 4.67075662872737e-02 4.14145460771474e-04
4.26636363636364e+00 4.63425599514190e-02 4.12582844282753e-04
4.30090909090909e+00 4.59804060365647e-02 4.11012648220053e-04
4.33545454545455e+00 4.56210822510188e-02 4.09435218996061e-04
4.37000000000000e+00 4.52645664789503e-02 4.07850894813739e-04
4.40454545454545e+00 4.49108367757235e-02 4.06260005906319e-04
4.43909090909091e+00 4.45598713698036e-02 4.04662874701533e-04
4.47363636363636e+00 4.42116486582076e-02 4.03059816048416e-04
4.50818181818182e+00 4.38661472083372e-02 4.01451137370368e-04
4.54272727272727e+00 4.35233457535428e-02 3.99837138879749e-04
4.57727272727273e+00 4.31832231948861e-02 3.98218113509340e-04
4.61181818181818e+00 4.28457585975422e-02 3.96594347962615e-04
4.64636363636364e+00 4.25109311895771e-02 3.94966121581382e-04
4.68090909090909e+00 4.21787203628210e-02 3.93333707358040e-04
4.71545454545455e+00 4.18491056687341e-02 3.91697371901454e-04
4.75000000000000e+00 4.15220668199731e-02 3.90057375557868e-04
4.78454545454545e+00 4.11975836863570e-02 3.88413972588464e-04
4.81909090909091e+00 4.08756362963748e-02 3.86767411282436e-04
4.85363636363636e+00 4.05562048332475e-02 3.85117934125749e-04
4.88818181818182e+00 4.02392696363796e-02 3.83465777906934e-04
4.92272727272727e+00 3.99248111975149e-02 3.81811173877567e-04
4.95727272727273e+00 3.96128101621332e-02 3.80154347665058e-04
4.99181818181818e+00 3.93032473263142e-02 3.78495520172098e-04
5.02636363636364e+00 3.89961036356096e-02 3.76834906553748e-04
5.06090909090909e+00 3.86913601856950e-02 3.75172717085698e-04
5.09545454545455e+00 3.83889982187756e-02 3.73509157110953e-04
5.13000000000000e+00 3.80889991248294e-02 3.71844427124494e-04
5.16454545454545e+00 3.77913444380965e-02 3.70178722908304e-04
5.19909090909091e+00 3.74960158382755e-02 3.68512235610847e-04
5.23363636363636e+00 3.72029951470950e-02 3.66845151875889e-04
5.26818181818182e+00 3.69122643294641e-02 3.65177653917130e-04
5.30272727272727e+00 3.66238054901234e-02 3.63509919641229e-04
5.33727272727273e+00 3.63376008747526e-02 3.61842122553156e-04
5.37181818181818e+00 3.60536328672237e-02 3.60174432533951e-04
5.40636363636364e+00 3.57718839885607e-02 3.58507014920068e-04
5.44090909090909e+00 3.54923368974199e-02 3.56840031255030e-04
5.47545454545455e+00 3.52149743869499e-02 3.55173639226799e-04
5.51000000000000e+00 3.49397793857779e-02 3.53507992728101e-04
5.54454545454545e+00 3.46667349549404e-02 3.51843241961341e-04
5.57909090909091e+00 3.43958242888323e-02 3.50179533495360e-04
5.61363636363636e+00 3.41270307122073e-02 3.48517010365868e-04
5.64818181818182e+00 3.38603376810908e-02 3.46855812128829e-04
5.68272727272727e+00 3.35957287798479e-02 3.45196074956740e-04
5.71727272727273e+00 3.33331877220615e-02 3.43537931542869e-04
5.75181818181818e+00 3.30726983481161e-02 3.41881511778787e-04
5.78636363636364e+00 3.28142446242387e-02 3.40226941927173e-04
5.82090909090909e+00 3.25578106428466e-02 3.38574345277137e-04
5.85545454545455e+00 3.23033806197909e-02 3.36923842078087e-04
5.89000000000000e+00 3.20509388951393e-02 3.35275549583149e-04
5.92454545454545e+00 3.18004699304807e-02 3.33629582132265e-04
5.95909090909091e+00 3.15519583096779e-02 3.31986051193086e-04
5.99363636363636e+00 3.13053887362315e-02 3.30345065440675e-04
6.02818181818182e+00 3.10607460340042e-02 3.28706730796129e-04
6.06272727272727e+00 3.08180151446422e-02 3.27071150503195e-04
6.09727272727273e+00 3.05771811282715e-02 3.25438425034927e-04
6.13181818181818e+00 3.03382291613633e-02 3.23808652687170e-04
6.16636363636364e+00 3.01011445358517e-02 3.22181928836003e-04
6.20090909090909e+00 2.98659126593763e-02 3.20558346512198e-04
6.23545454545455e+00 2.96325190528554e-02 3.18937996334967e-04
6.27000000000000e+00 2.94009493511041e-02 3.17320966543511e-04
6.30454545454545e+00 2.91711893004597e-02 3.15707343063697e-04
6.33909090909091e+00 2.89432247593764e-02 3.14097209537786e-04
6.37363636363636e+00 2.87170416961009e-02 3.12490647388652e-04
6.40818181818182e+00 2.84926261892447e-02 3.10887735847807e-04
6.44272727272727e+00 2.82699644255093e-02 3.09288552017239e-04
6.47727272727273e+00 2.80490427002360e-02 3.07693170780433e-04
6.51181818181818e+00 2.78298474155142e-02 3.06101665324603e-04
6.54636363636364e+00 2.76123650793698e-02 3.04514106474217e-04
6.58090909090909e+00 2.73965823059266e-02 3.02930563196748e-04
6.61545454545455e+00 2.71824858132613e-02 3.01351102538299e-04
6.65000000000000e+00 2.69700624238909e-02 2.99775789646584e-04
6.68454545454545e+00 2.67592990626728e-02 2.98204687825129e-04
6.71909090909091e+00 2.65501827572730e-02 2.96637858554911e-04
6.75363636363636e+00 2.63427006361100e-02 2.95075361546734e-04
6.78818181818182e+00 2.61368399288052e-02 2.93517254761601e-04
6.82272727272727e+00 2.59325879641694e-02 2.91963594461211e-04
6.85727272727273e+00 2.57299321706348e-02 2.90414435124329e-04
6.89181818181818e+00 2.55288600745743e-02 2.88869829907976e-04
6.92636363636364e+00 2.53293592995544e-02 2.87329830049112e-04
6.96090909090909e+00 2.51314175664342e-02 2.85794485311490e-04
6.99545454545455e+00 2.49350226914634e-02 2.84263843924271e-04
7.03000000000000e+00 2.47401625866646e-02 2.82737952598746e-04
7.06454545454545e+00 2.45468252579710e-02 2.81216856572889e-04
7.09909090909091e+00 2.43549988055930e-02 2.79700599627087e-04
7.13363636363636e+00 2.41646714221939e-02 2.78189224127196e-04
7.16818181818182e+00 2.39758313932420e-02 2.76682771039390e-04
7.20272727272727e+00 2.37884670952238e-02 2.75181279971783e-04
7.23727272727273e+00 2.36025669959813e-02 2.73684789096456e-04
7.27181818181818e+00 2.34181196532142e-02 2.72193335558065e-04
7.30636363636364e+00 2.32351137137933e-02 2.70706954936528e-04
7.34090909090909e+00 2.30535379138102e-02 2.69225681642946e-04
7.37545454545455e+00 2.28733810768873e-02 2.67749548861784e-04
7.41000000000000e+00 2.26946321144747e-02 2.66278588562981e-04
7.44454545454545e+00 2.25172800241948e-02 2.64812831538886e-04
7.47909090909091e+00 2.23413138901263e-02 2.63352307415615e-04
7.51363636363636e+00 2.21667228811824e-02 2.61897044688774e-04
7.54818181818182e+00 2.19934962513829e-02 2.60447070734174e-04
7.58272727272727e+00 2.18216233382652e-02 2.59002411842366e-04
7.61727272727273e+00 2.16510935631444e-02 2.57563093146561e-04
7.65181818181818e+00 2.14818964297764e-02 2.56129138985458e-04
7.68636363636364e+00 2.13140215237264e-02 2.54700572420438e-04
7.72090909090909e+00 2.11474585123810e-02 2.53277415587296e-04
7.75545454545455e+00 2.09821971434429e-02 2.51859689642223e-04
7.79000000000000e+00 2.08182272451588e-02 2.50447414770499e-04
7.82454545454545e+00 2.06555387248443e-02 2.49040610217256e-04
7.85909090909091e+00 2.04941215691022e-02 2.47639294295632e-04
7.89363636363636e+00 2.03339658423763e-02 2.46243484416625e-04
7.92818181818182e+00 2.01750616871598e-02 2.44853197096682e-04
7.96272727272727e+00 2.00173993225785e-02 2.43468447986609e-04
7.99727272727273e+00 1.98609690445893e-02 2.42089251805131e-04
8.03181818181818e+00 1.97057612247834e-02 2.40715622661815e-04
8.06636363636364e+00 1.95517663098070e-02 2.39347573623028e-04
8.10090909090909e+00 1.93989748213435e-02 2.37985117025001e-04
8.13545454545454e+00 1.92473773547704e-02 2.36628264423699e-04
8.17000000000000e+00 1.90969645793316e-02 2.35277026600923e-04
8.20454545454546e+00 1.89477272368206e-02 2.33931413590163e-04
8.23909090909091e+00 1.87996561417443e-02 2.32591434682275e-04
8.27363636363636e+00 1.86527421800328e-02 2.31257098450549e-04
8.30818181818182e+00 1.85069763091948e-02 2.29928412756009e-04
8.34272727272727e+00 1.83623495570526e-02 2.28605384771723e-04
8.37727272727273e+00 1.82188530218905e-02 2.27288020921793e-04
8.41181818181818e+00 1.80764778713823e-02 2.25976327169255e-04
8.44636363636364e+00 1.79352153420586e-02 2.24670308625634e-04
8.48090909090909e+00 1.77950567392675e-02 2.23369969830124e-04
8.51545454545455e+00 1.76559934359737e-02 2.22075314703287e-04
8.55000000000000e+00 1.75180168728855e-02 2.20786346551161e-04
8.58454545454545e+00 1.73811185572776e-02 2.19503068087081e-04
8.61909090909091e+00 1.72452900631113e-02 2.18225481435501e-04
8.65363636363636e+00 1.71105230298802e-02 2.16953588153199e-04
8.68818181818182e+00 1.69768091627242e-02 2.15687389232785e-04
8.72272727272727e+00 1.68441402312973e-02 2.14426885123258e-04
8.75727272727273e+00 1.67125080698757e-02 2.13172075674138e-04
8.79181818181818e+00 1.65819045763948e-02 2.11922960392510e-04
8.82636363636364e+00 1.64523217119607e-02 2.10679538091624e-04
8.86090909090909e+00 1.63237515007933e-02 2.09441807140229e-04
8.89545454545455e+00 1.61961860291521e-02 2.08209765419905e-04
8.93000000000000e+00 1.60696174454260e-02 2.06983410327736e-04
8.96454545454545e+00 1.59440379590791e-02 2.05762738794767e-04
8.99909090909091e+00 1.58194398407363e-02 2.04547747288447e-04
9.03363636363636e+00 1.56958154211485e-02 2.03338431830608e-04
9.06818181818182e+00 1.55731570912732e-02 2.02134787999636e-04
9.10272727272727e+00 1.54514573012600e-02 2.00936810947936e-04
9.13727272727273e+00 1.53307085605259e-02 1.99744495350802e-04
9.17181818181818e+00 1.52109034368896e-02 1.98557835636299e-04
9.20636363636364e+00 1.50920345561230e-02 1.97376825668772e-04
9.24090909090909e+00 1.49740946018825e-02 1.96201458971885e-04
9.27545454545455e+00 1.48570763147455e-02 1.95031728689382e-04
9.31000000000000e+00 1.47409724922711e-02 1.93867627586614e-04
9.34454545454545e+00 1.46257759880546e-02 1.92709148066258e-04
9.37909090909091e+00 1.45114797117846e-02 1.91556282169709e-04
9.41363636363636e+00 1.43980766283151e-02 1.90409021592362e-04
9.44818181818182e+00 1.42855597577183e-02 1.89267357684784e-04
9.48272727272727e+00 1.41739221743747e-02 1.88131281467604e-04
9.51727272727273e+00 1.40631570070219e-02 1.87000783584777e-04
9.55181818181818e+00 1.39532574379757e-02 1.85875854509427e-04
9.58636363636364e+00 1.38442167027179e-02 1.84756484258651e-04
9.62090909090909e+00 1.37360280898197e-02 1.83642662593249e-04
9.65545454545455e+00 1.36286849400761e-02 1.82534378981693e-04
9.69000000000000e+00 1.35221806465436e-02 1.81431622600848e-04
9.72454545454545e+00 1.34165086536908e-02 1.80334382349375e-04
9.75909090909091e+00 1.33116624574326e-02 1.79242646848289e-04
9.79363636363636e+00 1.32076356042972e-02 1.78156404454022e-04
9.82818181818182e+00 1.31044216914568e-02 1.77075643258857e-04
9.86272727272727e+00 1.30020143659104e-02 1.76000351103619e-04
9.89727272727273e+00 1.29004073245109e-02 1.74930515535015e-04
9.93181818181818e+00 1.27995943132644e-02 1.73866123990173e-04
9.96636363636364e+00 1.26995691269509e-02 1.72807163539485e-04
1.00009090909091e+01 1.26003256090421e-02 1.71753620982371e-04
1.00354545454545e+01 1.25018576511182e-02 1.70705483272300e-04
1.00700000000000e+01 1.24041591918180e-02 1.69662736479269e-04
1.01045454545455e+01 1.23072242186905e-02 1.68625366991957e-04
1.01390909090909e+01 1.22110467643563e-02 1.67593360849632e-04
1.01736363636364e+01 1.21156209099608e-02 1.66566703861161e-04
1.02081818181818e+01 1.20209407810344e-02 1.65545381669302e-04
1.02427272727273e+01 1.19270005508622e-02 1.64529379697798e-04
1.02772727272727e+01 1.18337944364373e-02 1.63518683600757e-04
1.03118181818182e+01 1.17413167008613e-02 1.62513277661876e-04
1.03463636363636e+01 1.16495616529513e-02 1.61513147169792e-04
1.03809090909091e+01 1.15585236442268e-02 1.60518276867854e-04
1.04154545454545e+01 1.14681970721007e-02 1.59528651306997e-04
1.04500000000000e+01 1.13785763760368e-02 1.58544254905526e-04
1.04845454545455e+01 1.12896560406646e-02 1.57565071899394e-04
1.05190909090909e+01 1.12014305920228e-02 1.56591086400665e-04
1.05536363636364e+01 1.11138946005997e-02 1.55622282348719e-04
1.05881818181818e+01 1.10270426776610e-02 1.54658643567481e-04
1.06227272727273e+01 1.09408694782177e-02 1.53700153717566e-04
1.06572727272727e+01 1.08553696974350e-02 1.52746796700412e-04
1.06918181818182e+01 1.07705380727440e-02 1.51798555215982e-04
1.07263636363636e+01 1.06863693834829e-02 1.50855412902054e-04
1.07609090909091e+01 1.06028584482195e-02 1.49917352937263e-04
1.07954545454545e+01 1.05200001275634e-02 1.48984358358722e-04
1.08300000000000e+01 1.04377893207548e-02 1.48056412115280e-04
1.08645454545455e+01 1.03562209684094e-02 1.47133497022520e-04
1.08990909090909e+01 1.02752900491833e-02 1.46215595814836e-04
