Energy (eV)          EEDF (eV^-(3/2))     First Anisotropy
2.31250000000000e-01 3.14812045735765e-02 4.10207360510439e-05
6.93750000000000e-01 3.01508156746301e-02 6.65292796934514e-05
1.15625000000000e+00 2.88766487229178e-02 8.46840551138867e-05
1.61875000000000e+00 2.76563277911057e-02 9.66967845319025e-05
2.08125000000000e+00 2.64875773580348e-02 1.05334044100703e-04
2.54375000000000e+00 2.53682180655781e-02 1.11702717981350e-04
3.00625000000000e+00 2.42961626548116e-02 1.16405108422884e-04
3.46875000000000e+00 2.32694120739226e-02 1.19821545710887e-04
3.93125000000000e+00 2.22860517505954e-02 1.22214421234979e-04
4.39375000000000e+00 2.13442480219265e-02 1.23775672288157e-04
4.85625000000000e+00 2.04422447152103e-02 1.24651620187552e-04
5.31875000000000e+00 1.95783598732201e-02 1.24957260240428e-04
5.78125000000000e+00 1.87509826178780e-02 1.24785085963692e-04
6.24375000000000e+00 1.79585701464651e-02 1.24210845645011e-04
6.70625000000000e+00 1.71996448547722e-02 1.23297466382754e-04
7.16875000000000e+00 1.64727915818244e-02 1.22097827052786e-04
7.63125000000000e+00 1.57766549710434e-02 1.20656777666972e-04
8.09375000000000e+00 1.51099369429272e-02 1.19012647865075e-04
8.55625000000000e+00 1.44713942745328e-02 1.17198398649382e-04
9.01875000000000e+00 1.38598362812498e-02 1.15242518501610e-04
9.48125000000000e+00 1.32741225965424e-02 1.13169732194179e-04
9.94375000000000e+00 1.27131610455176e-02 1.11001569611923e-04
1.04062500000000e+01 1.21759056083575e-02 1.08756828094941e-04
1.08687500000000e+01 1.16613544698156e-02 1.06451952511250e-04
1.13312500000000e+01 1.11685481511410e-02 1.04101350861736e-04
1.17937500000000e+01 1.06965677209473e-02 1.01717658720878e-04
1.22562500000000e+01 1.02445330816901e-02 9.93119626005720e-05
1.27187500000000e+01 9.81160132855658e-03 9.68939899879769e-05
1.31812500000000e+01 9.39696517770938e-03 9.44722720859364e-05
1.36437500000000e+01 8.99985146095141e-03 9.20542839975949e-05
1.41062500000000e+01 8.61951968400645e-03 8.96465661231807e-05
1.45687500000000e+01 8.25526064572632e-03 8.72548297919048e-05
1.50312500000000e+01 7.90639511565001e-03 8.48840495756888e-05
1.54937500000000e+01 7.57227256744895e-03 8.25385442813380e-05
1.59562500000000e+01 7.25226996589657e-03 8.02220482629826e-05
1.64187500000000e+01 6.94579060510027e-03 7.79377744144736e-05
1.68812500000000e+01 6.65226299582948e-03 7.56884699752958e-05
1.73437500000000e+01 6.37113979986492e-03 7.34764661009151e-05
1.78062500000000e+01 6.10189680938214e-03 7.13037219999109e-05
1.82687500000000e+01 5.84403196946603e-03 6.91718643186057e-05
1.87312500000000e+01 5.59706444193362e-03 6.70822223536439e-05
1.91937500000000e+01 5.36053370871961e-03 6.50358595898561e-05
1.96562500000000e+01 5.13399871315257e-03 6.30336019914716e-05
2.01187500000000e+01 4.91703703752065e-03 6.10760634166633e-05
2.05812500000000e+01 4.70924411539317e-03 5.91636684764831e-05
2.10437500000000e+01 4.51023247722935e-03 5.72966731178428e-05
2.15062500000000e+01 4.31963102786741e-03 5.54751831749793e-05
2.19687500000000e+01 4.13708435454691e-03 5.36991711037755e-05
2.24312500000000e+01 3.96225206417379e-03 5.19684910875173e-05
2.28937500000000e+01 3.79480814859258e-03 5.02828926804712e-05
2.33562500000000e+01 3.63444037668195e-03 4.86420331364899e-05
2.38187500000000e+01 3.48084971214027e-03 4.70454885532105e-05
2.42812500000000e+01 3.33374975587536e-03 4.54927639479519e-05
2.47437500000000e+01 3.19286621195875e-03 4.39833023687776e-05
2.52062500000000e+01 3.05793637614862e-03 4.25164931331378e-05
2.56687500000000e+01 2.92870864602759e-03 4.10916792767964e-05
2.61312500000000e+01 2.80494205184205e-03 3.97081642872008e-05
2.65937500000000e+01 2.68640580716808e-03 3.83652181879037e-05
2.70562500000000e+01 2.57287887856614e-03 3.70620830339765e-05
2.75187500000000e+01 2.46414957342206e-03 3.57979778724261e-05
2.79812500000000e+01 2.36001514520576e-03 3.45721032163638e-05
2.84437500000000e+01 2.26028141541172e-03 3.33836450769816e-05
2.89062500000000e+01 2.16476241147603e-03 3.22317785932084e-05
2.93687500000000e+01 2.07328001999518e-03 3.11156712951696e-05
2.98312500000000e+01 1.98566365459953e-03 3.00344860342154e-05
3.02937500000000e+01 1.90174993786259e-03 2.89873836092740e-05
3.07562500000000e+01 1.82138239665255e-03 2.79735251165701e-05
3.12187500000000e+01 1.74441117035835e-03 2.69920740473183e-05
3.16812500000000e+01 1.67069273144593e-03 2.60421981557886e-05
3.21437500000000e+01 1.60008961782380e-03 2.51230711181612e-05
3.26062500000000e+01 1.53247017651873e-03 2.42338740007879e-05
3.30687500000000e+01 1.46770831818370e-03 2.33737965548455e-05
3.35312500000000e+01 1.40568328198019e-03 2.25420383528949e-05
3.39937500000000e+01 1.34627941039664e-03 2.17378097815152e-05
3.44562500000000e+01 1.28938593358292e-03 2.09603329029664e-05
3.49187500000000e+01 1.23489676279881e-03 2.02088421977239e-05
3.53812500000000e+01 1.18271029259132e-03 1.94825851987231e-05
3.58437500000000e+01 1.13272921133192e-03 1.87808230272255e-05
3.63062500000000e+01 1.08486031976048e-03 1.81028308393873e-05
3.67687500000000e+01 1.03901435719745e-03 1.74478981918398e-05
3.72312500000000e+01 9.95105835100306e-04 1.68153293338925e-05
3.76937500000000e+01 9.53052877653831e-04 1.62044434333310e-05
3.81562500000000e+01 9.12777069097069e-04 1.56145747421948e-05
3.86187500000000e+01 8.74203307502165e-04 1.50450727083868e-05
3.90812500000000e+01 8.37259664732498e-04 1.44953020384724e-05
3.95437500000000e+01 8.01877252318952e-04 1.39646427165794e-05
4.00062500000000e+01 7.67990093004219e-04 1.34524899838928e-05
4.04687500000000e+01 7.35534997715621e-04 1.29582542828659e-05
4.09312500000000e+01 7.04451447737030e-04 1.24813611699182e-05
4.13937500000000e+01 6.74681481860178e-04 1.20212512000699e-05
4.18562500000000e+01 6.46169588304926e-04 1.15773797866760e-05
4.23187500000000e+01 6.18862601206962e-04 1.11492170391479e-05
4.27812500000000e+01 5.92709601479905e-04 1.07362475813049e-05
4.32437500000000e+01 5.67661821866957e-04 1.03379703527739e-05
4.37062500000000e+01 5.43672556005047e-04 9.95389839564098e-06
4.41687500000000e+01 5.20697071331910e-04 9.58355862836999e-06
4.46312500000000e+01 4.98692525673691e-04 9.22649160882686e-06
4.50937500000000e+01 4.77617887357540e-04 8.88225128808339e-06
4.55562500000000e+01 4.57433858700229e-04 8.55040475652596e-06
4.60187500000000e+01 4.38102802730129e-04 8.23053198365736e-06
4.64812500000000e+01 4.19588673005893e-04 7.92222555285262e-06
4.69437500000000e+01 4.01856946400992e-04 7.62509039221389e-06
4.74062500000000e+01 3.84874558728762e-04 7.33874350256180e-06
4.78687500000000e+01 3.68609843087918e-04 7.06281368350260e-06
4.83312500000000e+01 3.53032470813575e-04 6.79694125841999e-06
4.87937500000000e+01 3.38113394923672e-04 6.54077779915618e-06
4.92562500000000e+01 3.23824795955326e-04 6.29398585107184e-06
4.97187500000000e+01 3.10140030090146e-04 6.05623865910320e-06
5.01812500000000e+01 2.97033579471740e-04 5.82721989536980e-06
5.06437500000000e+01 2.84481004622815e-04 5.60662338882777e-06
5.11062500000000e+01 2.72458898873100e-04 5.39415285740875e-06
5.15687500000000e+01 2.60944844713154e-04 5.18952164303403e-06
5.20312500000000e+01 2.49917371992634e-04 4.99245244984887e-06
5.24937500000000e+01 2.39355917885110e-04 4.80267708597867e-06
5.29562500000000e+01 2.29240788544752e-04 4.61993620907089e-06
5.34187500000000e+01 2.19553122383396e-04 4.44397907585159e-06
5.38812500000000e+01 2.10274854899516e-04 4.27456329589238e-06
5.43437500000000e+01 2.01388684993516e-04 4.11145458975500e-06
5.48062500000000e+01 1.92878042706527e-04 3.95442655165363e-06
5.52687500000000e+01 1.84727058322560e-04 3.80326041675016e-06
5.57312500000000e+01 1.76920532776392e-04 3.65774483317569e-06
5.61937500000000e+01 1.69443909312011e-04 3.51767563885119e-06
5.66562500000000e+01 1.62283246338766e-04 3.38285564316172e-06
5.71187500000000e+01 1.55425191434614e-04 3.25309441352152e-06
5.75812500000000e+01 1.48856956447979e-04 3.12820806685288e-06
5.80437500000000e+01 1.42566293651807e-04 3.00801906598727e-06
5.85062500000000e+01 1.36541472905342e-04 2.89235602098497e-06
5.89687500000000e+01 1.30771259781037e-04 2.78105349535863e-06
5.94312500000000e+01 1.25244894615829e-04 2.67395181717583e-06
5.98937500000000e+01 1.19952072447685e-04 2.57089689500681e-06
6.03562500000000e+01 1.14882923800044e-04 2.47174003867581e-06
6.08187500000000e+01 1.10027996278286e-04 2.37633778476689e-06
6.12812500000000e+01 1.05378236943948e-04 2.28455172682907e-06
6.17437500000000e+01 1.00924975433787e-04 2.19624835022028e-06
6.22062500000000e+01 9.66599077922376e-05 2.11129887152423e-06
6.26687500000000e+01 9.25750809870993e-05 2.02957908247060e-06
6.31312500000000e+01 8.86628780795944e-05 1.95096919828474e-06
6.35937500000000e+01 8.49160040211306e-05 1.87535371039055e-06
6.40562500000000e+01 8.13274720502921e-05 1.80262124338715e-06
6.45187500000000e+01 7.78905906646899e-05 1.73266441621779e-06
6.49812500000000e+01 7.45989511433792e-05 1.66537970744777e-06
6.54437500000000e+01 7.14464155965768e-05 1.60066732456672e-06
6.59062500000000e+01 6.84271055203946e-05 1.53843107722919e-06
6.63687500000000e+01 6.55353908352480e-05 1.47857825434726e-06
6.68312500000000e+01 6.27658793874983e-05 1.42101950494782e-06
6.72937500000000e+01 6.01134068947538e-05 1.36566872270717e-06
6.77562500000000e+01 5.75730273160802e-05 1.31244293407556e-06
6.82187500000000e+01 5.51400036291637e-05 1.26126218990436e-06
6.86812500000000e+01 5.28097989972293e-05 1.21204946048898e-06
6.91437500000000e+01 5.05780683092432e-05 1.16473053394109e-06
6.96062500000000e+01 4.84406500776245e-05 1.11923391780454e-06
7.00687500000000e+01 4.63935586783579e-05 1.07549074382989e-06
7.05312500000000e+01 4.44329769190369e-05 1.03343467582360e-06
7.09937500000000e+01 4.25552489209812e-05 9.93001820488929e-07
7.14562500000000e+01 4.07568733021529e-05 9.54130641176639e-07
7.19187500000000e+01 3.90344966481621e-05 9.16761874464741e-07
7.23812500000000e+01 3.73849072591859e-05 8.80838449487932e-07
7.28437500000000e+01 3.58050291611417e-05 8.46305409938591e-07
7.33062500000000e+01 3.42919163699465e-05 8.13109838662603e-07
7.37687500000000e+01 3.28427473981677e-05 7.81200784774664e-07
7.42312500000000e+01 3.14548199938215e-05 7.50529193219267e-07
7.46937500000000e+01 3.01255461015090e-05 7.21047836704896e-07
7.51562500000000e+01 2.88524470364926e-05 6.92711249940636e-07
7.56187500000000e+01 2.76331488627159e-05 6.65475666105761e-07
7.60812500000000e+01 2.64653779661471e-05 6.39298955484539e-07
7.65437500000000e+01 2.53469568151918e-05 6.14140566199952e-07
7.70062500000000e+01 2.42757999002698e-05 5.89961466981555e-07
7.74687500000000e+01 2.32499098449851e-05 5.66724091904335e-07
7.79312500000000e+01 2.22673736816362e-05 5.44392287036895e-07
7.83937500000000e+01 2.13263592841231e-05 5.22931258938813e-07
7.88562500000000e+01 2.04251119515989e-05 5.02307524948616e-07
7.93187500000000e+01 1.95619511364947e-05 4.82488865205278e-07
7.97812500000000e+01 1.87352673108189e-05 4.63444276347615e-07
8.02437500000000e+01 1.79435189648846e-05 4.45143926837496e-07
8.07062500000000e+01 1.71852297328712e-05 4.27559113854220e-07
8.11687500000000e+01 1.64589856398582e-05 4.10662221708814e-07
8.16312500000000e+01 1.57634324651998e-05 3.94426681728519e-07
8.20937500000000e+01 1.50972732173218e-05 3.78826933563001e-07
8.25562500000000e+01 1.44592657152335e-05 3.63838387865317e-07
8.30187500000000e+01 1.38482202722443e-05 3.49437390301962e-07
8.34812500000000e+01 1.32629974775660e-05 3.35601186847617e-07
8.39437500000000e+01 1.27025060716639e-05 3.22307890321585e-07
8.44062500000000e+01 1.21657009113952e-05 3.09536448124132e-07
8.48687500000000e+01 1.16515810211407e-05 2.97266611132184e-07
8.53312500000000e+01 1.11591877262940e-05 2.85478903715109e-07
8.57937500000000e+01 1.06876028656306e-05 2.74154594832439e-07
8.62562500000000e+01 1.02359470792208e-05 2.63275670176574e-07
8.67187500000000e+01 9.80337816869541e-06 2.52824805324686e-07
8.71812500000000e+01 9.38908952680607e-06 2.42785339865087e-07
8.76437500000000e+01 8.99230863335254e-06 2.33141252464470e-07
8.81062500000000e+01 8.61229561467114e-06 2.23877136843438e-07
8.85687500000000e+01 8.24834186399926e-06 2.14978178628801e-07
8.90312500000000e+01 7.89976872014288e-06 2.06430133052111e-07
8.94937500000000e+01 7.56592620198331e-06 1.98219303464886e-07
8.99562500000000e+01 7.24619179646342e-06 1.90332520641919e-07
9.04187500000000e+01 6.93996929779326e-06 1.82757122844996e-07
9.08812500000000e+01 6.64668769571067e-06 1.75480936620264e-07
9.13437500000000e+01 6.36580011072374e-06 1.68492258303331e-07
9.18062500000000e+01 6.09678277434962e-06 1.61779836207069e-07
9.22687500000000e+01 5.83913405244832e-06 1.55332853467881e-07
9.27312500000000e+01 5.59237350983014e-06 1.49140911527041e-07
9.31937500000000e+01 5.35604101439263e-06 1.43194014224438e-07
9.36562500000000e+01 5.12969587911652e-06 1.37482552482881e-07
9.41187500000000e+01 4.91291604032068e-06 1.31997289561783e-07
9.45812500000000e+01 4.70529727064391e-06 1.26729346859824e-07
9.50437500000000e+01 4.50645242528587e-06 1.21670190246827e-07
9.55062500000000e+01 4.31601072010181e-06 1.16811616905789e-07
9.59687500000000e+01 4.13361704020476e-06 1.12145742666660e-07
9.64312500000000e+01 3.95893127778610e-06 1.07664989814048e-07
9.68937500000000e+01 3.79162769791966e-06 1.03362075351709e-07
9.73562500000000e+01 3.63139433116685e-06 9.92299997072012e-08
9.78187500000000e+01 3.47793239185007e-06 9.52620358607106e-08
9.82812500000000e+01 3.33095572090989e-06 9.14517188825840e-08
9.87437500000000e+01 3.19019025230684e-06 8.77928358646430e-08
9.92062500000000e+01 3.05537350197304e-06 8.42794162308831e-08
9.96687500000000e+01 2.92625407836057e-06 8.09057224136548e-08
1.00131250000000e+02 2.80259121367395e-06 7.76662408819177e-08
1.00593750000000e+02 2.68415431491270e-06 7.45556735086317e-08
1.01056250000000e+02 2.57072253388669e-06 7.15689292647976e-08
1.01518750000000e+02 2.46208435540256e-06 6.87011162281063e-08
1.01981250000000e+02 2.35803720285326e-06 6.59475338945797e-08
1.02443750000000e+02 2.25838706047538e-06 6.33036657820006e-08
1.02906250000000e+02 2.16294811156974e-06 6.07651723143271e-08
1.03368750000000e+02 2.07154239201066e-06 5.83278839766742e-08
1.03831250000000e+02 1.98399945839796e-06 5.59877947308123e-08
1.04293750000000e+02 1.90015607023269e-06 5.37410556814952e-08
1.04756250000000e+02 1.81985588552409e-06 5.15839689842841e-08
1.05218750000000e+02 1.74294916926013e-06 4.95129819858604e-08
1.05681250000000e+02 1.66929251419803e-06 4.75246815881483e-08
1.06143750000000e+02 1.59874857345406e-06 4.56157888278847e-08
1.06606250000000e+02 1.53118580439413e-06 4.37831536635727e-08
1.07068750000000e+02 1.46647822334739e-06 4.20237499620497e-08
1.07531250000000e+02 1.40450517068571e-06 4.03346706771823e-08
1.07993750000000e+02 1.34515108583076e-06 3.87131232134717e-08
1.08456250000000e+02 1.28830529176924e-06 3.71564249676200e-08
1.08918750000000e+02 1.23386178867454e-06 3.56619990413585e-08
1.09381250000000e+02 1.18171905624976e-06 3.42273701190826e-08
1.09843750000000e+02 1.13177986442385e-06 3.28501605040788e-08
1.10306250000000e+02 1.08395109204749e-06 3.15280863073565e-08
1.10768750000000e+02 1.03814355325104e-06 3.02589537833132e-08
1.11231250000000e+02 9.94271831140394e-07 2.90406558066805e-08
1.11693750000000e+02 9.52254118520948e-07 2.78711684853959e-08
1.12156250000000e+02 9.12012065352445e-07 2.67485479042511e-08
1.12618750000000e+02 8.73470632650391e-07 2.56709269943506e-08
1.13081250000000e+02 8.36557952561552e-07 2.46365125236034e-08
1.13543750000000e+02 8.01205194352635e-07 2.36435822036451e-08
1.14006250000000e+02 7.67346436062255e-07 2.26904819087599e-08
1.14468750000000e+02 7.34918541576862e-07 2.17756230025358e-08
1.14931250000000e+02 7.03861042901413e-07 2.08974797681460e-08
1.15393750000000e+02 6.74116027405266e-07 2.00545869383023e-08
1.15856250000000e+02 6.45628029833024e-07 1.92455373210737e-08
1.16318750000000e+02 6.18343928878994e-07 1.84689795179053e-08
1.16781250000000e+02 5.92212848132378e-07 1.77236157303119e-08
1.17243750000000e+02 5.67186061208495e-07 1.70081996518502e-08
1.17706250000000e+02 5.43216900889150e-07 1.63215344421014e-08
1.18168750000000e+02 5.20260672102696e-07 1.56624707795196e-08
1.18631250000000e+02 4.98274568581551e-07 1.50299049901207e-08
1.19093750000000e+02 4.77217593041749e-07 1.44227772490961e-08
1.19556250000000e+02 4.57050480735678e-07 1.38400698525509e-08
1.20018750000000e+02 4.37735626235472e-07 1.32808055566671e-08
1.20481250000000e+02 4.19237013310514e-07 1.27440459816983e-08
1.20943750000000e+02 4.01520147768310e-07 1.22288900782962e-08
1.21406250000000e+02 3.84551993133480e-07 1.17344726537682e-08
1.21868750000000e+02 3.68300909044951e-07 1.12599629559528e-08
1.22331250000000e+02 3.52736592256471e-07 1.08045633124887e-08
1.22793750000000e+02 3.37830020130421e-07 1.03675078233387e-08
1.23256250000000e+02 3.23553396519572e-07 9.94806110450801e-09
1.23718750000000e+02 3.09880099935868e-07 9.54551708097869e-09
1.24181250000000e+02 2.96784633909584e-07 9.15919782695380e-09
1.24643750000000e+02 2.84242579446292e-07 8.78845245157937e-09
1.25106250000000e+02 2.72230549492988e-07 8.43265602838178e-09
1.25568750000000e+02 2.60726145328475e-07 8.09120856672496e-09
1.26031250000000e+02 2.49707914796667e-07 7.76353402365685e-09
1.26493750000000e+02 2.39155312304959e-07 7.44907935457715e-09
1.26956250000000e+02 2.29048660513046e-07 7.14731360121786e-09
1.27418750000000e+02 2.19369113640771e-07 6.85772701548589e-09
1.27881250000000e+02 2.10098622326571e-07 6.57983021777334e-09
1.28343750000000e+02 2.01219899971002e-07 6.31315338839362e-09
1.28806250000000e+02 1.92716390502572e-07 6.05724549085327e-09
1.29268750000000e+02 1.84572237505794e-07 5.81167352571945e-09
1.29731250000000e+02 1.76772254653870e-07 5.57602181389010e-09
1.30193750000000e+02 1.69301897390888e-07 5.34989130811962e-09
1.30656250000000e+02 1.62147235810727e-07 5.13289893169791e-09
1.31118750000000e+02 1.55294928682084e-07 4.92467694322193e-09
1.31581250000000e+02 1.48732198571207e-07 4.72487232644048e-09
1.32043750000000e+02 1.42446808015935e-07 4.53314620419238e-09
1.32506250000000e+02 1.36427036706608e-07 4.34917327549548e-09
1.32968750000000e+02 1.30661659631321e-07 4.17264127488072e-09
1.33431250000000e+02 1.25139926144744e-07 4.00325045310030e-09
1.33893750000000e+02 1.19851539921494e-07 3.84071307837292e-09
1.34356250000000e+02 1.14786639756673e-07 3.68475295736133e-09
1.34818750000000e+02 1.09935781177772e-07 3.53510497510826e-09
1.35281250000000e+02 1.05289918833644e-07 3.39151465318733e-09
1.35743750000000e+02 1.00840389627731e-07 3.25373772535424e-09
1.36206250000000e+02 9.65788965640570e-08 3.12153973001083e-09
1.36668750000000e+02 9.24974932759068e-08 2.99469561882194e-09
1.37131250000000e+02 8.85885692083022e-08 2.87298938085004e-09
1.37593750000000e+02 8.48448354266735e-08 2.75621368159770e-09
1.38056250000000e+02 8.12593110252500e-08 2.64416951637162e-09
1.38518750000000e+02 7.78253101098295e-08 2.53666587740453e-09
1.38981250000000e+02 7.45364293306533e-08 2.43351943419331e-09
1.39443750000000e+02 7.13865359421392e-08 2.33455422653311e-09
1.39906250000000e+02 6.83697563672074e-08 2.23960136974705e-09
1.40368750000000e+02 6.54804652448753e-08 2.14849877163077e-09
1.40831250000000e+02 6.27132749406996e-08 2.06109086065001e-09
1.41293750000000e+02 6.00630255005036e-08 1.97722832494728e-09
1.41756250000000e+02 5.75247750286584e-08 1.89676786173101e-09
1.42218750000000e+02 5.50937904729760e-08 1.81957193663728e-09
1.42681250000000e+02 5.27655387990306e-08 1.74550855267030e-09
1.43143750000000e+02 5.05356785374512e-08 1.67445102834317e-09
1.43606250000000e+02 4.84000516884237e-08 1.60627778465526e-09
1.44068750000000e+02 4.63546759683072e-08 1.54087214055679e-09
1.44531250000000e+02 4.43957373839063e-08 1.47812211656488e-09
1.44993750000000e+02 4.25195831205539e-08 1.41792024620868e-09
1.45456250000000e+02 4.07227147307406e-08 1.36016339499336e-09
1.45918750000000e+02 3.90017816105924e-08 1.30475258658543e-09
