Energy (eV)          EEDF (eV^-(3/2))     First Anisotropy
4.77777777777778e-02 1.00925905106262e-01 8.86990719180901e-05
1.43333333333333e-01 9.90030018760223e-02 1.45561433739843e-04
2.38888888888889e-01 9.71167349985146e-02 1.89772437356410e-04
3.34444444444444e-01 9.52664064492005e-02 2.21943028625736e-04
4.30000000000000e-01 9.34513315160449e-02 2.47625987128751e-04
5.25555555555556e-01 9.16708385196080e-02 2.68960923983074e-04
6.21111111111111e-01 8.99242685869788e-02 2.87075065884454e-04
7.16666666666667e-01 8.82109753917498e-02 3.02660912621818e-04
8.12222222222222e-01 8.65303249271867e-02 3.16185435467525e-04
9.07777777777778e-01 8.48816952615692e-02 3.27984020811041e-04
1.00333333333333e+00 8.32644763147636e-02 3.38308808381240e-04
1.09888888888889e+00 8.16780696333348e-02 3.47356042842033e-04
1.19444444444444e+00 8.01218881541508e-02 3.55282677061486e-04
1.29000000000000e+00 7.85953560214316e-02 3.62217021039486e-04
1.38555555555556e+00 7.70979083249176e-02 3.68265872622942e-04
1.48111111111111e+00 7.56289909407407e-02 3.73519468485356e-04
1.57666666666667e+00 7.41880602815273e-02 3.78055026421763e-04
1.67222222222222e+00 7.27745831357779e-02 3.81939343897821e-04
1.76777777777778e+00 7.13880364336651e-02 3.85230748301523e-04
1.86333333333333e+00 7.00279070798309e-02 3.87980584834870e-04
1.95888888888889e+00 6.86936917620651e-02 3.90234378435920e-04
2.05444444444444e+00 6.73848967428943e-02 3.92032745935196e-04
2.15000000000000e+00 6.61010377054248e-02 3.93412127389891e-04
2.24555555555556e+00 6.48416395476905e-02 3.94405377935918e-04
2.34111111111111e+00 6.36062362313731e-02 3.95042251435378e-04
2.43666666666667e+00 6.23943705865017e-02 3.95349800447153e-04
2.53222222222222e+00 6.12055941635923e-02 3.95352709164327e-04
2.62777777777778e+00 6.00394670477551e-02 3.95073573938700e-04
2.72333333333333e+00 5.88955577103926e-02 3.94533138696902e-04
2.81888888888889e+00 5.77734428488259e-02 3.93750499307513e-04
2.91444444444444e+00 5.66727072170407e-02 3.92743275548955e-04
3.01000000000000e+00 5.55929434884287e-02 3.91527761017525e-04
3.10555555555556e+00 5.45337520895948e-02 3.90119053214666e-04
3.20111111111111e+00 5.34947410670848e-02 3.88531166741035e-04
3.29666666666667e+00 5.24755259285506e-02 3.86777132823918e-04
3.39222222222222e+00 5.14757295135189e-02 3.84869086693750e-04
3.48777777777778e+00 5.04949818414553e-02 3.82818345381815e-04
3.58333333333333e+00 4.95329199839053e-02 3.80635475280730e-04
3.67888888888889e+00 4.85891879298000e-02 3.78330355060938e-04
3.77444444444444e+00 4.76634364456968e-02 3.75912229408713e-04
3.87000000000000e+00 4.67553229570263e-02 3.73389758369191e-04
3.96555555555556e+00 4.58645114113492e-02 3.70771061719354e-04
4.06111111111111e+00 4.49906721634948e-02 3.68063758821905e-04
4.15666666666667e+00 4.41334818445252e-02 3.65275004910293e-04
4.25222222222222e+00 4.32926232507022e-02 3.62411523836865e-04
4.34777777777778e+00 4.24677852178677e-02 3.59479638256980e-04
4.44333333333333e+00 4.16586625123533e-02 3.56485296025747e-04
4.53888888888889e+00 4.08649557177806e-02 3.53434096382853e-04
4.63444444444445e+00 4.00863711188421e-02 3.50331312009537e-04
4.73000000000000e+00 3.93226205997193e-02 3.47181910146523e-04
4.82555555555556e+00 3.85734215306623e-02 3.43990571976570e-04
4.92111111111111e+00 3.78384966699148e-02 3.40761710337917e-04
5.01666666666667e+00 3.71175740548802e-02 3.37499486225156e-04
5.11222222222222e+00 3.64103869074620e-02 3.34207823910305e-04
5.20777777777778e+00 3.57166735296059e-02 3.30890425235704e-04
5.30333333333333e+00 3.50361772106871e-02 3.27550782001169e-04
5.39888888888889e+00 3.43686461323480e-02 3.24192189054164e-04
5.49444444444444e+00 3.37138332715021e-02 3.20817754967352e-04
5.59000000000000e+00 3.30714963139309e-02 3.17430412662423e-04
5.68555555555556e+00 3.24413975598027e-02 3.14032929279398e-04
5.78111111111111e+00 3.18233038403361e-02 3.10627915281523e-04
5.87666666666667e+00 3.12169864270681e-02 3.07217833077572e-04
5.97222222222222e+00 3.06222209514902e-02 3.03805004987926e-04
6.06777777777778e+00 3.00387873179036e-02 3.00391620928224e-04
6.16333333333333e+00 2.94664696250138e-02 2.96979744937731e-04
6.25888888888889e+00 2.89050560859198e-02 2.93571322544003e-04
6.35444444444444e+00 2.83543389469889e-02 2.90168186507172e-04
6.45000000000000e+00 2.78141144146012e-02 2.86772062755904e-04
6.54555555555556e+00 2.72841825762430e-02 2.83384575940463e-04
6.64111111111111e+00 2.67643473298946e-02 2.80007254579041e-04
6.73666666666667e+00 2.62544163082168e-02 2.76641535993364e-04
6.83222222222222e+00 2.57542008104944e-02 2.73288770885711e-04
6.92777777777778e+00 2.52635157297883e-02 2.69950227831110e-04
7.02333333333333e+00 2.47821794866692e-02 2.66627096988759e-04
7.11888888888889e+00 2.43100139619416e-02 2.63320494584998e-04
7.21444444444445e+00 2.38468444287001e-02 2.60031466224795e-04
7.31000000000000e+00 2.33924994903465e-02 2.56760990449325e-04
7.40555555555556e+00 2.29468110145809e-02 2.53509982076293e-04
7.50111111111111e+00 2.25096140736789e-02 2.50279295299674e-04
7.59666666666667e+00 2.20807468810489e-02 2.47069726693260e-04
7.69222222222222e+00 2.16600507336920e-02 2.43882017998049e-04
7.78777777777778e+00 2.12473699512221e-02 2.40716858901696e-04
7.88333333333333e+00 2.08425518199236e-02 2.37574889255542e-04
7.97888888888889e+00 2.04454465361784e-02 2.34456701953967e-04
8.07444444444445e+00 2.00559071495114e-02 2.31362844931336e-04
8.17000000000000e+00 1.96737895102153e-02 2.28293823397850e-04
8.26555555555556e+00 1.92989522140691e-02 2.25250101941599e-04
8.36111111111111e+00 1.89312565518866e-02 2.22232106477147e-04
8.45666666666667e+00 1.85705664563716e-02 2.19240226150511e-04
8.55222222222222e+00 1.82167484535222e-02 2.16274815104383e-04
8.64777777777778e+00 1.78696716115385e-02 2.13336194265302e-04
8.74333333333333e+00 1.75292074936312e-02 2.10424652709780e-04
8.83888888888889e+00 1.71952301104479e-02 2.07540449583627e-04
8.93444444444444e+00 1.68676158722996e-02 2.04683815340215e-04
9.03000000000000e+00 1.65462435449453e-02 2.01854953191320e-04
9.12555555555556e+00 1.62309942032573e-02 1.99054040470516e-04
9.22111111111111e+00 1.59217511886384e-02 1.96281229893234e-04
9.31666666666667e+00 1.56184000644704e-02 1.93536650798674e-04
9.41222222222222e+00 1.53208285751056e-02 1.90820410296709e-04
9.50777777777778e+00 1.50289266030282e-02 1.88132594447031e-04
9.60333333333333e+00 1.47425861290682e-02 1.85473269115281e-04
9.69888888888889e+00 1.44617011923942e-02 1.82842481285874e-04
9.79444444444444e+00 1.41861678504217e-02 1.80240259840955e-04
9.89000000000000e+00 1.39158841415123e-02 1.77666616521690e-04
9.98555555555556e+00 1.36507500461142e-02 1.75121546705816e-04
1.00811111111111e+01 1.33906674516050e-02 1.72605030776220e-04
1.01766666666667e+01 1.31355401116149e-02 1.70117034000194e-04
1.02722222222222e+01 1.28852736180126e-02 1.67657508110312e-04
1.03677777777778e+01 1.26397753565173e-02 1.65226392116012e-04
1.04633333333333e+01 1.23989544798450e-02 1.62823611435280e-04
1.05588888888889e+01 1.21627218738291e-02 1.60449080966032e-04
1.06544444444444e+01 1.19309901176474e-02 1.58102704195067e-04
1.07500000000000e+01 1.17036734604557e-02 1.55784374098662e-04
1.08455555555556e+01 1.14806877809356e-02 1.53493973865025e-04
1.09411111111111e+01 1.12619505646295e-02 1.51231377328188e-04
1.10366666666667e+01 1.10473808651883e-02 1.48996449632985e-04
1.11322222222222e+01 1.08368992823959e-02 1.46789047627335e-04
1.12277777777778e+01 1.06304279250389e-02 1.44609020780159e-04
1.13233333333333e+01 1.04278903878383e-02 1.42456210307876e-04
1.14188888888889e+01 1.02292117229748e-02 1.40330451561563e-04
1.15144444444444e+01 1.00343184070747e-02 1.38231573216036e-04
1.16100000000000e+01 9.84313832098426e-03 1.36159397912135e-04
1.17055555555556e+01 9.65560071629984e-03 1.34113742756890e-04
1.18011111111111e+01 9.47163619577572e-03 1.32094419595987e-04
1.18966666666667e+01 9.29117668124206e-03 1.30101235474625e-04
1.19922222222222e+01 9.11415539463248e-03 1.28133992882768e-04
1.20877777777778e+01 8.94050682722823e-03 1.26192490427597e-04
1.21833333333333e+01 8.77016671990835e-03 1.24276522058413e-04
1.22788888888889e+01 8.60307203921527e-03 1.22385878936355e-04
1.23744444444444e+01 8.43916094990371e-03 1.20520348714550e-04
1.24700000000000e+01 8.27837279751611e-03 1.18679715999560e-04
1.25655555555556e+01 8.12064808063202e-03 1.16863762698675e-04
1.26611111111111e+01 7.96592843400683e-03 1.15072268186277e-04
1.27566666666667e+01 7.81415660195939e-03 1.13305009623824e-04
1.28522222222222e+01 7.66527642205957e-03 1.11561762108246e-04
1.29477777777778e+01 7.51923279960476e-03 1.09842299168103e-04
1.30433333333333e+01 7.37597169075603e-03 1.08146392086455e-04
1.31388888888889e+01 7.23544008241818e-03 1.06473811374088e-04
1.32344444444444e+01 7.09758596938236e-03 1.04824326140150e-04
1.33300000000000e+01 6.96235833936886e-03 1.03197704425002e-04
1.34255555555556e+01 6.82970714997967e-03 1.01593713440920e-04
1.35211111111111e+01 6.69958331423652e-03 1.00012119668218e-04
1.36166666666667e+01 6.57193867847012e-03 9.84526890767757e-05
1.37122222222222e+01 6.44672600833959e-03 9.69151872102753e-05
1.38077777777778e+01 6.32389896761839e-03 9.53993795540174e-05
1.39033333333333e+01 6.20341210382500e-03 9.39050309492471e-05
1.39988888888889e+01 6.08522083130833e-03 9.24319067595038e-05
1.40944444444444e+01 5.96928141219322e-03 9.09797723257574e-05
1.41900000000000e+01 5.85555094357802e-03 8.95483932067406e-05
1.42855555555556e+01 5.74398733836614e-03 8.81375353446269e-05
1.43811111111111e+01 5.63454931289550e-03 8.67469651146519e-05
1.44766666666667e+01 5.52719636854311e-03 8.53764494772215e-05
1.45722222222222e+01 5.42188877977356e-03 8.40257560197196e-05
1.46677777777778e+01 5.31858757648408e-03 8.26946532299158e-05
1.47633333333333e+01 5.21725453178131e-03 8.13829099927661e-05
1.48588888888889e+01 5.11785214776072e-03 8.00902965173646e-05
1.49544444444444e+01 5.02034363960687e-03 7.88165838683550e-05
1.50500000000000e+01 4.92469292466057e-03 7.75615441391543e-05
1.51455555555556e+01 4.83086460645756e-03 7.63249505645096e-05
1.52411111111111e+01 4.73882396417004e-03 7.51065775395540e-05
1.53366666666667e+01 4.64853693728485e-03 7.39062007227364e-05
1.54322222222222e+01 4.55997011540759e-03 7.27235970498015e-05
1.55277777777778e+01 4.47309072355379e-03 7.15585449372219e-05
1.56233333333333e+01 4.38786661176547e-03 7.04108238518576e-05
1.57188888888889e+01 4.30426624315504e-03 6.92802150499629e-05
1.58144444444444e+01 4.22225868062713e-03 6.81665011760603e-05
1.59100000000000e+01 4.14181357755974e-03 6.70694663872085e-05
1.60055555555556e+01 4.06290116450021e-03 6.59888964278525e-05
1.61011111111111e+01 3.98549224016928e-03 6.49245786291264e-05
1.61966666666667e+01 3.90955815868708e-03 6.38763019768610e-05
1.62922222222222e+01 3.83507082088974e-03 6.28438571076695e-05
1.63877777777778e+01 3.76200266206358e-03 6.18270364602177e-05
1.64833333333333e+01 3.69032664313469e-03 6.08256339083862e-05
1.65788888888889e+01 3.62001624061633e-03 5.98394453519949e-05
1.66744444444444e+01 3.55104543551238e-03 5.88682683745494e-05
1.67700000000000e+01 3.48338870538649e-03 5.79119023316841e-05
1.68655555555556e+01 3.41702101326335e-03 5.69701483992669e-05
1.69611111111111e+01 3.35191779997543e-03 5.60428095603007e-05
1.70566666666667e+01 3.28805497350425e-03 5.51296906481839e-05
1.71522222222222e+01 3.22540890159550e-03 5.42305983316535e-05
1.72477777777778e+01 3.16395640152239e-03 5.33453412270252e-05
1.73433333333333e+01 3.10367473261708e-03 5.24737295862305e-05
1.74388888888889e+01 3.04454158781825e-03 5.16155757700394e-05
1.75344444444444e+01 2.98653508439219e-03 5.07706939567517e-05
1.76300000000000e+01 2.92963375719193e-03 4.99389002043839e-05
1.77255555555556e+01 2.87381654939143e-03 4.91200124798840e-05
1.78211111111111e+01 2.81906280598259e-03 4.83138506386381e-05
1.79166666666667e+01 2.76535226487519e-03 4.75202364502716e-05
1.80122222222222e+01 2.71266505062377e-03 4.67389935770685e-05
1.81077777777778e+01 2.66098166587856e-03 4.59699476569205e-05
1.82033333333333e+01 2.61028298505950e-03 4.52129260384974e-05
1.82988888888889e+01 2.56055024724911e-03 4.44677581610523e-05
1.83944444444444e+01 2.51176504842943e-03 4.37342753069072e-05
1.84900000000000e+01 2.46390933575891e-03 4.30123106444147e-05
1.85855555555556e+01 2.41696539983174e-03 4.23016992439299e-05
1.86811111111111e+01 2.37091586915810e-03 4.16022780533307e-05
1.87766666666667e+01 2.32574370272791e-03 4.09138859116090e-05
1.88722222222222e+01 2.28143218468751e-03 4.02363635238856e-05
1.89677777777778e+01 2.23796491719564e-03 3.95695535223605e-05
1.90633333333333e+01 2.19532581506893e-03 3.89133002417921e-05
1.91588888888889e+01 2.15349909980585e-03 3.82674500248002e-05
1.92544444444444e+01 2.11246929308896e-03 3.76318510118522e-05
1.93500000000000e+01 2.07222121193029e-03 3.70063531701844e-05
1.94455555555556e+01 2.03273996220133e-03 3.63908083005999e-05
1.95411111111111e+01 1.99401093395182e-03 3.57850700112974e-05
1.96366666666667e+01 1.95601979519339e-03 3.51889937230336e-05
1.97322222222222e+01 1.91875248738592e-03 3.46024366428289e-05
1.98277777777778e+01 1.88219521946462e-03 3.40252578083997e-05
1.99233333333333e+01 1.84633446331048e-03 3.34573178979961e-05
2.00188888888889e+01 1.81115694872512e-03 3.28984794761472e-05
2.01144444444444e+01 1.77664965799008e-03 3.23486068156506e-05
2.02100000000000e+01 1.74279982175214e-03 3.18075659162899e-05
2.03055555555556e+01 1.70959491361264e-03 3.12752245053981e-05
2.04011111111111e+01 1.67702264616064e-03 3.07514520115052e-05
2.04966666666667e+01 1.64507096577364e-03 3.02361195638060e-05
2.05922222222222e+01 1.61372804879349e-03 2.97290999659373e-05
2.06877777777778e+01 1.58298229653014e-03 2.92302677280134e-05
2.07833333333333e+01 1.55282233143199e-03 2.87394989056869e-05
2.08788888888889e+01 1.52323699286029e-03 2.82566712981851e-05
2.09744444444444e+01 1.49421533253182e-03 2.77816642975467e-05
2.10700000000000e+01 1.46574661103393e-03 2.73143588999765e-05
2.11655555555556e+01 1.43782029329763e-03 2.68546377022893e-05
2.12611111111111e+01 1.41042604523844e-03 2.64023848763521e-05
2.13566666666667e+01 1.38355372940588e-03 2.59574861648195e-05
2.14522222222222e+01 1.35719340174571e-03 2.55198288558607e-05
2.15477777777778e+01 1.33133530741890e-03 2.50893018059192e-05
2.16433333333333e+01 1.30596987756519e-03 2.46657953035850e-05
2.17388888888889e+01 1.28108772574981e-03 2.42492012293426e-05
2.18344444444444e+01 1.25667964414490e-03 2.38394129279623e-05
2.19300000000000e+01 1.23273660057964e-03 2.34363252145986e-05
2.20255555555556e+01 1.20924973475141e-03 2.30398343686325e-05
2.21211111111111e+01 1.18621035538272e-03 2.26498381095056e-05
2.22166666666667e+01 1.16360993657972e-03 2.22662355901288e-05
2.23122222222222e+01 1.14144011509223e-03 2.18889273730903e-05
2.24077777777778e+01 1.11969268681377e-03 2.15178154465001e-05
2.25033333333333e+01 1.09835960404748e-03 2.11528031089011e-05
2.25988888888889e+01 1.07743297251807e-03 2.07937950982379e-05
2.26944444444444e+01 1.05690504817148e-03 2.04406974839022e-05
2.27900000000000e+01 1.03676823467923e-03 2.00934176691343e-05
2.28855555555556e+01 1.01701508026610e-03 1.97518643833411e-05
2.29811111111111e+01 9.97638275305260e-04 1.94159476596585e-05
2.30766666666667e+01 9.78630649269058e-04 1.90855788270327e-05
2.31722222222222e+01 9.59985168411588e-04 1.87606704882034e-05
2.32677777777778e+01 9.41694932837795e-04 1.84411365304163e-05
2.33633333333333e+01 9.23753174194586e-04 1.81268920281556e-05
2.34588888888889e+01 9.06153253158162e-04 1.78178533473428e-05
2.35544444444444e+01 8.88888656751039e-04 1.75139380540412e-05
2.36500000000000e+01 8.71952996231707e-04 1.72150649143112e-05
2.37455555555556e+01 8.55340004437759e-04 1.69211538857645e-05
2.38411111111111e+01 8.39043533752476e-04 1.66321260970144e-05
2.39366666666667e+01 8.23057553550878e-04 1.63479038391283e-05
2.40322222222222e+01 8.07376148240481e-04 1.60684105455154e-05
2.41277777777778e+01 7.91993514806243e-04 1.57935707988589e-05
2.42233333333333e+01 7.76903960861353e-04 1.55233102489324e-05
2.43188888888889e+01 7.62101902534255e-04 1.52575556968384e-05
2.44144444444444e+01 7.47581862218949e-04 1.49962350178268e-05
2.45100000000000e+01 7.33338466791183e-04 1.47392771594467e-05
2.46055555555556e+01 7.19366445382641e-04 1.44866121328638e-05
2.47011111111111e+01 7.05660627662328e-04 1.42381709942350e-05
2.47966666666667e+01 6.92215941696838e-04 1.39938858360184e-05
2.48922222222222e+01 6.79027412294590e-04 1.37536897687826e-05
2.49877777777778e+01 6.66090158948810e-04 1.35175169253790e-05
2.50833333333333e+01 6.53399394192424e-04 1.32853023915206e-05
2.51788888888889e+01 6.40950421821178e-04 1.30569822739176e-05
2.52744444444444e+01 6.28738635006872e-04 1.28324936350435e-05
2.53700000000000e+01 6.16759514790115e-04 1.26117744902029e-05
2.54655555555556e+01 6.05008628215170e-04 1.23947637989639e-05
2.55611111111111e+01 5.93481626877912e-04 1.21814014484219e-05
2.56566666666667e+01 5.82174245132703e-04 1.19716282446878e-05
2.57522222222222e+01 5.71082298693571e-04 1.17653858965663e-05
2.58477777777778e+01 5.60201682910297e-04 1.15626170177409e-05
2.59433333333333e+01 5.49528371380292e-04 1.13632650681412e-05
2.60388888888889e+01 5.39058414454357e-04 1.11672744090785e-05
2.61344444444444e+01 5.28787937654005e-04 1.09745902481223e-05
2.62300000000000e+01 5.18713140398326e-04 1.07851586355275e-05
2.63255555555556e+01 5.08830294440683e-04 1.05989264560152e-05
2.64211111111111e+01 4.99135742642301e-04 1.04158414138361e-05
2.65166666666667e+01 4.89625897469256e-04 1.02358520246462e-05
2.66122222222222e+01 4.80297239811100e-04 1.00589076009591e-05
2.67077777777778e+01 4.71146317535787e-04 9.88495825291856e-06
2.68033333333333e+01 4.62169744318667e-04 9.71395483878684e-06
2.68988888888889e+01 4.53364198385892e-04 9.54584900957557e-06
2.69944444444444e+01 4.44726421186630e-04 9.38059316247274e-06
2.70900000000000e+01 4.36253216317973e-04 9.21814043694974e-06
2.71855555555556e+01 4.27941448214370e-04 9.05844470703281e-06
2.72811111111111e+01 4.19788041112084e-04 8.90146056804683e-06
2.73766666666667e+01 4.11789977789097e-04 8.74714332900655e-06
2.74722222222222e+01 4.03944298567661e-04 8.59544899971867e-06
2.75677777777778e+01 3.96248100102722e-04 8.44633429057630e-06
2.76633333333333e+01 3.88698534394264e-04 8.29975657075293e-06
2.77588888888889e+01 3.81292807730569e-04 8.15567390434088e-06
2.78544444444444e+01 3.74028179574091e-04 8.01404501100802e-06
2.79500000000000e+01 3.66901961653859e-04 7.87482926200680e-06
2.80455555555556e+01 3.59911516866570e-04 7.73798667301716e-06
2.81411111111111e+01 3.53054258402436e-04 7.60347789243719e-06
2.82366666666667e+01 3.46327648688548e-04 7.47126419435718e-06
2.83322222222222e+01 3.39729198546939e-04 7.34130746717799e-06
2.84277777777778e+01 3.33256466178583e-04 7.21357021274705e-06
2.85233333333333e+01 3.26907056330535e-04 7.08801551106203e-06
2.86188888888889e+01 3.20678619407256e-04 6.96460704953986e-06
2.87144444444444e+01 3.14568850535641e-04 6.84330908978443e-06
2.88100000000000e+01 3.08575488798996e-04 6.72408646365038e-06
2.89055555555556e+01 3.02696316315463e-04 6.60690456669313e-06
2.90011111111111e+01 2.96929157500266e-04 6.49172934786761e-06
2.90966666666667e+01 2.91271878179539e-04 6.37852730311208e-06
2.91922222222222e+01 2.85722384879810e-04 6.26726546534278e-06
2.92877777777778e+01 2.80278623975874e-04 6.15791140316974e-06
2.93833333333333e+01 2.74938580988574e-04 6.05043319109839e-06
2.94788888888889e+01 2.69700279837464e-04 5.94479943323818e-06
2.95744444444444e+01 2.64561782056079e-04 5.84097923523482e-06
2.96700000000000e+01 2.59521186145555e-04 5.73894220049126e-06
2.97655555555556e+01 2.54576626801631e-04 5.63865842422876e-06
2.98611111111111e+01 2.49726274292154e-04 5.54009848445465e-06
2.99566666666667e+01 2.44968333713757e-04 5.44323343615652e-06
3.00522222222222e+01 2.40301044392368e-04 5.34803480253562e-06
3.01477777777778e+01 2.35722679168417e-04 5.25447457347458e-06
