Energy (eV)          EEDF (eV^-(3/2))     First Anisotropy
9.01785714285714e-03 2.25942088724156e-01 1.13128454664278e-04
2.70535714285714e-02 2.24548757147277e-01 1.86859419822805e-04
4.50892857142857e-02 2.23164017916846e-01 2.46813899210613e-04
6.31250000000000e-02 2.21787818046825e-01 2.92446071499695e-04
8.11607142857143e-02 2.20420104878894e-01 3.30573708271689e-04
9.91964285714286e-02 2.19060826075165e-01 3.63771846378028e-04
1.17232142857143e-01 2.17709929618821e-01 3.93371757119823e-04
1.35267857142857e-01 2.16367363826354e-01 4.20176583500648e-04
1.53303571428571e-01 2.15033077322884e-01 4.44718479017104e-04
1.71339285714286e-01 2.13707019043435e-01 4.67373201142623e-04
1.89375000000000e-01 2.12389138255321e-01 4.88418642584661e-04
2.07410714285714e-01 2.11079384529209e-01 5.08067705996369e-04
2.25446428571429e-01 2.09777707746962e-01 5.26488114580960e-04
2.43482142857143e-01 2.08484058094397e-01 5.43815021732048e-04
2.61517857142857e-01 2.07198386075803e-01 5.60159396811243e-04
2.79553571428571e-01 2.05920642494610e-01 5.75613804418515e-04
2.97589285714286e-01 2.04650778453520e-01 5.90256503230066e-04
3.15625000000000e-01 2.03388745365839e-01 6.04154434863798e-04
3.33660714285714e-01 2.02134494939710e-01 6.17365448112690e-04
3.51696428571429e-01 2.00887979181121e-01 6.29939984200665e-04
3.69732142857143e-01 1.99649150388754e-01 6.41922376701183e-04
3.87767857142857e-01 1.98417961162398e-01 6.53351870514566e-04
4.05803571428571e-01 1.97194364390485e-01 6.64263430536407e-04
4.23839285714286e-01 1.95978313249173e-01 6.74688387132660e-04
4.41875000000000e-01 1.94769761209338e-01 6.84654963061395e-04
4.59910714285714e-01 1.93568662025687e-01 6.94188704769056e-04
4.77946428571429e-01 1.92374969738123e-01 7.03312837246014e-04
4.95982142857143e-01 1.91188638667628e-01 7.12048559731572e-04
5.14017857142857e-01 1.90009623421774e-01 7.20415295158482e-04
5.32053571428571e-01 1.88837878885505e-01 7.28430901345796e-04
5.50089285714286e-01 1.87673360219903e-01 7.36111847635823e-04
5.68125000000000e-01 1.86516022866913e-01 7.43473368854571e-04
5.86160714285714e-01 1.85365822541013e-01 7.50529597485466e-04
6.04196428571429e-01 1.84222715229787e-01 7.57293676642394e-04
6.22232142857143e-01 1.83086657190435e-01 7.63777858290692e-04
6.40267857142857e-01 1.81957604953625e-01 7.69993590068807e-04
6.58303571428571e-01 1.80835515316169e-01 7.75951591708648e-04
6.76339285714286e-01 1.79720345339678e-01 7.81661919703248e-04
6.94375000000000e-01 1.78612052353927e-01 7.87134026907788e-04
7.12410714285714e-01 1.77510593950095e-01 7.92376815127101e-04
7.30446428571429e-01 1.76415927980892e-01 7.97398680746834e-04
7.48482142857143e-01 1.75328012557508e-01 8.02207555503717e-04
7.66517857142857e-01 1.74246806052395e-01 8.06810943945969e-04
7.84553571428572e-01 1.73172267093198e-01 8.11215957334438e-04
8.02589285714286e-01 1.72104354561385e-01 8.15429341883211e-04
8.20625000000000e-01 1.71043027594697e-01 8.19457506440250e-04
8.38660714285714e-01 1.69988245581480e-01 8.23306547306103e-04
8.56696428571429e-01 1.68939968160524e-01 8.26982269732447e-04
8.74732142857143e-01 1.67898155218342e-01 8.30490207509251e-04
8.92767857142857e-01 1.66862766891225e-01 8.33835641675707e-04
9.10803571428571e-01 1.65833763560059e-01 8.37023617842975e-04
9.28839285714286e-01 1.64811105848966e-01 8.40058960013450e-04
9.46875000000000e-01 1.63794754627123e-01 8.42946285210777e-04
9.64910714285714e-01 1.62784671003877e-01 8.45690016709405e-04
9.82946428571429e-01 1.61780816328407e-01 8.48294395303035e-04
1.00098214285714e+00 1.60783152187258e-01 8.50763489728594e-04
1.01901785714286e+00 1.59791640405873e-01 8.53101206272119e-04
1.03705357142857e+00 1.58806243047817e-01 8.55311302001602e-04
1.05508928571429e+00 1.57826922397533e-01 8.57397386663284e-04
1.07312500000000e+00 1.56853640990630e-01 8.59362935107951e-04
1.09116071428571e+00 1.55886361575526e-01 8.61211293635909e-04
1.10919642857143e+00 1.54925047148231e-01 8.62945686535119e-04
1.12723214285714e+00 1.53969660915417e-01 8.64569222683775e-04
1.14526785714286e+00 1.53020166327851e-01 8.66084899354834e-04
1.16330357142857e+00 1.52076527052905e-01 8.67495615319689e-04
1.18133928571429e+00 1.51138706974261e-01 8.68804164753159e-04
1.19937500000000e+00 1.50206670214199e-01 8.70013249420416e-04
1.21741071428571e+00 1.49280381100657e-01 8.71125481500935e-04
1.23544642857143e+00 1.48359804196864e-01 8.72143387560572e-04
1.25348214285714e+00 1.47444904269538e-01 8.73069412736567e-04
1.27151785714286e+00 1.46535646317446e-01 8.73905922547540e-04
1.28955357142857e+00 1.45631995547668e-01 8.74655213278724e-04
1.30758928571429e+00 1.44733917375132e-01 8.75319505055629e-04
1.32562500000000e+00 1.43841377441769e-01 8.75900951638866e-04
1.34366071428571e+00 1.42954341587894e-01 8.76401641810125e-04
1.36169642857143e+00 1.42072775877743e-01 8.76823601902481e-04
1.37973214285714e+00 1.41196646571778e-01 8.77168798598986e-04
1.39776785714286e+00 1.40325920151356e-01 8.77439139650819e-04
1.41580357142857e+00 1.39460563298002e-01 8.77636482488803e-04
1.43383928571429e+00 1.38600542892842e-01 8.77762627096785e-04
1.45187500000000e+00 1.37745826033214e-01 8.77819324211296e-04
1.46991071428571e+00 1.36896380007576e-01 8.77808275894077e-04
1.48794642857143e+00 1.36052172317704e-01 8.77731137205155e-04
1.50598214285714e+00 1.35213170654369e-01 8.77589518159434e-04
1.52401785714286e+00 1.34379342918822e-01 8.77384983826000e-04
1.54205357142857e+00 1.33550657204544e-01 8.77119061697418e-04
1.56008928571429e+00 1.32727081796609e-01 8.76793234668091e-04
1.57812500000000e+00 1.31908585186203e-01 8.76408948097409e-04
1.59616071428571e+00 1.31095136048444e-01 8.75967609907547e-04
1.61419642857143e+00 1.30286703261844e-01 8.75470591723420e-04
1.63223214285714e+00 1.29483255886763e-01 8.74919230292462e-04
1.65026785714286e+00 1.28684763184279e-01 8.74314827226122e-04
1.66830357142857e+00 1.27891194599987e-01 8.73658655448479e-04
1.68633928571429e+00 1.27102519763326e-01 8.72951952426817e-04
1.70437500000000e+00 1.26318708500351e-01 8.72195926380512e-04
1.72241071428571e+00 1.25539730813996e-01 8.71391756097119e-04
1.74044642857143e+00 1.24765556901243e-01 8.70540591727250e-04
1.75848214285714e+00 1.23996157133931e-01 8.69643555848621e-04
1.77651785714286e+00 1.23231502075410e-01 8.68701743000498e-04
1.79455357142857e+00 1.22471562466091e-01 8.67716225417175e-04
1.81258928571429e+00 1.21716309222740e-01 8.66688046578495e-04
1.83062500000000e+00 1.20965713449775e-01 8.65618226748386e-04
1.84866071428571e+00 1.20219746421619e-01 8.64507762623172e-04
1.86669642857143e+00 1.19478379597914e-01 8.63357627896576e-04
1.88473214285714e+00 1.18741584606336e-01 8.62168774079260e-04
1.90276785714286e+00 1.18009333257384e-01 8.60942129915663e-04
1.92080357142857e+00 1.17281597531413e-01 8.59678606541991e-04
1.93883928571429e+00 1.16558349577906e-01 8.58379091382402e-04
1.95687500000000e+00 1.15839561725528e-01 8.57044453143312e-04
1.97491071428571e+00 1.15125206466254e-01 8.55675541363524e-04
1.99294642857143e+00 1.14415256468929e-01 8.54273186821517e-04
2.01098214285714e+00 1.13709684563803e-01 8.52838202182030e-04
2.02901785714286e+00 1.13008463755721e-01 8.51371381350564e-04
2.04705357142857e+00 1.12311567212428e-01 8.49873504154248e-04
2.06508928571429e+00 1.11618968263849e-01 8.48345330587065e-04
2.08312500000000e+00 1.10930640411057e-01 8.46787605350156e-04
2.10116071428571e+00 1.10246557311942e-01 8.45201057347563e-04
2.11919642857143e+00 1.09566692793350e-01 8.43586399983198e-04
2.13723214285714e+00 1.08891020837104e-01 8.41944331681203e-04
2.15526785714286e+00 1.08219515591819e-01 8.40275535212384e-04
2.17330357142857e+00 1.07552151362315e-01 8.38580681970993e-04
2.19133928571429e+00 1.06888902608898e-01 8.36860426560499e-04
2.20937500000000e+00 1.06229743955398e-01 8.35115410947076e-04
2.22741071428571e+00 1.05574650176184e-01 8.33346263928883e-04
2.24544642857143e+00 1.04923596207059e-01 8.31553601354036e-04
2.26348214285714e+00 1.04276557132591e-01 8.29738026546859e-04
2.28151785714286e+00 1.03633508196723e-01 8.27900129628061e-04
2.29955357142857e+00 1.02994424793165e-01 8.26040491442697e-04
2.31758928571429e+00 1.02359282464673e-01 8.24159678472055e-04
2.33562500000000e+00 1.01728056910285e-01 8.22258246652406e-04
2.35366071428571e+00 1.01100723973505e-01 8.20336740835325e-04
2.37169642857143e+00 1.00477259652130e-01 8.18395694948262e-04
2.38973214285714e+00 9.98576400867121e-02 8.16435632349509e-04
2.40776785714286e+00 9.92418415701350e-02 8.14457065155405e-04
2.42580357142857e+00 9.86298405388497e-02 8.12460497862921e-04
2.44383928571429e+00 9.80216135721727e-02 8.10446422570880e-04
2.46187500000000e+00 9.74171373988049e-02 8.08415322504560e-04
2.47991071428571e+00 9.68163888860602e-02 8.06367671478786e-04
2.49794642857143e+00 9.62193450487434e-02 8.04303934016296e-04
2.51598214285714e+00 9.56259830386236e-02 8.02224565647065e-04
2.53401785714286e+00 9.50362801530929e-02 8.00130012251192e-04
2.55205357142857e+00 9.44502138271559e-02 7.98020713411414e-04
2.57008928571429e+00 9.38677616327431e-02 7.95897097925443e-04
2.58812500000000e+00 9.32889012846041e-02 7.93759587069509e-04
2.60616071428571e+00 9.27136106304582e-02 7.91608594071626e-04
2.62419642857143e+00 9.21418676590389e-02 7.89444524198290e-04
2.64223214285714e+00 9.15736504904622e-02 7.87267775010089e-04
2.66026785714286e+00 9.10089373840777e-02 7.85078735725764e-04
2.67830357142857e+00 9.04477067311275e-02 7.82877790333092e-04
2.69633928571429e+00 8.98899370540764e-02 7.80665313374062e-04
2.71437500000000e+00 8.93356070119526e-02 7.78441672975065e-04
2.73241071428571e+00 8.87846953913191e-02 7.76207230334981e-04
2.75044642857143e+00 8.82371811135808e-02 7.73962339787986e-04
2.76848214285714e+00 8.76930432261512e-02 7.71707349024211e-04
2.78651785714286e+00 8.71522609095861e-02 7.69442598477688e-04
2.80455357142857e+00 8.66148134708424e-02 7.67168424219821e-04
2.82258928571429e+00 8.60806803426257e-02 7.64885154000364e-04
2.84062500000000e+00 8.55498410882398e-02 7.62593110066862e-04
2.85866071428571e+00 8.50222753932939e-02 7.60292608670088e-04
2.87669642857143e+00 8.44979630723527e-02 7.57983960109203e-04
2.89473214285714e+00 8.39768840608190e-02 7.55667468923798e-04
2.91276785714286e+00 8.34590184214294e-02 7.53343433307444e-04
2.93080357142857e+00 8.29443463380500e-02 7.51012147804570e-04
2.94883928571429e+00 8.24328481150423e-02 7.48673899589595e-04
2.96687500000000e+00 8.19245041816769e-02 7.46328971095746e-04
2.98491071428571e+00 8.14192950844993e-02 7.43977639540065e-04
3.00294642857143e+00 8.09172014933956e-02 7.41620176954341e-04
3.02098214285714e+00 8.04182041941170e-02 7.39256850353786e-04
3.03901785714286e+00 7.99222840942072e-02 7.36887921177092e-04
3.05705357142857e+00 7.94294222172803e-02 7.34513647804009e-04
3.07508928571429e+00 7.89395997024067e-02 7.32134282057340e-04
3.09312500000000e+00 7.84527978081356e-02 7.29750071657816e-04
3.11116071428571e+00 7.79689979054561e-02 7.27361259769156e-04
3.12919642857143e+00 7.74881814833386e-02 7.24968085018445e-04
3.14723214285714e+00 7.70103301418393e-02 7.22570781645308e-04
3.16526785714286e+00 7.65354255975169e-02 7.20169578968237e-04
3.18330357142857e+00 7.60634496781477e-02 7.17764703738536e-04
3.20133928571429e+00 7.55943843221299e-02 7.15356376850137e-04
3.21937500000000e+00 7.51282115821575e-02 7.12944815635365e-04
3.23741071428571e+00 7.46649136187181e-02 7.10530233430558e-04
3.25544642857143e+00 7.42044727051640e-02 7.08112839588121e-04
3.27348214285714e+00 7.37468712213406e-02 7.05692839609296e-04
3.29151785714286e+00 7.32920916585461e-02 7.03270434636426e-04
3.30955357142857e+00 7.28401166146403e-02 7.00845823656513e-04
3.32758928571429e+00 7.23909287934697e-02 6.98419200405454e-04
3.34562500000000e+00 7.19445110082265e-02 6.95990755517633e-04
3.36366071428571e+00 7.15008461754334e-02 6.93560676111691e-04
3.38169642857143e+00 7.10599173195915e-02 6.91129145796418e-04
3.39973214285714e+00 7.06217075672842e-02 6.88696344789439e-04
3.41776785714286e+00 7.01862001517240e-02 6.86262449434715e-04
3.43580357142857e+00 6.97533784082208e-02 6.83827634267874e-04
3.45383928571429e+00 6.93232257736260e-02 6.81392069101935e-04
3.47187500000000e+00 6.88957257894082e-02 6.78955921042118e-04
3.48991071428571e+00 6.84708620960809e-02 6.76519354091608e-04
3.50794642857143e+00 6.80486184374686e-02 6.74082529152641e-04
3.52598214285714e+00 6.76289786552426e-02 6.71645604133109e-04
3.54401785714286e+00 6.72119266930954e-02 6.69208733488450e-04
3.56205357142857e+00 6.67974465925359e-02 6.66772070159411e-04
3.58008928571429e+00 6.63855224923524e-02 6.64335762827212e-04
3.59812500000000e+00 6.59761386314332e-02 6.61899957804254e-04
3.61616071428571e+00 6.55692793435972e-02 6.59464798659107e-04
3.63419642857143e+00 6.51649290615144e-02 6.57030426213658e-04
3.65223214285714e+00 6.47630723116360e-02 6.54596978639627e-04
3.67026785714286e+00 6.43636937180313e-02 6.52164591023888e-04
3.68830357142857e+00 6.39667779984815e-02 6.49733397187956e-04
3.70633928571429e+00 6.35723099639616e-02 6.47303527101801e-04
3.72437500000000e+00 6.31802745212295e-02 6.44875108659602e-04
3.74241071428571e+00 6.27906566680249e-02 6.42448267323264e-04
3.76044642857143e+00 6.24034414966767e-02 6.40023126116758e-04
3.77848214285714e+00 6.20186141893927e-02 6.37599805713614e-04
3.79651785714286e+00 6.16361600217911e-02 6.35178424024578e-04
3.81455357142857e+00 6.12560643592669e-02 6.32759097907784e-04
3.83258928571429e+00 6.08783126564926e-02 6.30341940730860e-04
3.85062500000000e+00 6.05028904597974e-02 6.27927064039795e-04
3.86866071428571e+00 6.01297834027031e-02 6.25514577220685e-04
3.88669642857143e+00 5.97589772092469e-02 6.23104587491769e-04
3.90473214285714e+00 5.93904576896004e-02 6.20697199982879e-04
3.92276785714286e+00 5.90242107433242e-02 6.18292517344684e-04
3.94080357142857e+00 5.86602223559827e-02 6.15890641357165e-04
3.95883928571429e+00 5.82984785986647e-02 6.13491670630363e-04
3.97687500000000e+00 5.79389656301713e-02 6.11095702174428e-04
3.99491071428571e+00 5.75816696928603e-02 6.08702831078499e-04
4.01294642857143e+00 5.72265771157108e-02 6.06313150500825e-04
4.03098214285714e+00 5.68736743102440e-02 6.03926751741461e-04
4.04901785714286e+00 5.65229477735249e-02 6.01543723871874e-04
4.06705357142857e+00 5.61743840850069e-02 5.99164155248743e-04
4.08508928571429e+00 5.58279699060699e-02 5.96788131344864e-04
4.10312500000000e+00 5.54836919820351e-02 5.94415736226907e-04
4.12116071428571e+00 5.51415371382931e-02 5.92047052250672e-04
4.13919642857143e+00 5.48014922831322e-02 5.89682160050048e-04
4.15723214285714e+00 5.44635444039369e-02 5.87321138603562e-04
4.17526785714286e+00 5.41276805699591e-02 5.84964064883278e-04
4.19330357142857e+00 5.37938879293740e-02 5.82611015280429e-04
4.21133928571429e+00 5.34621537088352e-02 5.80262063558309e-04
4.22937500000000e+00 5.31324652153318e-02 5.77917282244046e-04
4.24741071428571e+00 5.28048098325773e-02 5.75576742339483e-04
4.26544642857143e+00 5.24791750236226e-02 5.73240513309298e-04
4.28348214285714e+00 5.21555483273096e-02 5.70908663141960e-04
4.30151785714286e+00 5.18339173608322e-02 5.68581258017064e-04
4.31955357142857e+00 5.15142698169865e-02 5.66258363648792e-04
4.33758928571429e+00 5.11965934637429e-02 5.63940043353002e-04
4.35562500000000e+00 5.08808761459593e-02 5.61626359358889e-04
4.37366071428571e+00 5.05671057820095e-02 5.59317372534802e-04
4.39169642857143e+00 5.02552703662001e-02 5.57013142375551e-04
4.40973214285714e+00 4.99453579654593e-02 5.54713727058565e-04
4.42776785714286e+00 4.96373567217052e-02 5.52419183128727e-04
4.44580357142857e+00 4.93312548492753e-02 5.50129566764878e-04
4.46383928571429e+00 4.90270406345155e-02 5.47844931954266e-04
4.48187500000000e+00 4.87247024373610e-02 5.45565331729352e-04
4.49991071428571e+00 4.84242286881870e-02 5.43290817907622e-04
4.51794642857143e+00 4.81256078900448e-02 5.41021441078539e-04
4.53598214285714e+00 4.78288286155682e-02 5.38757250655339e-04
4.55401785714286e+00 4.75338795091650e-02 5.36498294576303e-04
4.57205357142857e+00 4.72407492846132e-02 5.34244620499479e-04
4.59008928571429e+00 4.69494267246649e-02 5.31996274077899e-04
4.60812500000000e+00 4.66599006825072e-02 5.29753300126201e-04
4.62616071428571e+00 4.63721600788177e-02 5.27515742373935e-04
4.64419642857143e+00 4.60861939038355e-02 5.25283643452412e-04
4.66223214285714e+00 4.58019912144676e-02 5.23057044942271e-04
4.68026785714286e+00 4.55195411363197e-02 5.20835987090495e-04
4.69830357142857e+00 4.52388328614451e-02 5.18620509937937e-04
4.71633928571429e+00 4.49598556479644e-02 5.16410651689102e-04
4.73437500000000e+00 4.46825988214160e-02 5.14206449813339e-04
4.75241071428571e+00 4.44070517720007e-02 5.12007940810654e-04
4.77044642857143e+00 4.41332039565011e-02 5.09815160198496e-04
4.78848214285714e+00 4.38610448955743e-02 5.07628142555944e-04
4.80651785714286e+00 4.35905641756336e-02 5.05446921255359e-04
4.82455357142857e+00 4.33217514467400e-02 5.03271529526860e-04
4.84258928571429e+00 4.30545964222363e-02 5.01101998917123e-04
4.86062500000000e+00 4.27890888799967e-02 4.98938360329149e-04
4.87866071428572e+00 4.25252186598469e-02 4.96780643800207e-04
4.89669642857143e+00 4.22629756653441e-02 4.94628878488521e-04
4.91473214285714e+00 4.20023498612414e-02 4.92483092714125e-04
4.93276785714286e+00 4.17433312752338e-02 4.90343313704625e-04
4.95080357142857e+00 4.14859099959806e-02 4.88209568600678e-04
4.96883928571429e+00 4.12300761727549e-02 4.86081882998329e-04
4.98687500000000e+00 4.09758200165995e-02 4.83960281931204e-04
5.00491071428571e+00 4.07231317979098e-02 4.81844789659864e-04
5.02294642857143e+00 4.04720018480860e-02 4.79735429658589e-04
5.04098214285714e+00 4.02224205571566e-02 4.77632224653357e-04
5.05901785714286e+00 3.99743783753993e-02 4.75535196380659e-04
5.07705357142857e+00 3.97278658114854e-02 4.73444366537687e-04
5.09508928571429e+00 3.94828734321436e-02 4.71359755403462e-04
5.11312500000000e+00 3.92393918632301e-02 4.69281382766778e-04
5.13116071428571e+00 3.89974117874627e-02 4.67209267726423e-04
5.14919642857143e+00 3.87569239459551e-02 4.65143428678209e-04
5.16723214285714e+00 3.85179191359882e-02 4.63083883350185e-04
5.18526785714286e+00 3.82803882125155e-02 4.61030648574008e-04
5.20330357142857e+00 3.80443220864220e-02 4.58983741183103e-04
5.22133928571429e+00 3.78097117242001e-02 4.56943176707757e-04
5.23937500000000e+00 3.75765481489420e-02 4.54908970252450e-04
5.25741071428571e+00 3.73448224382141e-02 4.52881136306315e-04
5.27544642857143e+00 3.71145257254821e-02 4.50859688730303e-04
5.29348214285714e+00 3.68856491980201e-02 4.48844640789916e-04
5.31151785714286e+00 3.66581840983100e-02 4.46836004938453e-04
5.32955357142857e+00 3.64321217224053e-02 4.44833793666297e-04
5.34758928571429e+00 3.62074534196205e-02 4.42838018265780e-04
5.36562500000000e+00 3.59841705934515e-02 4.40848689660821e-04
5.38366071428571e+00 3.57622646995795e-02 4.38865818227015e-04
5.40169642857143e+00 3.55417272471965e-02 4.36889413779063e-04
5.41973214285714e+00 3.53225497970425e-02 4.34919485601337e-04
5.43776785714286e+00 3.51047239627061e-02 4.32956042242278e-04
5.45580357142857e+00 3.48882414090871e-02 4.30999092317660e-04
5.47383928571429e+00 3.46730938520988e-02 4.29048643341261e-04
5.49187500000000e+00 3.44592730595208e-02 4.27104702509601e-04
5.50991071428571e+00 3.42467708491253e-02 4.25167276531222e-04
5.52794642857143e+00 3.40355790899092e-02 4.23236371614453e-04
5.54598214285714e+00 3.38256897002512e-02 4.21311993495860e-04
5.56401785714286e+00 3.36170946491210e-02 4.19394147245175e-04
5.58205357142857e+00 3.34097859546345e-02 4.17482838025420e-04
5.60008928571429e+00 3.32037556837671e-02 4.15578069985513e-04
5.61812500000000e+00 3.29989959531462e-02 4.13679847002749e-04
5.63616071428571e+00 3.27954989272895e-02 4.11788172520810e-04
5.65419642857143e+00 3.25932568197526e-02 4.09903049537858e-04
5.67223214285714e+00 3.23922618913961e-02 4.08024480633050e-04
5.69026785714286e+00 3.21925064515120e-02 4.06152467781508e-04
