Energy (eV)          EEDF (eV^-(3/2))     First Anisotropy
9.73684210526316e-02 3.18851593685946e-02 2.72931977144787e-05
2.92105263157895e-01 3.13107813940319e-02 4.48135473291096e-05
4.86842105263158e-01 3.07467502411910e-02 5.84865141149132e-05
6.81578947368421e-01 3.01928795228067e-02 6.84736871013840e-05
8.76315789473684e-01 2.96489862092111e-02 7.64782654870035e-05
1.07105263157895e+00 2.91148905672798e-02 8.31554276833208e-05
1.26578947368421e+00 2.85904161040417e-02 8.88498072749468e-05
1.46052631578947e+00 2.80753895031893e-02 9.37728160930397e-05
1.65526315789474e+00 2.75696405680310e-02 9.80668185914157e-05
1.85000000000000e+00 2.70730021745881e-02 1.01833932344330e-04
2.04473684210526e+00 2.65853102056965e-02 1.05150837958397e-04
2.23947368421053e+00 2.61064035006719e-02 1.08077152763690e-04
2.43421052631579e+00 2.56361238000546e-02 1.10660511445698e-04
2.62894736842105e+00 2.51743156994965e-02 1.12939821948457e-04
2.82368421052632e+00 2.47208265918465e-02 1.14947444981214e-04
3.01842105263158e+00 2.42755066190075e-02 1.16710705574246e-04
3.21315789473684e+00 2.38382086224582e-02 1.18252974127926e-04
3.40789473684211e+00 2.34087880933262e-02 1.19594458703611e-04
3.60263157894737e+00 2.29871031285882e-02 1.20752799239821e-04
3.79736842105263e+00 2.25730143800569e-02 1.21743521543037e-04
3.99210526315789e+00 2.21663850097480e-02 1.22580389544519e-04
4.18684210526316e+00 2.17670806446968e-02 1.23275683444008e-04
4.38157894736842e+00 2.13749693316333e-02 1.23840421607459e-04
4.57631578947368e+00 2.09899214961533e-02 1.24284540308649e-04
4.77105263157895e+00 2.06118098970295e-02 1.24617040670633e-04
4.96578947368421e+00 2.02405095851524e-02 1.24846109603119e-04
5.16052631578947e+00 1.98758978622515e-02 1.24979220844201e-04
5.35526315789474e+00 1.95178542396732e-02 1.25023219512773e-04
5.55000000000000e+00 1.91662604006194e-02 1.24984393905207e-04
5.74473684210526e+00 1.88210001589311e-02 1.24868536676286e-04
5.93947368421053e+00 1.84819594214246e-02 1.24680997055567e-04
6.13421052631579e+00 1.81490261496463e-02 1.24426725912701e-04
6.32894736842105e+00 1.78220903245212e-02 1.24110315024513e-04
6.52368421052632e+00 1.75010439082756e-02 1.23736031322429e-04
6.71842105263158e+00 1.71857808093215e-02 1.23307846639688e-04
6.91315789473684e+00 1.68761968472045e-02 1.22829464129323e-04
7.10789473684211e+00 1.65721897177472e-02 1.22304341396995e-04
7.30263157894737e+00 1.62736589605535e-02 1.21735711228248e-04
7.49736842105263e+00 1.59805059244662e-02 1.21126600060032e-04
7.69210526315789e+00 1.56926337354235e-02 1.20479844273499e-04
7.88684210526316e+00 1.54099472644532e-02 1.19798105010715e-04
8.08157894736842e+00 1.51323530958910e-02 1.19083881320420e-04
8.27631578947368e+00 1.48597594975600e-02 1.18339522192984e-04
8.47105263157895e+00 1.45920763893832e-02 1.17567237459167e-04
8.66578947368421e+00 1.43292153139816e-02 1.16769107492733e-04
8.86052631578947e+00 1.40710894074466e-02 1.15947092213045e-04
9.05526315789474e+00 1.38176133703544e-02 1.15103039134783e-04
9.25000000000000e+00 1.35687034404310e-02 1.14238690875170e-04
9.44473684210526e+00 1.33242773640006e-02 1.13355692036506e-04
9.63947368421053e+00 1.30842543691021e-02 1.12455595390546e-04
9.83421052631579e+00 1.28485551385596e-02 1.11539867581745e-04
1.00289473684211e+01 1.26171017845022e-02 1.10609894513130e-04
1.02236842105263e+01 1.23898178216533e-02 1.09666986115374e-04
1.04184210526316e+01 1.21666281438459e-02 1.08712381295399e-04
1.06131578947368e+01 1.19474589946762e-02 1.07747251452364e-04
1.08078947368421e+01 1.17322379505784e-02 1.06772704809783e-04
1.10026315789474e+01 1.15208938885605e-02 1.05789789969713e-04
1.11973684210526e+01 1.13133569707685e-02 1.04799498964802e-04
1.13921052631579e+01 1.11095586153837e-02 1.03802771369232e-04
1.15868421052632e+01 1.09094314743354e-02 1.02800495797401e-04
1.17815789473684e+01 1.07129094162409e-02 1.01793513544521e-04
1.19763157894737e+01 1.05199274976283e-02 1.00782620959355e-04
1.21710526315789e+01 1.03304219481881e-02 9.97685717590751e-05
1.23657894736842e+01 1.01443301431912e-02 9.87520793349607e-05
1.25605263157895e+01 9.96159058910483e-03 9.77338185946343e-05
1.27552631578947e+01 9.78214289856231e-03 9.67144287498069e-05
1.29500000000000e+01 9.60592777067978e-03 9.56945139858827e-05
1.31447368421053e+01 9.43288697556458e-03 9.46746459653112e-05
1.33394736842105e+01 9.26296332960709e-03 9.36553653214096e-05
1.35342105263158e+01 9.09610068189020e-03 9.26371829820405e-05
1.37289473684211e+01 8.93224389167159e-03 9.16205823436161e-05
1.39236842105263e+01 8.77133881038318e-03 9.06060196126218e-05
1.41184210526316e+01 8.61333226720929e-03 8.95939257728186e-05
1.43131578947368e+01 8.45817204689555e-03 8.85847076864955e-05
1.45078947368421e+01 8.30580687698216e-03 8.75787492063650e-05
1.47026315789474e+01 8.15618640649954e-03 8.65764123266737e-05
1.48973684210526e+01 8.00926119356772e-03 8.55780380397909e-05
1.50921052631579e+01 7.86498268589180e-03 8.45839479258539e-05
1.52868421052632e+01 7.72330320488975e-03 8.35944442203644e-05
1.54815789473684e+01 7.58417593272364e-03 8.26098112648284e-05
1.56763157894737e+01 7.44755489311694e-03 8.16303162429627e-05
1.58710526315789e+01 7.31339493977092e-03 8.06562099404209e-05
1.60657894736842e+01 7.18165173793528e-03 7.96877275493811e-05
1.62605263157895e+01 7.05228175317129e-03 7.87250892362713e-05
1.64552631578947e+01 6.92524223441685e-03 7.77685013390053e-05
1.66500000000000e+01 6.80049119999027e-03 7.68181562893936e-05
1.68447368421053e+01 6.67798742597495e-03 7.58742337113672e-05
1.70394736842105e+01 6.55769042959155e-03 7.49369009247507e-05
1.72342105263158e+01 6.43956045874502e-03 7.40063133739222e-05
1.74289473684211e+01 6.32355847670358e-03 7.30826156168133e-05
1.76236842105263e+01 6.20964614930846e-03 7.21659411916119e-05
1.78184210526316e+01 6.09778583424783e-03 7.12564135268193e-05
1.80131578947368e+01 5.98794056603433e-03 7.03541463297154e-05
1.82078947368421e+01 5.88007404630466e-03 6.94592440026432e-05
1.84026315789474e+01 5.77415062937539e-03 6.85718021016499e-05
1.85973684210526e+01 5.67013531284886e-03 6.76919076274945e-05
1.87921052631579e+01 5.56799372426426e-03 6.68196397960396e-05
1.89868421052632e+01 5.46769210982716e-03 6.59550698603842e-05
1.91815789473684e+01 5.36919732484346e-03 6.50982618224414e-05
1.93763157894737e+01 5.27247682065241e-03 6.42492727046467e-05
1.95710526315789e+01 5.17749863593066e-03 6.34081528490108e-05
1.97657894736842e+01 5.08423138412326e-03 6.25749462549315e-05
1.99605263157895e+01 4.99264424502737e-03 6.17496907772173e-05
2.01552631578947e+01 4.90270695314712e-03 6.09324187348762e-05
2.03500000000000e+01 4.81438978776146e-03 6.01231567154577e-05
2.05447368421053e+01 4.72766356440968e-03 5.93219261383734e-05
2.07394736842105e+01 4.64249962350812e-03 5.85287434462385e-05
2.09342105263158e+01 4.55886982257478e-03 5.77436202555650e-05
2.11289473684211e+01 4.47674652566296e-03 5.69665638736121e-05
2.13236842105263e+01 4.39610259428770e-03 5.61975771012529e-05
2.15184210526316e+01 4.31691137959376e-03 5.54366587118538e-05
2.17131578947368e+01 4.23914671203813e-03 5.46838036005583e-05
2.19078947368421e+01 4.16278289421558e-03 5.39390029570970e-05
2.21026315789474e+01 4.08779469092993e-03 5.32022444703394e-05
2.22973684210526e+01 4.01415732225628e-03 5.24735124297560e-05
2.24921052631579e+01 3.94184645430514e-03 5.17527881407029e-05
2.26868421052632e+01 3.87083819122956e-03 5.10400497312266e-05
2.28815789473684e+01 3.80110906826928e-03 5.03352725375193e-05
2.30763157894737e+01 3.73263604274461e-03 4.96384292086343e-05
2.32710526315789e+01 3.66539648766339e-03 4.89494898325559e-05
2.34657894736842e+01 3.59936818305202e-03 4.82684220902632e-05
2.36605263157895e+01 3.53452930977528e-03 4.75951913224953e-05
2.38552631578947e+01 3.47085844145778e-03 4.69297608660183e-05
2.40500000000000e+01 3.40833453744219e-03 4.62720918700521e-05
2.42447368421053e+01 3.34693693661878e-03 4.56221436084930e-05
2.44394736842105e+01 3.28664534955666e-03 4.49798735527346e-05
2.46342105263158e+01 3.22743985281514e-03 4.43452374203939e-05
2.48289473684211e+01 3.16930088160071e-03 4.37181894649195e-05
2.50236842105263e+01 3.11220922333519e-03 4.30986823015480e-05
2.52184210526316e+01 3.05614601199201e-03 4.24866671763288e-05
2.54131578947368e+01 3.00109272095038e-03 4.18820940218561e-05
2.56078947368421e+01 2.94703115776270e-03 4.12849115302951e-05
2.58026315789474e+01 2.89394345727425e-03 4.06950672486309e-05
2.59973684210526e+01 2.84181207656747e-03 4.01125076082247e-05
2.61921052631579e+01 2.79061978853114e-03 3.95371781614049e-05
2.63868421052632e+01 2.74034967619533e-03 3.89690234208014e-05
2.65815789473684e+01 2.69098512771364e-03 3.84079870793051e-05
2.67763157894737e+01 2.64250983011183e-03 3.78540120472734e-05
2.69710526315789e+01 2.59490776464105e-03 3.73070405051100e-05
2.71657894736842e+01 2.54816320075790e-03 3.67670139752394e-05
2.73605263157895e+01 2.50226069163552e-03 3.62338733379896e-05
2.75552631578947e+01 2.45718506852918e-03 3.57075590257549e-05
2.77500000000000e+01 2.41292143578631e-03 3.51880108761946e-05
2.79447368421053e+01 2.36945516640402e-03 3.46751683126760e-05
2.81394736842105e+01 2.32677189655704e-03 3.41689703680626e-05
2.83342105263158e+01 2.28485752147479e-03 3.36693556935511e-05
2.85289473684211e+01 2.24369819031435e-03 3.31762627272400e-05
2.87236842105263e+01 2.20328030160297e-03 3.26896295575706e-05
2.89184210526316e+01 2.16359049916605e-03 3.22093940799934e-05
2.91131578947368e+01 2.12461566715138e-03 3.17354940135471e-05
2.93078947368421e+01 2.08634292624397e-03 3.12678669296687e-05
2.95026315789474e+01 2.04875962887364e-03 3.08064502962679e-05
2.96973684210526e+01 2.01185335555962e-03 3.03511814790911e-05
2.98921052631579e+01 1.97561191041478e-03 2.99019978807382e-05
3.00868421052632e+01 1.94002331713192e-03 2.94588368172632e-05
3.02815789473684e+01 1.90507581538151e-03 2.90216356474103e-05
3.04763157894737e+01 1.87075785645254e-03 2.85903317813517e-05
3.06710526315789e+01 1.83705809989830e-03 2.81648627002064e-05
3.08657894736842e+01 1.80396540933726e-03 2.77451659888461e-05
3.10605263157895e+01 1.77146884921425e-03 2.73311793320487e-05
3.12552631578947e+01 1.73955768085711e-03 2.69228406294644e-05
3.14500000000000e+01 1.70822135894152e-03 2.65200878846044e-05
3.16447368421053e+01 1.67744952830602e-03 2.61228593116327e-05
3.18394736842105e+01 1.64723202013131e-03 2.57310933384956e-05
3.20342105263158e+01 1.61755884896963e-03 2.53447286005245e-05
3.22289473684211e+01 1.58842020915379e-03 2.49637040407136e-05
3.24236842105263e+01 1.55980647156871e-03 2.45879588072696e-05
3.26184210526316e+01 1.53170818073440e-03 2.42174323467349e-05
3.28131578947368e+01 1.50411605132889e-03 2.38520644041702e-05
3.30078947368421e+01 1.47702096546435e-03 2.34917950318562e-05
3.32026315789474e+01 1.45041396933724e-03 2.31365646084404e-05
3.33973684210526e+01 1.42428627059873e-03 2.27863138299517e-05
3.35921052631579e+01 1.39862923520313e-03 2.24409837929459e-05
3.37868421052632e+01 1.37343438456476e-03 2.21005159028173e-05
3.39815789473684e+01 1.34869339298014e-03 2.17648519510085e-05
3.41763157894737e+01 1.32439808457868e-03 2.14339341120441e-05
3.43710526315789e+01 1.30054043091234e-03 2.11077049480524e-05
3.45657894736842e+01 1.27711254801763e-03 2.07861074223703e-05
3.47605263157895e+01 1.25410669408887e-03 2.04690848889270e-05
3.49552631578947e+01 1.23151526671177e-03 2.01565811613058e-05
3.51500000000000e+01 1.20933080035944e-03 1.98485404308702e-05
3.53447368421053e+01 1.18754596411517e-03 1.95449073308258e-05
3.55394736842105e+01 1.16615355899739e-03 1.92456269311197e-05
3.57342105263158e+01 1.14514651582762e-03 1.89506447271739e-05
3.59289473684210e+01 1.12451789270995e-03 1.86599067002819e-05
3.61236842105263e+01 1.10426087274431e-03 1.83733592423364e-05
3.63184210526316e+01 1.08436876194217e-03 1.80909492118228e-05
3.65131578947368e+01 1.06483498679056e-03 1.78126239276812e-05
3.67078947368421e+01 1.04565309229874e-03 1.75383311690780e-05
3.69026315789474e+01 1.02681673965104e-03 1.72680191823175e-05
3.70973684210526e+01 1.00831970432152e-03 1.70016366690587e-05
3.72921052631579e+01 9.90155873860555e-04 1.67391328365406e-05
3.74868421052632e+01 9.72319245881124e-04 1.64804573305494e-05
3.76815789473684e+01 9.54803926218194e-04 1.62255602819664e-05
3.78763157894737e+01 9.37604126790814e-04 1.59743922996011e-05
3.80710526315789e+01 9.20714163875411e-04 1.57269044682078e-05
3.82657894736842e+01 9.04128456045641e-04 1.54830483527177e-05
3.84605263157895e+01 8.87841522505910e-04 1.52427759863306e-05
3.86552631578947e+01 8.71847981147269e-04 1.50060399123263e-05
3.88500000000000e+01 8.56142546774015e-04 1.47727931244448e-05
3.90447368421053e+01 8.40720029478731e-04 1.45429891055811e-05
3.92394736842105e+01 8.25575332765553e-04 1.43165818200501e-05
3.94342105263158e+01 8.10703452024181e-04 1.40935257018116e-05
3.96289473684211e+01 7.96099472757876e-04 1.38737756910782e-05
3.98236842105263e+01 7.81758568963989e-04 1.36572871796133e-05
4.00184210526316e+01 7.67676001647321e-04 1.34440160445877e-05
4.02131578947368e+01 7.53847117110276e-04 1.32339186406561e-05
4.04078947368421e+01 7.40267345555708e-04 1.30269517961244e-05
4.06026315789474e+01 7.26932199439166e-04 1.28230728140092e-05
4.07973684210526e+01 7.13837272120622e-04 1.26222394605873e-05
4.09921052631579e+01 7.00978236307629e-04 1.24244099958734e-05
4.11868421052632e+01 6.88350842629223e-04 1.22295431250431e-05
4.13815789473684e+01 6.75950918323791e-04 1.20375980266021e-05
4.15763157894737e+01 6.63774365737639e-04 1.18485343443746e-05
4.17710526315789e+01 6.51817161090784e-04 1.16623121830773e-05
4.19657894736842e+01 6.40075353029967e-04 1.14788921081539e-05
4.21605263157895e+01 6.28545061437677e-04 1.12982351347874e-05
4.23552631578947e+01 6.17222476064192e-04 1.11203027532902e-05
4.25500000000000e+01 6.06103855271712e-04 1.09450568859965e-05
4.27447368421053e+01 5.95185524876477e-04 1.07724599106880e-05
4.29394736842105e+01 5.84463876830115e-04 1.06024746526918e-05
4.31342105263158e+01 5.73935368129598e-04 1.04350643743110e-05
4.33289473684211e+01 5.63596519570017e-04 1.02701927970571e-05
4.35236842105263e+01 5.53443914597750e-04 1.01078240621426e-05
4.37184210526316e+01 5.43474198251481e-04 9.94792275097565e-06
4.39131578947368e+01 5.33684075960384e-04 9.79045387742836e-06
4.41078947368421e+01 5.24070312546567e-04 9.63538288293613e-06
4.43026315789474e+01 5.14629731066780e-04 9.48267563495495e-06
4.44973684210526e+01 5.05359211849885e-04 9.33229841700363e-06
4.46921052631579e+01 4.96255691400690e-04 9.18421794717004e-06
4.48868421052632e+01 4.87316161390064e-04 9.03840134308525e-06
4.50815789473684e+01 4.78537667720643e-04 8.89481613896702e-06
4.52763157894737e+01 4.69917309471050e-04 8.75343027818396e-06
4.54710526315789e+01 4.61452238015159e-04 8.61421210830103e-06
4.56657894736842e+01 4.53139656004514e-04 8.47713037905175e-06
4.58605263157895e+01 4.44976816518544e-04 8.34215423302032e-06
4.60552631578947e+01 4.36961022101075e-04 8.20925322104679e-06
4.62500000000000e+01 4.29089623871017e-04 8.07839727118949e-06
4.64447368421053e+01 4.21360020698189e-04 7.94955670288404e-06
4.66394736842105e+01 4.13769658275710e-04 7.82270221987595e-06
4.68342105263158e+01 4.06316028342524e-04 7.69780490138303e-06
4.70289473684211e+01 3.98996667804751e-04 7.57483621557366e-06
4.72236842105263e+01 3.91809157923593e-04 7.45376799114074e-06
4.74184210526316e+01 3.84751123561747e-04 7.33457242967536e-06
4.76131578947368e+01 3.77820232337748e-04 7.21722209889517e-06
4.78078947368421e+01 3.71014193914714e-04 7.10168992783495e-06
4.80026315789474e+01 3.64330759185253e-04 6.98794920434770e-06
4.81973684210526e+01 3.57767719585245e-04 6.87597356692019e-06
4.83921052631579e+01 3.51322906321397e-04 6.76573701587544e-06
4.85868421052632e+01 3.44994189656140e-04 6.65721388819790e-06
4.87815789473684e+01 3.38779478242964e-04 6.55037886780404e-06
4.89763157894737e+01 3.32676718383283e-04 6.44520697918997e-06
4.91710526315789e+01 3.26683893398725e-04 6.34167358279906e-06
4.93657894736842e+01 3.20799022914829e-04 6.23975437240411e-06
4.95605263157895e+01 3.15020162255454e-04 6.13942536755808e-06
4.97552631578947e+01 3.09345401763655e-04 6.04066292290146e-06
4.99500000000000e+01 3.03772866171971e-04 5.94344370587370e-06
5.01447368421053e+01 2.98300714016259e-04 5.84774470522584e-06
5.03394736842105e+01 2.92927136982574e-04 5.75354322510107e-06
5.05342105263158e+01 2.87650359353271e-04 5.66081687793516e-06
5.07289473684211e+01 2.82468637387569e-04 5.56954359258583e-06
5.09236842105263e+01 2.77380258746520e-04 5.47970159392704e-06
5.11184210526316e+01 2.72383541957155e-04 5.39126941027201e-06
5.13131578947368e+01 2.67476835816933e-04 5.30422586776858e-06
5.15078947368421e+01 2.62658518887159e-04 5.21855008615561e-06
5.17026315789474e+01 2.57926998918916e-04 5.13422147611190e-06
5.18973684210526e+01 2.53280712364353e-04 5.05121973275072e-06
5.20921052631579e+01 2.48718123832011e-04 4.96952484235702e-06
5.22868421052632e+01 2.44237725580463e-04 4.88911706432875e-06
5.24815789473684e+01 2.39838037045816e-04 4.80997693731783e-06
5.26763157894737e+01 2.35517604318212e-04 4.73208527404821e-06
5.28710526315789e+01 2.31274999694896e-04 4.65542315732737e-06
5.30657894736842e+01 2.27108821175604e-04 4.57997193744738e-06
5.32605263157895e+01 2.23017692031400e-04 4.50571322623902e-06
5.34552631578947e+01 2.19000260325713e-04 4.43262890265069e-06
5.36500000000000e+01 2.15055198468449e-04 4.36070109676978e-06
5.38447368421053e+01 2.11181202799384e-04 4.28991219489224e-06
5.40394736842105e+01 2.07376993127965e-04 4.22024483475270e-06
5.42342105263158e+01 2.03641312339051e-04 4.15168189996334e-06
5.44289473684210e+01 1.99972925955978e-04 4.08420652487224e-06
5.46236842105263e+01 1.96370621733396e-04 4.01780207993894e-06
5.48184210526316e+01 1.92833209276476e-04 3.95245217614001e-06
5.50131578947368e+01 1.89359519621204e-04 3.88814066048559e-06
5.52078947368421e+01 1.85948404873878e-04 3.82485161248119e-06
5.54026315789474e+01 1.82598737806526e-04 3.76256934168912e-06
5.55973684210526e+01 1.79309411509137e-04 3.70127838266902e-06
5.57921052631579e+01 1.76079339005397e-04 3.64096349898696e-06
5.59868421052632e+01 1.72907452894151e-04 3.58160967027873e-06
5.61815789473684e+01 1.69792705013700e-04 3.52320209587637e-06
5.63763157894737e+01 1.66734066072785e-04 3.46572619070133e-06
5.65710526315789e+01 1.63730525332629e-04 3.40916758198705e-06
5.67657894736842e+01 1.60781090251218e-04 3.35351210696201e-06
5.69605263157895e+01 1.57884786176569e-04 3.29874580825419e-06
5.71552631578947e+01 1.55040656008771e-04 3.24485493719442e-06
5.73500000000000e+01 1.52247759884263e-04 3.19182594237442e-06
5.75447368421053e+01 1.49505174879894e-04 3.13964547262272e-06
5.77394736842105e+01 1.46811994688470e-04 3.08830037325515e-06
5.79342105263158e+01 1.44167329338323e-04 3.03777768179351e-06
5.81289473684211e+01 1.41570304884969e-04 2.98806463082972e-06
5.83236842105263e+01 1.39020063122814e-04 2.93914863755522e-06
5.85184210526316e+01 1.36515761314687e-04 2.89101730633439e-06
5.87131578947368e+01 1.34056571895886e-04 2.84365842519757e-06
5.89078947368421e+01 1.31641682217813e-04 2.79705996299145e-06
5.91026315789474e+01 1.29270294262675e-04 2.75121006729064e-06
5.92973684210526e+01 1.26941624396184e-04 2.70609706052230e-06
5.94921052631579e+01 1.24654903096335e-04 2.66170944231416e-06
5.96868421052632e+01 1.22409374699554e-04 2.61803588023528e-06
5.98815789473684e+01 1.20204297162283e-04 2.57506521189866e-06
6.00763157894737e+01 1.18038941800734e-04 2.53278644176991e-06
6.02710526315789e+01 1.15912593064822e-04 2.49118873855281e-06
6.04657894736842e+01 1.13824548287278e-04 2.45026143323985e-06
6.06605263157895e+01 1.11774117465578e-04 2.40999401560835e-06
6.08552631578947e+01 1.09760623023373e-04 2.37037613614082e-06
6.10500000000000e+01 1.07783399586951e-04 2.33139759783816e-06
6.12447368421053e+01 1.05841793775094e-04 2.29304835792989e-06
6.14394736842105e+01 1.03935163970220e-04 2.25531852497698e-06
