Energy (eV)          EEDF (eV^-(3/2))     First Anisotropy
3.45000000000000e-03 1.45206513821524e+01 1.65674529414879e-02
1.03500000000000e-02 1.39737382644675e+01 2.69329122398442e-02
1.72500000000000e-02 1.34474243575491e+01 3.44469616972618e-02
2.41500000000000e-02 1.29409338023617e+01 3.95221070498374e-02
3.10500000000000e-02 1.24535199622145e+01 4.32589124986167e-02
3.79500000000000e-02 1.19844643221164e+01 4.60945268093925e-02
4.48500000000000e-02 1.15330754295865e+01 4.82654591004683e-02
5.17500000000000e-02 1.10986878753578e+01 4.99204051122633e-02
5.86500000000000e-02 1.06806613124727e+01 5.11616356144180e-02
6.55500000000000e-02 1.02783795123236e+01 5.20638212413219e-02
7.24500000000000e-02 9.89124945624686e+00 5.26838440382732e-02
7.93500000000000e-02 9.51870046133239e+00 5.30664216717305e-02
8.62500000000000e-02 9.16018333915814e+00 5.32475675502353e-02
9.31500000000000e-02 8.81516958621105e+00 5.32568395911052e-02
1.00050000000000e-01 8.48315060480022e+00 5.31188673474278e-02
1.06950000000000e-01 8.16363695331401e+00 5.28544271257343e-02
1.13850000000000e-01 7.85615762471584e+00 5.24812220315534e-02
1.20750000000000e-01 7.56025935221508e+00 5.20144625833264e-02
1.27650000000000e-01 7.27550594108949e+00 5.14673084806574e-02
1.34550000000000e-01 7.00147762567426e+00 5.08512111988362e-02
1.41450000000000e-01 6.73777045056972e+00 5.01761841428184e-02
1.48350000000000e-01 6.48399567515558e+00 4.94510188330361e-02
1.55250000000000e-01 6.23977920053382e+00 4.86834601735941e-02
1.62150000000000e-01 6.00476101805547e+00 4.78803502069322e-02
1.69050000000000e-01 5.77859467861841e+00 4.70477472525900e-02
1.75950000000000e-01 5.56094678195376e+00 4.61910255708481e-02
1.82850000000000e-01 5.35149648514810e+00 4.53149594386446e-02
1.89750000000000e-01 5.14993502967686e+00 4.44237946165259e-02
1.96650000000000e-01 4.95596528625185e+00 4.35213095169640e-02
2.03550000000000e-01 4.76930131681186e+00 4.26108678860097e-02
2.10450000000000e-01 4.58966795301065e+00 4.16954644340664e-02
2.17350000000000e-01 4.41680039058097e+00 4.07777645643620e-02
2.24250000000000e-01 4.25044379897670e+00 3.98601391260834e-02
2.31150000000000e-01 4.09035294571759e+00 3.89446949464542e-02
2.38050000000000e-01 3.93629183488289e+00 3.80333017602405e-02
2.44950000000000e-01 3.78803335922090e+00 3.71276160474608e-02
2.51850000000000e-01 3.64535896536169e+00 3.62291022039679e-02
2.58750000000000e-01 3.50805833163939e+00 3.53390514001908e-02
2.65650000000000e-01 3.37592905804916e+00 3.44585984270498e-02
2.72550000000000e-01 3.24877636788174e+00 3.35887367820905e-02
2.79450000000000e-01 3.12641282059582e+00 3.27303322111007e-02
2.86350000000000e-01 3.00865803550493e+00 3.18841348892402e-02
2.93250000000000e-01 2.89533842587151e+00 3.10507903997407e-02
3.00150000000000e-01 2.78628694301618e+00 3.02308496465180e-02
3.07050000000000e-01 2.68134283006506e+00 2.94247778188038e-02
3.13950000000000e-01 2.58035138497204e+00 2.86329625104957e-02
3.20850000000000e-01 2.48316373246668e+00 2.78557210838668e-02
3.27750000000000e-01 2.38963660459162e+00 2.70933073561467e-02
3.34650000000000e-01 2.29963212950589e+00 2.63459176779666e-02
3.41550000000000e-01 2.21301762824292e+00 2.56136964644903e-02
3.48450000000000e-01 2.12966541912345e+00 2.48967412330017e-02
3.55350000000000e-01 2.04945262953522e+00 2.41951071946235e-02
3.62250000000000e-01 1.97226101480186e+00 2.35088114425516e-02
3.69150000000000e-01 1.89797678387394e+00 2.28378367745743e-02
3.76050000000000e-01 1.82649043158538e+00 2.21821351836181e-02
3.82950000000000e-01 1.75769657722775e+00 2.15416310465334e-02
3.89850000000000e-01 1.69149380920462e+00 2.09162240382285e-02
3.96750000000000e-01 1.62778453553695e+00 2.03057917955200e-02
4.03650000000000e-01 1.56647483999907e+00 1.97101923526588e-02
4.10550000000000e-01 1.50747434367331e+00 1.91292663683429e-02
4.17450000000000e-01 1.45069607171898e+00 1.85628391621299e-02
4.24350000000000e-01 1.39605632515957e+00 1.80107225764653e-02
4.31250000000000e-01 1.34347455749888e+00 1.74727166790374e-02
4.38150000000000e-01 1.29287325598451e+00 1.69486113188149e-02
4.45050000000000e-01 1.24417782734332e+00 1.64381875479163e-02
4.51950000000000e-01 1.19731648782075e+00 1.59412189203743e-02
4.58850000000000e-01 1.15222015736166e+00 1.54574726778812e-02
4.65750000000000e-01 1.10882235777688e+00 1.49867108317257e-02
4.72650000000000e-01 1.06705911474517e+00 1.45286911493308e-02
4.79550000000000e-01 1.02686886350632e+00 1.40831680530947e-02
4.86450000000000e-01 9.88192358106222e-01 1.36498934385796e-02
4.93350000000000e-01 9.50972584060168e-01 1.32286174185105e-02
5.00250000000000e-01 9.15154674305692e-01 1.28190889985088e-02
5.07150000000000e-01 8.80685828320964e-01 1.24210566900010e-02
5.14050000000000e-01 8.47515234289569e-01 1.20342690653011e-02
5.20950000000000e-01 8.15593994196904e-01 1.16584752594624e-02
5.27850000000000e-01 7.84875051747782e-01 1.12934254231274e-02
5.34750000000000e-01 7.55313122998989e-01 1.09388711302675e-02
5.41650000000000e-01 7.26864629604528e-01 1.05945657443980e-02
5.48550000000000e-01 6.99487634575144e-01 1.02602647465746e-02
5.55450000000000e-01 6.73141780457441e-01 9.93572602821755e-03
5.62350000000000e-01 6.47788229841447e-01 9.62071015157498e-03
5.69250000000000e-01 6.23389608108935e-01 9.31498058041984e-03
5.76150000000000e-01 5.99909948338100e-01 9.01830388337626e-03
5.83050000000000e-01 5.77314638283371e-01 8.73044991208758e-03
5.89950000000000e-01 5.55570369352202e-01 8.45119195627054e-03
5.96850000000000e-01 5.34645087503636e-01 8.18030687754419e-03
6.03750000000000e-01 5.14507945996234e-01 7.91757522377968e-03
6.10650000000000e-01 4.95129259915744e-01 7.66278132558560e-03
6.17550000000000e-01 4.76480462415457e-01 7.41571337642162e-03
6.24450000000000e-01 4.58534062604747e-01 7.17616349772069e-03
6.31350000000000e-01 4.41263605023721e-01 6.94392779029751e-03
6.38250000000000e-01 4.24643630644234e-01 6.71880637322410e-03
6.45150000000000e-01 4.08649639339784e-01 6.50060341126493e-03
6.52050000000000e-01 3.93258053768958e-01 6.28912713188313e-03
6.58950000000000e-01 3.78446184619189e-01 6.08418983275173e-03
6.65850000000000e-01 3.64192197159590e-01 5.88560788063575e-03
6.72750000000000e-01 3.50475079053563e-01 5.69320170244465e-03
6.79650000000000e-01 3.37274609383725e-01 5.50679576919449e-03
6.86550000000000e-01 3.24571328843496e-01 5.32621857356395e-03
6.93450000000000e-01 3.12346511051408e-01 5.15130260167645e-03
7.00350000000000e-01 3.00582134945843e-01 4.98188429969216e-03
7.07250000000000e-01 2.89260858219513e-01 4.81780403574992e-03
7.14150000000000e-01 2.78365991754516e-01 4.65890605775767e-03
7.21050000000000e-01 2.67881475020280e-01 4.50503844749117e-03
7.27950000000000e-01 2.57791852398136e-01 4.35605307142585e-03
7.34850000000000e-01 2.48082250397610e-01 4.21180552869345e-03
7.41750000000000e-01 2.38738355730856e-01 4.07215509652459e-03
7.48650000000000e-01 2.29746394212901e-01 3.93696467350986e-03
7.55550000000000e-01 2.21093110456601e-01 3.80610072098565e-03
7.62450000000000e-01 2.12765748332385e-01 3.67943320282671e-03
7.69350000000000e-01 2.04752032163958e-01 3.55683552390416e-03
7.76250000000000e-01 1.97040148632277e-01 3.43818446744730e-03
7.83150000000000e-01 1.89618729361085e-01 3.32336013152720e-03
7.90050000000000e-01 1.82476834158369e-01 3.21224586486243e-03
7.96950000000000e-01 1.75603934889011e-01 3.10472820213012e-03
8.03850000000000e-01 1.68989899954868e-01 3.00069679894978e-03
8.10750000000000e-01 1.62624979359409e-01 2.90004436669321e-03
8.17650000000000e-01 1.56499790334875e-01 2.80266660725981e-03
8.24550000000000e-01 1.50605303510790e-01 2.70846214794414e-03
8.31450000000000e-01 1.44932829603431e-01 2.61733247651137e-03
8.38350000000000e-01 1.39474006606628e-01 2.52918187658512e-03
8.45250000000000e-01 1.34220787465018e-01 2.44391736344215e-03
8.52150000000000e-01 1.29165428211578e-01 2.36144862029941e-03
8.59050000000000e-01 1.24300476551953e-01 2.28168793517025e-03
8.65950000000000e-01 1.19618760878755e-01 2.20455013835832e-03
8.72850000000000e-01 1.15113379699621e-01 2.12995254065097e-03
8.79750000000000e-01 1.10777691463468e-01 2.05781487226662e-03
8.86650000000000e-01 1.06605304769934e-01 1.98805922260446e-03
8.93550000000000e-01 1.02590068947577e-01 1.92060998083909e-03
9.00450000000000e-01 9.87260649869358e-02 1.85539377739740e-03
9.07350000000000e-01 9.50075968150994e-02 1.79233942634961e-03
9.14250000000000e-01 9.14291828989127e-02 1.73137786874246e-03
9.21150000000000e-01 8.79855481644422e-02 1.67244211689772e-03
9.28050000000000e-01 8.46716162207924e-02 1.61546719969570e-03
9.34950000000000e-01 8.14825018768082e-02 1.56039010885972e-03
9.41850000000000e-01 7.84135039396313e-02 1.50714974625434e-03
9.48750000000000e-01 7.54600982844959e-02 1.45568687220674e-03
9.55650000000000e-01 7.26179311855473e-02 1.40594405485851e-03
9.62550000000000e-01 6.98828128978510e-02 1.35786562055208e-03
9.69450000000000e-01 6.72507114811336e-02 1.31139760525376e-03
9.76350000000000e-01 6.47177468561480e-02 1.26648770701370e-03
9.83250000000000e-01 6.22801850849036e-02 1.22308523946033e-03
9.90150000000000e-01 5.99344328663286e-02 1.18114108632603e-03
9.97050000000000e-01 5.76770322392501e-02 1.14060765699838e-03
1.00395000000000e+00 5.55046554848844e-02 1.10143884309042e-03
1.01085000000000e+00 5.34141002213217e-02 1.06358997602193e-03
1.01775000000000e+00 5.14022846827754e-02 1.02701778560224e-03
1.02465000000000e+00 4.94662431766356e-02 9.91680359604723e-04
1.03155000000000e+00 4.76031217116308e-02 9.57537104321341e-04
1.03845000000000e+00 4.58101737906520e-02 9.24548706085568e-04
1.04535000000000e+00 4.40847563620392e-02 8.92677093750618e-04
1.05225000000000e+00 4.24243259233593e-02 8.61885402109742e-04
1.05915000000000e+00 4.08264347719346e-02 8.32137936244540e-04
1.06605000000000e+00 3.92887273965918e-02 8.03400136786724e-04
1.07295000000000e+00 3.78089370053157e-02 7.75638546078507e-04
1.07985000000000e+00 3.63848821836855e-02 7.48820775216289e-04
1.08675000000000e+00 3.50144636791705e-02 7.22915471962058e-04
1.09365000000000e+00 3.36956613065434e-02 6.97892289506704e-04
1.10055000000000e+00 3.24265309698493e-02 6.73721856069197e-04
1.10745000000000e+00 3.12052017965413e-02 6.50375745315472e-04
1.11435000000000e+00 3.00298733795572e-02 6.27826447580747e-04
1.12125000000000e+00 2.88988131232720e-02 6.06047341878923e-04
1.12815000000000e+00 2.78103536894138e-02 5.85012668682697e-04
1.13505000000000e+00 2.67628905391781e-02 5.64697503458010e-04
1.14195000000000e+00 2.57548795679170e-02 5.45077730936481e-04
1.14885000000000e+00 2.47848348289167e-02 5.26130020109561e-04
1.15575000000000e+00 2.38513263429081e-02 5.07831799928201e-04
1.16265000000000e+00 2.29529779900803e-02 4.90161235691907e-04
1.16955000000000e+00 2.20884654814914e-02 4.73097206111263e-04
1.17645000000000e+00 2.12565144068841e-02 4.56619281028057e-04
1.18335000000000e+00 2.04558983560303e-02 4.40707699777364e-04
1.19025000000000e+00 1.96854371108335e-02 4.25343350176086e-04
1.19715000000000e+00 1.89439949055253e-02 4.10507748122648e-04
1.20405000000000e+00 1.82304787523904e-02 3.96183017792757e-04
1.21095000000000e+00 1.75438368305527e-02 3.82351872416313e-04
1.21785000000000e+00 1.68830569354467e-02 3.68997595620813e-04
1.22475000000000e+00 1.62471649866887e-02 3.56104023326814e-04
1.23165000000000e+00 1.56352235921484e-02 3.43655526181203e-04
1.23855000000000e+00 1.50463306661046e-02 3.31636992514341e-04
1.24545000000000e+00 1.44796180994462e-02 3.20033811807334e-04
1.25235000000000e+00 1.39342504799603e-02 3.08831858655939e-04
1.25925000000000e+00 1.34094238608200e-02 2.98017477217900e-04
1.26615000000000e+00 1.29043645754558e-02 2.87577466130733e-04
1.27305000000000e+00 1.24183280970653e-02 2.77499063887205e-04
1.27995000000000e+00 1.19505979410779e-02 2.67769934656097e-04
1.28685000000000e+00 1.15004846089585e-02 2.58378154536005e-04
1.29375000000000e+00 1.10673245717914e-02 2.49312198230238e-04
1.30065000000000e+00 1.06504792921478e-02 2.40560926131137e-04
1.30755000000000e+00 1.02493342827940e-02 2.32113571802355e-04
1.31445000000000e+00 9.86329820085227e-03 2.23959729847921e-04
1.32135000000000e+00 9.49180197608071e-03 2.16089344157182e-04
1.32825000000000e+00 9.13429797198515e-03 2.08492696514914e-04
1.33515000000000e+00 8.79025917852782e-03 2.01160395566188e-04
1.34205000000000e+00 8.45917843524213e-03 1.94083366125822e-04
1.34895000000000e+00 8.14056768360837e-03 1.87252838822452e-04
1.35585000000000e+00 7.83395724758845e-03 1.80660340067552e-04
1.36275000000000e+00 7.53889514125880e-03 1.74297682339936e-04
1.36965000000000e+00 7.25494640252106e-03 1.68156954776514e-04
1.37655000000000e+00 6.98169245190810e-03 1.62230514060316e-04
1.38345000000000e+00 6.71873047554042e-03 1.56510975597013e-04
1.39035000000000e+00 6.46567283132307e-03 1.50991204971402e-04
1.39725000000000e+00 6.22214647750798e-03 1.45664309675538e-04
1.40415000000000e+00 5.98779242277909e-03 1.40523631100396e-04
1.41105000000000e+00 5.76226519704988e-03 1.35562736783188e-04
1.41795000000000e+00 5.54523234219292e-03 1.30775412902650e-04
1.42485000000000e+00 5.33637392195092e-03 1.26155657014819e-04
1.43175000000000e+00 5.13538205030672e-03 1.21697671022031e-04
1.43865000000000e+00 4.94196043761699e-03 1.17395854368061e-04
1.44555000000000e+00 4.75582395384056e-03 1.13244797452514e-04
1.45245000000000e+00 4.57669820821753e-03 1.09239275257787e-04
1.45935000000000e+00 4.40431914477964e-03 1.05374241182075e-04
1.46625000000000e+00 4.23843265309541e-03 1.01644821072098e-04
1.47315000000000e+00 4.07879419367650e-03 9.80463074494000e-05
1.48005000000000e+00 3.92516843749283e-03 9.45741539242355e-05
1.48695000000000e+00 3.77732891906531e-03 9.12239697912331e-05
1.49385000000000e+00 3.63505770262455e-03 8.79915148011967e-05
1.50075000000000e+00 3.49814506084362e-03 8.48726941035522e-05
1.50765000000000e+00 3.36638916567112e-03 8.18635533541204e-05
1.51455000000000e+00 3.23959579080889e-03 7.89602739830367e-05
1.52145000000000e+00 3.11757802539576e-03 7.61591686178007e-05
1.52835000000000e+00 3.00015599847527e-03 7.34566766565744e-05
1.53525000000000e+00 2.88715661384114e-03 7.08493599869996e-05
1.54215000000000e+00 2.77841329486965e-03 6.83338988459347e-05
1.54905000000000e+00 2.67376573896285e-03 6.59070878156524e-05
1.55595000000000e+00 2.57305968124046e-03 6.35658319521741e-05
1.56285000000000e+00 2.47614666713224e-03 6.13071430415385e-05
1.56975000000000e+00 2.38288383353559e-03 5.91281359799326e-05
1.57665000000000e+00 2.29313369821563e-03 5.70260252737294e-05
1.58355000000000e+00 2.20676395713755e-03 5.49981216556058e-05
1.59045000000000e+00 2.12364728943225e-03 5.30418288130175e-05
1.59735000000000e+00 2.04366116970789e-03 5.11546402254274e-05
1.60425000000000e+00 1.96668768743062e-03 4.93341361067945e-05
1.61115000000000e+00 1.89261337310826e-03 4.75779804499292e-05
1.61805000000000e+00 1.82132903102063e-03 4.58839181694298e-05
1.62495000000000e+00 1.75272957825010e-03 4.42497723400194e-05
1.63185000000000e+00 1.68671388977492e-03 4.26734415271906e-05
1.63875000000000e+00 1.62318464939699e-03 4.11528972071680e-05
1.64565000000000e+00 1.56204820628448e-03 3.96861812732889e-05
1.65255000000000e+00 1.50321443691759e-03 3.82714036259872e-05
1.65945000000000e+00 1.44659661223408e-03 3.69067398436646e-05
1.66635000000000e+00 1.39211126977878e-03 3.55904289318065e-05
1.67325000000000e+00 1.33967809066836e-03 3.43207711477855e-05
1.68015000000000e+00 1.28921978119035e-03 3.30961258988794e-05
1.68705000000000e+00 1.24066195886155e-03 3.19149097111043e-05
1.69395000000000e+00 1.19393304277799e-03 3.07755942665386e-05
1.70085000000000e+00 1.14896414809490e-03 2.96767045068876e-05
1.70775000000000e+00 1.10568898448094e-03 2.86168168011127e-05
1.71465000000000e+00 1.06404375839717e-03 2.75945571750127e-05
1.72155000000000e+00 1.02396707905657e-03 2.66085996007126e-05
1.72845000000000e+00 9.85399867925608e-04 2.56576643440847e-05
1.73535000000000e+00 9.48285271634368e-04 2.47405163681858e-05
1.74225000000000e+00 9.12568578166842e-04 2.38559637908542e-05
1.74915000000000e+00 8.78197136207921e-04 2.30028563946747e-05
1.75605000000000e+00 8.45120277528109e-04 2.21800841875705e-05
1.76295000000000e+00 8.13289242291593e-04 2.13865760123429e-05
1.76985000000000e+00 7.82657107177546e-04 2.06212982035297e-05
1.77675000000000e+00 7.53178716208695e-04 1.98832532900067e-05
1.78365000000000e+00 7.24810614185211e-04 1.91714787418072e-05
1.79055000000000e+00 6.97510982625770e-04 1.84850457596867e-05
1.79745000000000e+00 6.71239578121364e-04 1.78230581060004e-05
1.80435000000000e+00 6.45957673010982e-04 1.71846509755164e-05
1.81125000000000e+00 6.21627998291722e-04 1.65689899048253e-05
1.81815000000000e+00 5.98214688679150e-04 1.59752697190538e-05
1.82505000000000e+00 5.75683229736948e-04 1.54027135146320e-05
1.83195000000000e+00 5.54000406997887e-04 1.48505716769012e-05
1.83885000000000e+00 5.33134257001141e-04 1.43181209313955e-05
1.84575000000000e+00 5.13054020173748e-04 1.38046634276609e-05
1.85265000000000e+00 4.93730095486776e-04 1.33095258545178e-05
1.85955000000000e+00 4.75133996819335e-04 1.28320585857082e-05
1.86645000000000e+00 4.57238310966123e-04 1.23716348549017e-05
1.87335000000000e+00 4.40016657226590e-04 1.19276499590690e-05
1.88025000000000e+00 4.23443648516162e-04 1.14995204892652e-05
1.88715000000000e+00 4.07494853942188e-04 1.10866835878952e-05
1.89405000000000e+00 3.92146762789446e-04 1.06885962315657e-05
1.90095000000000e+00 3.77376749862119e-04 1.03047345386563e-05
1.90785000000000e+00 3.63163042131147e-04 9.93459310077248e-06
1.91475000000000e+00 3.49484686637788e-04 9.57768433726871e-06
1.92165000000000e+00 3.36321519606075e-04 9.23353787206047e-06
1.92855000000000e+00 3.23654136718646e-04 8.90169993196542e-06
1.93545000000000e+00 3.11463864512106e-04 8.58173276584321e-06
1.94235000000000e+00 2.99732732849777e-04 8.27321408382529e-06
1.94925000000000e+00 2.88443448431252e-04 7.97573651595050e-06
1.95615000000000e+00 2.77579369299685e-04 7.68890708954511e-06
1.96305000000000e+00 2.67124480309267e-04 7.41234672470740e-06
1.96995000000000e+00 2.57063369516695e-04 7.14568974727949e-06
1.97685000000000e+00 2.47381205461851e-04 6.88858341870871e-06
1.98375000000000e+00 2.38063715304190e-04 6.64068748222096e-06
1.99065000000000e+00 2.29097163782616e-04 6.40167372474820e-06
1.99755000000000e+00 2.20468332967812e-04 6.17122555407087e-06
2.00445000000000e+00 2.12164502777203e-04 5.94903759065391e-06
2.01135000000000e+00 2.04173432223800e-04 5.73481527367275e-06
2.01825000000000e+00 1.96483341371306e-04 5.52827448074261e-06
2.02515000000000e+00 1.89082893968871e-04 5.32914116088089e-06
2.03205000000000e+00 1.81961180739898e-04 5.13715098024758e-06
2.03895000000000e+00 1.75107703300271e-04 4.95204898022542e-06
2.04585000000000e+00 1.68512358682297e-04 4.77358924741493e-06
2.05275000000000e+00 1.62165424441536e-04 4.60153459513437e-06
2.05965000000000e+00 1.56057544324589e-04 4.43565625602879e-06
2.06655000000000e+00 1.50179714476689e-04 4.27573358540497e-06
2.07345000000000e+00 1.44523270168786e-04 4.12155377492328e-06
2.08035000000000e+00 1.39079873024543e-04 3.97291157628859e-06
2.08725000000000e+00 1.33841498728421e-04 3.82960903459528e-06
2.09415000000000e+00 1.28800425196742e-04 3.69145523099324e-06
2.10105000000000e+00 1.23949221194269e-04 3.55826603435267e-06
2.10795000000000e+00 1.19280735379548e-04 3.42986386161668e-06
2.11485000000000e+00 1.14788085762846e-04 3.30607744654113e-06
2.12175000000000e+00 1.10464649561154e-04 3.18674161653125e-06
2.12865000000000e+00 1.06304053435293e-04 3.07169707729531e-06
2.13555000000000e+00 1.02300164094736e-04 2.96079020504398e-06
2.14245000000000e+00 9.84470792562972e-05 2.85387284597394e-06
2.14935000000000e+00 9.47391189433525e-05 2.75080212278331e-06
2.15625000000000e+00 9.11708171127745e-05 2.65144024797479e-06
2.16315000000000e+00 8.77369135972337e-05 2.55565434371101e-06
2.17005000000000e+00 8.44323463509891e-05 2.46331626799430e-06
2.17695000000000e+00 8.12522439877363e-05 2.37430244695135e-06
