Energy (eV)          EEDF (eV^-(3/2))     First Anisotropy
6.87500000000000e-03 4.25565584204757e-01 2.29147117434861e-04
2.06250000000000e-02 4.22514629555811e-01 3.78302438465666e-04
3.43750000000000e-02 4.19485547738292e-01 4.99178065019277e-04
4.81250000000000e-02 4.16478181941993e-01 5.90871996372883e-04
6.18750000000000e-02 4.13492376480925e-01 6.67233220793617e-04
7.56250000000000e-02 4.10527976785246e-01 7.33500089617338e-04
8.93750000000000e-02 4.07584829393251e-01 7.92384548395962e-04
1.03125000000000e-01 4.04662781943431e-01 8.45524904484938e-04
1.16875000000000e-01 4.01761683166583e-01 8.94008132765290e-04
1.30625000000000e-01 3.98881382877980e-01 9.38602779270981e-04
1.44375000000000e-01 3.96021731969594e-01 9.79877978413245e-04
1.58125000000000e-01 3.93182582402381e-01 1.01827033585579e-03
1.71875000000000e-01 3.90363787198614e-01 1.05412425894142e-03
1.85625000000000e-01 3.87565200434276e-01 1.08771764029677e-03
1.99375000000000e-01 3.84786677231504e-01 1.11927894340550e-03
2.13125000000000e-01 3.82028073751090e-01 1.14899898217050e-03
2.26875000000000e-01 3.79289247185035e-01 1.17703928850187e-03
2.40625000000000e-01 3.76570055749157e-01 1.20353820885022e-03
2.54375000000000e-01 3.73870358675746e-01 1.22861544402023e-03
2.68125000000000e-01 3.71190016206285e-01 1.25237549452108e-03
2.81875000000000e-01 3.68528889584208e-01 1.27491031924945e-03
2.95625000000000e-01 3.65886841047719e-01 1.29630141763015e-03
3.09375000000000e-01 3.63263733822661e-01 1.31662148185456e-03
3.23125000000000e-01 3.60659432115437e-01 1.33593572357497e-03
3.36875000000000e-01 3.58073801105975e-01 1.35430295063501e-03
3.50625000000000e-01 3.55506706940753e-01 1.37177644944584e-03
3.64375000000000e-01 3.52958016725871e-01 1.38840471451135e-03
3.78125000000000e-01 3.50427598520164e-01 1.40423205648383e-03
3.91875000000000e-01 3.47915321328381e-01 1.41929911276362e-03
4.05625000000000e-01 3.45421055094397e-01 1.43364327921767e-03
4.19375000000000e-01 3.42944670694481e-01 1.44729907753076e-03
4.33125000000000e-01 3.40486039930615e-01 1.46029846963764e-03
4.46875000000000e-01 3.38045035523855e-01 1.47267112834200e-03
4.60625000000000e-01 3.35621531107740e-01 1.48444467142468e-03
4.74375000000000e-01 3.33215401221755e-01 1.49564486514131e-03
4.88125000000000e-01 3.30826521304833e-01 1.50629580190942e-03
5.01875000000000e-01 3.28454767688905e-01 1.51642005611542e-03
5.15625000000000e-01 3.26100017592504e-01 1.52603882128106e-03
5.29375000000000e-01 3.23762149114400e-01 1.53517203127275e-03
5.43125000000000e-01 3.21441041227300e-01 1.54383846779136e-03
5.56875000000000e-01 3.19136573771573e-01 1.55205585601538e-03
5.70625000000000e-01 3.16848627449035e-01 1.55984094997359e-03
5.84375000000000e-01 3.14577083816772e-01 1.56720960898098e-03
5.98125000000000e-01 3.12321825281006e-01 1.57417686626981e-03
6.11875000000000e-01 3.10082735091013e-01 1.58075699078115e-03
6.25625000000000e-01 3.07859697333072e-01 1.58696354294328e-03
6.39375000000000e-01 3.05652596924471e-01 1.59280942514733e-03
6.53125000000000e-01 3.03461319607544e-01 1.59830692753235e-03
6.66875000000000e-01 3.01285751943759e-01 1.60346776961003e-03
6.80625000000000e-01 2.99125781307845e-01 1.60830313818891e-03
6.94375000000000e-01 2.96981295881961e-01 1.61282372199954e-03
7.08125000000000e-01 2.94852184649909e-01 1.61703974336969e-03
7.21875000000000e-01 2.92738337391385e-01 1.62096098725675e-03
7.35625000000000e-01 2.90639644676272e-01 1.62459682790705e-03
7.49375000000000e-01 2.88555997858979e-01 1.62795625337839e-03
7.63125000000000e-01 2.86487289072814e-01 1.63104788813610e-03
7.76875000000000e-01 2.84433411224401e-01 1.63388001390769e-03
7.90625000000000e-01 2.82394257988133e-01 1.63646058896050e-03
8.04375000000000e-01 2.80369723800672e-01 1.63879726594894e-03
8.18125000000000e-01 2.78359703855481e-01 1.64089740846124e-03
8.31875000000000e-01 2.76364094097400e-01 1.64276810638253e-03
8.45625000000000e-01 2.74382791217260e-01 1.64441619017817e-03
8.59375000000000e-01 2.72415692646532e-01 1.64584824419104e-03
8.73125000000000e-01 2.70462696552018e-01 1.64707061903592e-03
8.86875000000000e-01 2.68523701830584e-01 1.64808944316720e-03
9.00625000000000e-01 2.66598608103917e-01 1.64891063368822e-03
9.14375000000000e-01 2.64687315713338e-01 1.64953990646233e-03
9.28125000000000e-01 2.62789725714637e-01 1.64998278558281e-03
9.41875000000000e-01 2.60905739872952e-01 1.65024461225134e-03
9.55625000000000e-01 2.59035260657684e-01 1.65033055311036e-03
9.69375000000000e-01 2.57178191237451e-01 1.65024560807170e-03
9.83125000000000e-01 2.55334435475067e-01 1.64999461767875e-03
9.96875000000000e-01 2.53503897922575e-01 1.64958227003617e-03
1.01062500000000e+00 2.51686483816299e-01 1.64901310734010e-03
1.02437500000000e+00 2.49882099071942e-01 1.64829153203612e-03
1.03812500000000e+00 2.48090650279711e-01 1.64742181263137e-03
1.05187500000000e+00 2.46312044699488e-01 1.64640808918612e-03
1.06562500000000e+00 2.44546190256022e-01 1.64525437850579e-03
1.07937500000000e+00 2.42792995534168e-01 1.64396457905381e-03
1.09312500000000e+00 2.41052369774151e-01 1.64254247560454e-03
1.10687500000000e+00 2.39324222866869e-01 1.64099174365318e-03
1.12062500000000e+00 2.37608465349228e-01 1.63931595359819e-03
1.13437500000000e+00 2.35905008399512e-01 1.63751857471118e-03
1.14812500000000e+00 2.34213763832782e-01 1.63560297890795e-03
1.16187500000000e+00 2.32534644096313e-01 1.63357244433253e-03
1.17562500000000e+00 2.30867562265060e-01 1.63143015876635e-03
1.18937500000000e+00 2.29212432037160e-01 1.62917922287320e-03
1.20312500000000e+00 2.27569167729464e-01 1.62682265328932e-03
1.21687500000000e+00 2.25937684273098e-01 1.62436338556853e-03
1.23062500000000e+00 2.24317897209063e-01 1.62180427699073e-03
1.24437500000000e+00 2.22709722683864e-01 1.61914810924150e-03
1.25812500000000e+00 2.21113077445162e-01 1.61639759097052e-03
1.27187500000000e+00 2.19527878837471e-01 1.61355536023525e-03
1.28562500000000e+00 2.17954044797878e-01 1.61062398683716e-03
1.29937500000000e+00 2.16391493851791e-01 1.60760597455547e-03
1.31312500000000e+00 2.14840145108726e-01 1.60450376328459e-03
1.32687500000000e+00 2.13299918258115e-01 1.60131973108037e-03
1.34062500000000e+00 2.11770733565151e-01 1.59805619612021e-03
1.35437500000000e+00 2.10252511866662e-01 1.59471541858153e-03
1.36812500000000e+00 2.08745174567008e-01 1.59129960244237e-03
1.38187500000000e+00 2.07248643634016e-01 1.58781089720902e-03
1.39562500000000e+00 2.05762841594941e-01 1.58425139957387e-03
1.40937500000000e+00 2.04287691532451e-01 1.58062315500718e-03
1.42312500000000e+00 2.02823117080649e-01 1.57692815928604e-03
1.43687500000000e+00 2.01369042421119e-01 1.57316835996362e-03
1.45062500000000e+00 1.99925392279001e-01 1.56934565778191e-03
1.46437500000000e+00 1.98492091919093e-01 1.56546190803039e-03
1.47812500000000e+00 1.97069067141982e-01 1.56151892185321e-03
1.49187500000000e+00 1.95656244280206e-01 1.55751846750777e-03
1.50562500000000e+00 1.94253550194435e-01 1.55346227157635e-03
1.51937500000000e+00 1.92860912269691e-01 1.54935202013349e-03
1.53312500000000e+00 1.91478258411582e-01 1.54518935987117e-03
1.54687500000000e+00 1.90105517042577e-01 1.54097589918320e-03
1.56062500000000e+00 1.88742617098295e-01 1.53671320921134e-03
1.57437500000000e+00 1.87389488023828e-01 1.53240282485450e-03
1.58812500000000e+00 1.86046059770089e-01 1.52804624574262e-03
1.60187500000000e+00 1.84712262790184e-01 1.52364493717689e-03
1.61562500000000e+00 1.83388028035816e-01 1.51920033103796e-03
1.62937500000000e+00 1.82073286953704e-01 1.51471382666324e-03
1.64312500000000e+00 1.80767971482039e-01 1.51018679169452e-03
1.65687500000000e+00 1.79472014046960e-01 1.50562056289775e-03
1.67062500000000e+00 1.78185347559053e-01 1.50101644695561e-03
1.68437500000000e+00 1.76907905409882e-01 1.49637572123399e-03
1.69812500000000e+00 1.75639621468537e-01 1.49169963452393e-03
1.71187500000000e+00 1.74380430078212e-01 1.48698940775940e-03
1.72562500000000e+00 1.73130266052808e-01 1.48224623471247e-03
1.73937500000000e+00 1.71889064673554e-01 1.47747128266668e-03
1.75312500000000e+00 1.70656761685663e-01 1.47266569306897e-03
1.76687500000000e+00 1.69433293294997e-01 1.46783058216142e-03
1.78062500000000e+00 1.68218596164773e-01 1.46296704159376e-03
1.79437500000000e+00 1.67012607412280e-01 1.45807613901718e-03
1.80812500000000e+00 1.65815264605624e-01 1.45315891866006e-03
1.82187500000000e+00 1.64626505760495e-01 1.44821640188645e-03
1.83562500000000e+00 1.63446269336961e-01 1.44324958773783e-03
1.84937500000000e+00 1.62274494236281e-01 1.43825945345899e-03
1.86312500000000e+00 1.61111119797739e-01 1.43324695500855e-03
1.87687500000000e+00 1.59956085795510e-01 1.42821302755458e-03
1.89062500000000e+00 1.58809332435535e-01 1.42315858595576e-03
1.90437500000000e+00 1.57670800352432e-01 1.41808452522907e-03
1.91812500000000e+00 1.56540430606418e-01 1.41299172100385e-03
1.93187500000000e+00 1.55418164680261e-01 1.40788102996324e-03
1.94562500000000e+00 1.54303944476248e-01 1.40275329027348e-03
1.95937500000000e+00 1.53197712313179e-01 1.39760932200087e-03
1.97312500000000e+00 1.52099410923383e-01 1.39244992751748e-03
1.98687500000000e+00 1.51008983449748e-01 1.38727589189575e-03
2.00062500000000e+00 1.49926373442781e-01 1.38208798329219e-03
2.01437500000000e+00 1.48851524857688e-01 1.37688695332110e-03
2.02812500000000e+00 1.47784382051467e-01 1.37167353741779e-03
2.04187500000000e+00 1.46724889780032e-01 1.36644845519231e-03
2.05562500000000e+00 1.45672993195351e-01 1.36121241077423e-03
2.06937500000000e+00 1.44628637842608e-01 1.35596609314781e-03
2.08312500000000e+00 1.43591769657383e-01 1.35071017647854e-03
2.09687500000000e+00 1.42562334962851e-01 1.34544532043160e-03
2.11062500000000e+00 1.41540280467010e-01 1.34017217048168e-03
2.12437500000000e+00 1.40525553259913e-01 1.33489135821517e-03
2.13812500000000e+00 1.39518100810938e-01 1.32960350162455e-03
2.15187500000000e+00 1.38517870966062e-01 1.32430920539526e-03
2.16562500000000e+00 1.37524811945163e-01 1.31900906118572e-03
2.17937500000000e+00 1.36538872339341e-01 1.31370364789988e-03
2.19312500000000e+00 1.35560001108255e-01 1.30839353195349e-03
2.20687500000000e+00 1.34588147577481e-01 1.30307926753363e-03
2.22062500000000e+00 1.33623261435890e-01 1.29776139685164e-03
2.23437500000000e+00 1.32665292733040e-01 1.29244045039039e-03
2.24812500000000e+00 1.31714191876595e-01 1.28711694714529e-03
2.26187500000000e+00 1.30769909629754e-01 1.28179139485934e-03
2.27562500000000e+00 1.29832397108704e-01 1.27646429025311e-03
2.28937500000000e+00 1.28901605780086e-01 1.27113611924865e-03
2.30312500000000e+00 1.27977487458490e-01 1.26580735718843e-03
2.31687500000000e+00 1.27059994303951e-01 1.26047846904920e-03
2.33062500000000e+00 1.26149078819481e-01 1.25514990965060e-03
2.34437500000000e+00 1.25244693848602e-01 1.24982212385923e-03
2.35812500000000e+00 1.24346792572914e-01 1.24449554678779e-03
2.37187500000000e+00 1.23455328509662e-01 1.23917060398965e-03
2.38562500000000e+00 1.22570255509337e-01 1.23384771164927e-03
2.39937500000000e+00 1.21691527753283e-01 1.22852727676775e-03
2.41312500000000e+00 1.20819099751325e-01 1.22320969734461e-03
2.42687500000000e+00 1.19952926339417e-01 1.21789536255551e-03
2.44062500000000e+00 1.19092962677300e-01 1.21258465292575e-03
2.45437500000000e+00 1.18239164246184e-01 1.20727794049988e-03
2.46812500000000e+00 1.17391486846443e-01 1.20197558900795e-03
2.48187500000000e+00 1.16549886595323e-01 1.19667795402765e-03
2.49562500000000e+00 1.15714319924676e-01 1.19138538314312e-03
2.50937500000000e+00 1.14884743578701e-01 1.18609821610041e-03
2.52312500000000e+00 1.14061114611703e-01 1.18081678495912e-03
2.53687500000000e+00 1.13243390385876e-01 1.17554141424114e-03
2.55062500000000e+00 1.12431528569090e-01 1.17027242107625e-03
2.56437500000000e+00 1.11625487132702e-01 1.16501011534436e-03
2.57812500000000e+00 1.10825224349378e-01 1.15975479981473e-03
2.59187500000000e+00 1.10030698790938e-01 1.15450677028239e-03
2.60562500000000e+00 1.09241869326205e-01 1.14926631570158e-03
2.61937500000000e+00 1.08458695118880e-01 1.14403371831655e-03
2.63312500000000e+00 1.07681135625426e-01 1.13880925378914e-03
2.64687500000000e+00 1.06909150592970e-01 1.13359319132438e-03
2.66062500000000e+00 1.06142700057219e-01 1.12838579379296e-03
2.67437500000000e+00 1.05381744340392e-01 1.12318731785131e-03
2.68812500000000e+00 1.04626244049163e-01 1.11799801405950e-03
2.70187500000000e+00 1.03876160072626e-01 1.11281812699610e-03
2.71562500000000e+00 1.03131453580265e-01 1.10764789537131e-03
2.72937500000000e+00 1.02392086019949e-01 1.10248755213750e-03
2.74312500000000e+00 1.01658019115935e-01 1.09733732459748e-03
2.75687500000000e+00 1.00929214866882e-01 1.09219743451072e-03
2.77062500000000e+00 1.00205635543891e-01 1.08706809819734e-03
2.78437500000000e+00 9.94872436885464e-02 1.08194952664004e-03
2.79812500000000e+00 9.87740021109780e-02 1.07684192558411e-03
2.81187500000000e+00 9.80658738879373e-02 1.07174549563520e-03
2.82562500000000e+00 9.73628223608850e-02 1.06666043235532e-03
2.83937500000000e+00 9.66648111340931e-02 1.06158692635701e-03
2.85312500000000e+00 9.59718040727610e-02 1.05652516339555e-03
2.86687500000000e+00 9.52837653011448e-02 1.05147532445936e-03
2.88062500000000e+00 9.46006592007004e-02 1.04643758585868e-03
2.89437500000000e+00 9.39224504082390e-02 1.04141211931245e-03
2.90812500000000e+00 9.32491038140970e-02 1.03639909203372e-03
2.92187500000000e+00 9.25805845603179e-02 1.03139866681313e-03
2.93562500000000e+00 9.19168580388482e-02 1.02641100210088e-03
2.94937500000000e+00 9.12578898897457e-02 1.02143625208726e-03
2.96312500000000e+00 9.06036459994004e-02 1.01647456678147e-03
2.97687500000000e+00 8.99540924987691e-02 1.01152609208906e-03
2.99062500000000e+00 8.93091957616215e-02 1.00659096988768e-03
3.00437500000000e+00 8.86689224027998e-02 1.00166933810175e-03
3.01812500000000e+00 8.80332392764902e-02 9.96761330775444e-04
3.03187500000000e+00 8.74021134745071e-02 9.91867078144304e-04
3.04562500000000e+00 8.67755123245896e-02 9.86986706705662e-04
3.05937500000000e+00 8.61534033887098e-02 9.82120339287673e-04
3.07312500000000e+00 8.55357544613938e-02 9.77268095116971e-04
3.08687500000000e+00 8.49225335680546e-02 9.72430089885209e-04
3.10062500000000e+00 8.43137089633364e-02 9.67606435814363e-04
3.11437500000000e+00 8.37092491294715e-02 9.62797241720573e-04
3.12812500000000e+00 8.31091227746487e-02 9.58002613077080e-04
3.14187500000000e+00 8.25132988313933e-02 9.53222652076033e-04
3.15562500000000e+00 8.19217464549588e-02 9.48457457688904e-04
3.16937500000000e+00 8.13344350217300e-02 9.43707125725982e-04
3.18312500000000e+00 8.07513341276380e-02 9.38971748894710e-04
3.19687500000000e+00 8.01724135865859e-02 9.34251416857020e-04
3.21062500000000e+00 7.95976434288862e-02 9.29546216285568e-04
3.22437500000000e+00 7.90269938997095e-02 9.24856230919029e-04
3.23812500000000e+00 7.84604354575440e-02 9.20181541616300e-04
3.25187500000000e+00 7.78979387726660e-02 9.15522226409670e-04
3.26562500000000e+00 7.73394747256221e-02 9.10878360557198e-04
3.27937500000000e+00 7.67850144057211e-02 9.06250016594137e-04
3.29312500000000e+00 7.62345291095377e-02 9.01637264383288e-04
3.30687500000000e+00 7.56879903394266e-02 8.97040171164517e-04
3.32062500000000e+00 7.51453698020471e-02 8.92458801603518e-04
3.33437500000000e+00 7.46066394068985e-02 8.87893217839485e-04
3.34812500000000e+00 7.40717712648657e-02 8.83343479532137e-04
3.36187500000000e+00 7.35407376867757e-02 8.78809643907773e-04
3.37562500000000e+00 7.30135111819639e-02 8.74291765804506e-04
3.38937500000000e+00 7.24900644568514e-02 8.69789897716852e-04
3.40312500000000e+00 7.19703704135316e-02 8.65304089839452e-04
3.41687500000000e+00 7.14544021483675e-02 8.60834390110007e-04
3.43062500000000e+00 7.09421329505992e-02 8.56380844251318e-04
3.44437500000000e+00 7.04335363009607e-02 8.51943495812888e-04
3.45812500000000e+00 6.99285858703075e-02 8.47522386211538e-04
3.47187500000000e+00 6.94272555182534e-02 8.43117554771503e-04
3.48562500000000e+00 6.89295192918171e-02 8.38729038763759e-04
3.49937500000000e+00 6.84353514240788e-02 8.34356873444497e-04
3.51312500000000e+00 6.79447263328463e-02 8.30001092093264e-04
3.52687500000000e+00 6.74576186193307e-02 8.25661726050101e-04
3.54062500000000e+00 6.69740030668314e-02 8.21338804752332e-04
3.55437500000000e+00 6.64938546394310e-02 8.17032355770543e-04
3.56812500000000e+00 6.60171484806987e-02 8.12742404843904e-04
3.58187500000000e+00 6.55438599124039e-02 8.08468975915029e-04
3.59562500000000e+00 6.50739644332387e-02 8.04212091164162e-04
3.60937500000000e+00 6.46074377175493e-02 7.99971771042756e-04
3.62312500000000e+00 6.41442556140770e-02 7.95748034306514e-04
3.63687500000000e+00 6.36843941447074e-02 7.91540898047846e-04
3.65062500000000e+00 6.32278295032296e-02 7.87350377727782e-04
3.66437500000000e+00 6.27745380541037e-02 7.83176487207340e-04
3.67812500000000e+00 6.23244963312371e-02 7.79019238778343e-04
3.69187500000000e+00 6.18776810367696e-02 7.74878643193679e-04
3.70562500000000e+00 6.14340690398676e-02 7.70754709697100e-04
3.71937500000000e+00 6.09936373755265e-02 7.66647446052548e-04
3.73312500000000e+00 6.05563632433819e-02 7.62556858572870e-04
3.74687500000000e+00 6.01222240065292e-02 7.58482952148200e-04
3.76062500000000e+00 5.96911971903517e-02 7.54425730273704e-04
3.77437500000000e+00 5.92632604813573e-02 7.50385195076864e-04
3.78812500000000e+00 5.88383917260231e-02 7.46361347344474e-04
3.80187500000000e+00 5.84165689296489e-02 7.42354186549027e-04
3.81562500000000e+00 5.79977702552182e-02 7.38363710874655e-04
3.82937500000000e+00 5.75819740222680e-02 7.34389917242770e-04
3.84312500000000e+00 5.71691587057664e-02 7.30432801337035e-04
3.85687500000000e+00 5.67593029349983e-02 7.26492357628118e-04
3.87062500000000e+00 5.63523854924587e-02 7.22568579398064e-04
3.88437500000000e+00 5.59483853127551e-02 7.18661458764042e-04
3.89812500000000e+00 5.55472814815161e-02 7.14770986701826e-04
3.91187500000000e+00 5.51490532343093e-02 7.10897153068848e-04
3.92562500000000e+00 5.47536799555662e-02 7.07039946626954e-04
3.93937500000000e+00 5.43611411775150e-02 7.03199355064721e-04
3.95312500000000e+00 5.39714165791206e-02 6.99375365019351e-04
3.96687500000000e+00 5.35844859850335e-02 6.95567962098142e-04
3.98062500000000e+00 5.32003293645444e-02 6.91777130899836e-04
3.99437500000000e+00 5.28189268305480e-02 6.88002855035457e-04
4.00812500000000e+00 5.24402586385130e-02 6.84245117148748e-04
4.02187500000000e+00 5.20643051854600e-02 6.80503898936327e-04
4.03562500000000e+00 5.16910470089471e-02 6.76779181167584e-04
4.04937500000000e+00 5.13204647860619e-02 6.73070943704168e-04
4.06312500000000e+00 5.09525393324213e-02 6.69379165519055e-04
4.07687500000000e+00 5.05872516011787e-02 6.65703824715503e-04
4.09062500000000e+00 5.02245826820374e-02 6.62044898545566e-04
4.10437500000000e+00 4.98645138002720e-02 6.58402363428297e-04
4.11812500000000e+00 4.95070263157567e-02 6.54776194967683e-04
4.13187500000000e+00 4.91521017219996e-02 6.51166367970282e-04
4.14562500000000e+00 4.87997216451855e-02 6.47572856462547e-04
4.15937500000000e+00 4.84498678432240e-02 6.43995633707891e-04
4.17312500000000e+00 4.81025222048056e-02 6.40434672223394e-04
4.18687500000000e+00 4.77576667484641e-02 6.36889943796333e-04
4.20062500000000e+00 4.74152836216454e-02 6.33361419500380e-04
4.21437500000000e+00 4.70753550997836e-02 6.29849069711540e-04
4.22812500000000e+00 4.67378635853833e-02 6.26352864123868e-04
4.24187500000000e+00 4.64027916071087e-02 6.22872771764806e-04
4.25562500000000e+00 4.60701218188790e-02 6.19408761010357e-04
4.26937500000000e+00 4.57398369989705e-02 6.15960799600035e-04
4.28312500000000e+00 4.54119200491252e-02 6.12528854651465e-04
4.29687500000000e+00 4.50863539936654e-02 6.09112892674865e-04
4.31062500000000e+00 4.47631219786152e-02 6.05712879587230e-04
4.32437500000000e+00 4.44422072708275e-02 6.02328780726199e-04
4.33812500000000e+00 4.41235932571184e-02 5.98960560863712e-04
