Energy (eV)          EEDF (eV^-(3/2))     First Anisotropy
1.59649122807018e-02 9.31821871934868e-02 4.63019574118171e-05
4.78947368421053e-02 9.26185250439603e-02 7.64835671978578e-05
7.98245614035088e-02 9.20582725068984e-02 1.01035546778872e-04
1.11754385964912e-01 9.15014089558197e-02 1.19729679178791e-04
1.43684210526316e-01 9.09479138919016e-02 1.35355460581709e-04
1.75614035087719e-01 9.03977669363622e-02 1.48966289197646e-04
2.07543859649123e-01 8.98509478397581e-02 1.61106675077902e-04
2.39473684210526e-01 8.93074364689326e-02 1.72105063987204e-04
2.71403508771930e-01 8.87672128175934e-02 1.82179045823517e-04
3.03333333333333e-01 8.82302569962295e-02 1.91482239503493e-04
3.35263157894737e-01 8.76965492376988e-02 2.00128236428126e-04
3.67192982456140e-01 8.71660698960823e-02 2.08204049107233e-04
3.99122807017544e-01 8.66387994410103e-02 2.15778214771874e-04
4.31052631578947e-01 8.61147184631876e-02 2.22905953458655e-04
4.62982456140351e-01 8.55938076680988e-02 2.29632597380475e-04
4.94912280701754e-01 8.50760478803293e-02 2.35995953804641e-04
5.26842105263158e-01 8.45614200382809e-02 2.42027982770613e-04
5.58771929824561e-01 8.40499051967306e-02 2.47756018132372e-04
5.90701754385965e-01 8.35414845259976e-02 2.53203677354747e-04
6.22631578947368e-01 8.30361393084292e-02 2.58391550600258e-04
6.54561403508772e-01 8.25338509413409e-02 2.63337732586228e-04
6.86491228070175e-01 8.20346009329513e-02 2.68058238842558e-04
7.18421052631579e-01 8.15383709048595e-02 2.72567335757214e-04
7.50350877192982e-01 8.10451425884070e-02 2.76877805499289e-04
7.82280701754386e-01 8.05548978267903e-02 2.81001160837486e-04
8.14210526315789e-01 8.00676185717643e-02 2.84947821215892e-04
8.46140350877193e-01 7.95832868848908e-02 2.88727257781211e-04
8.78070175438597e-01 7.91018849368187e-02 2.92348115016587e-04
9.10000000000000e-01 7.86233950048968e-02 2.95818312038227e-04
9.41929824561404e-01 7.81477994747734e-02 2.99145128539766e-04
9.73859649122807e-01 7.76750808376044e-02 3.02335277844532e-04
1.00578947368421e+00 7.72052216914524e-02 3.05394969652548e-04
1.03771929824561e+00 7.67382047368369e-02 3.08329962581443e-04
1.06964912280702e+00 7.62740127854048e-02 3.11145612467903e-04
1.10157894736842e+00 7.58126287441764e-02 3.13846911369177e-04
1.13350877192982e+00 7.53540356323244e-02 3.16438522485305e-04
1.16543859649123e+00 7.48982165672208e-02 3.18924813808949e-04
1.19736842105263e+00 7.44451547646965e-02 3.21309881056383e-04
1.22929824561404e+00 7.39948335497584e-02 3.23597574388676e-04
1.26122807017544e+00 7.35472363408516e-02 3.25791519048470e-04
1.29315789473684e+00 7.31023466639407e-02 3.27895134133436e-04
1.32508771929825e+00 7.26601481376249e-02 3.29911649553369e-04
1.35701754385965e+00 7.22206244864183e-02 3.31844120994234e-04
1.38894736842105e+00 7.17837595266457e-02 3.33695443547562e-04
1.42087719298246e+00 7.13495371789903e-02 3.35468363773851e-04
1.45280701754386e+00 7.09179414551046e-02 3.37165490779293e-04
1.48473684210526e+00 7.04889564694853e-02 3.38789305483119e-04
1.51666666666667e+00 7.00625664295744e-02 3.40342171942482e-04
1.54859649122807e+00 6.96387556356802e-02 3.41826342096848e-04
1.58052631578947e+00 6.92175084885846e-02 3.43243965453568e-04
1.61245614035088e+00 6.87988094780535e-02 3.44597095376356e-04
1.64438596491228e+00 6.83826431929243e-02 3.45887695205648e-04
1.67631578947368e+00 6.79689943101280e-02 3.47117644023644e-04
1.70824561403509e+00 6.75578476042967e-02 3.48288741786992e-04
1.74017543859649e+00 6.71491879372622e-02 3.49402714198721e-04
1.77210526315789e+00 6.67430002672169e-02 3.50461217042292e-04
1.80403508771930e+00 6.63392696386574e-02 3.51465840327510e-04
1.83596491228070e+00 6.59379811911280e-02 3.52418111505247e-04
1.86789473684211e+00 6.55391201517210e-02 3.53319500894575e-04
1.89982456140351e+00 6.51426718348539e-02 3.54171422027538e-04
1.93175438596491e+00 6.47486216479638e-02 3.54975236524301e-04
1.96368421052632e+00 6.43569550826576e-02 3.55732256446121e-04
1.99561403508772e+00 6.39676577223217e-02 3.56443746811197e-04
2.02754385964912e+00 6.35807152336114e-02 3.57110928064588e-04
2.05947368421053e+00 6.31961133737439e-02 3.57734978256494e-04
2.09140350877193e+00 6.28138379823083e-02 3.58317035199151e-04
2.12333333333333e+00 6.24338749882592e-02 3.58858198361549e-04
2.15526315789474e+00 6.20562104020302e-02 3.59359530762028e-04
2.18719298245614e+00 6.16808303222456e-02 3.59822060222070e-04
2.21912280701754e+00 6.13077209298008e-02 3.60246782642247e-04
2.25105263157895e+00 6.09368684875711e-02 3.60634661051489e-04
2.28298245614035e+00 6.05682593448265e-02 3.60986628641551e-04
2.31491228070175e+00 6.02018799301726e-02 3.61303589738072e-04
2.34684210526316e+00 5.98377167574883e-02 3.61586421002841e-04
2.37877192982456e+00 5.94757564191077e-02 3.61835972670909e-04
2.41070175438596e+00 5.91159855915354e-02 3.62053069614623e-04
2.44263157894737e+00 5.87583910288570e-02 3.62238512449371e-04
2.47456140350877e+00 5.84029595682432e-02 3.62393078478007e-04
2.50649122807018e+00 5.80496781235785e-02 3.62517522682832e-04
2.53842105263158e+00 5.76985336907639e-02 3.62612578218155e-04
2.57035087719298e+00 5.73495133429090e-02 3.62678958698795e-04
2.60228070175439e+00 5.70026042300114e-02 3.62717356865291e-04
2.63421052631579e+00 5.66577935824639e-02 3.62728446743719e-04
2.66614035087719e+00 5.63150687052828e-02 3.62712884048682e-04
2.69807017543860e+00 5.59744169828539e-02 3.62671306821321e-04
2.73000000000000e+00 5.56358258733400e-02 3.62604336123369e-04
2.76192982456140e+00 5.52992829132638e-02 3.62512576610596e-04
2.79385964912281e+00 5.49647757120863e-02 3.62396617164106e-04
2.82578947368421e+00 5.46322919566335e-02 3.62257031406954e-04
2.85771929824561e+00 5.43018194058382e-02 3.62094378279836e-04
2.88964912280702e+00 5.39733458950180e-02 3.61909202507452e-04
2.92157894736842e+00 5.36468593307738e-02 3.61702035125142e-04
2.95350877192982e+00 5.33223476951242e-02 3.61473393601222e-04
2.98543859649123e+00 5.29997990416362e-02 3.61223783518370e-04
3.01736842105263e+00 5.26792014950951e-02 3.60953697164838e-04
3.04929824561404e+00 5.23605432542473e-02 3.60663615141961e-04
3.08122807017544e+00 5.20438125871302e-02 3.60354006477419e-04
3.11315789473684e+00 5.17289978348116e-02 3.60025328957438e-04
3.14508771929825e+00 5.14160874068520e-02 3.59678029518036e-04
3.17701754385965e+00 5.11050697849252e-02 3.59312544547513e-04
3.20894736842105e+00 5.07959335184069e-02 3.58929300247912e-04
3.24087719298246e+00 5.04886672278816e-02 3.58528712910854e-04
3.27280701754386e+00 5.01832596008530e-02 3.58111189252340e-04
3.30473684210526e+00 4.98796993951416e-02 3.57677126400198e-04
3.33666666666667e+00 4.95779754356153e-02 3.57226913264018e-04
3.36859649122807e+00 4.92780766138645e-02 3.56760929182096e-04
3.40052631578947e+00 4.89799918904552e-02 3.56279545239988e-04
3.43245614035088e+00 4.86837102909763e-02 3.55783124273343e-04
3.46438596491228e+00 4.83892209091313e-02 3.55272021070855e-04
3.49631578947368e+00 4.80965129028902e-02 3.54746582633004e-04
3.52824561403509e+00 4.78055754974892e-02 3.54207148358435e-04
3.56017543859649e+00 4.75163979816824e-02 3.53654050285414e-04
3.59210526315789e+00 4.72289697106523e-02 3.53087613263141e-04
3.62403508771930e+00 4.69432801023592e-02 3.52508155177553e-04
3.65596491228070e+00 4.66593186403652e-02 3.51915986873931e-04
3.68789473684211e+00 4.63770748710409e-02 3.51311413310243e-04
3.71982456140351e+00 4.60965384032487e-02 3.50694732294183e-04
3.75175438596491e+00 4.58176989102142e-02 3.50066235598029e-04
3.78368421052632e+00 4.55405461261433e-02 3.49426208906136e-04
3.81561403508772e+00 4.52650698488068e-02 3.48774931944123e-04
3.84754385964912e+00 4.49912599362419e-02 3.48112678659058e-04
3.87947368421053e+00 4.47191063092628e-02 3.47439717338814e-04
3.91140350877193e+00 4.44485989482439e-02 3.46756310781608e-04
3.94333333333333e+00 4.41797278955593e-02 3.46062716406328e-04
3.97526315789474e+00 4.39124832524447e-02 3.45359186412514e-04
4.00719298245614e+00 4.36468551813679e-02 3.44645967672359e-04
4.03912280701754e+00 4.33828339036191e-02 3.43923302722961e-04
4.07105263157895e+00 4.31204096990050e-02 3.43191428602950e-04
4.10298245614035e+00 4.28595729074174e-02 3.42450577814016e-04
4.13491228070175e+00 4.26003139259116e-02 3.41700978241331e-04
4.16684210526316e+00 4.23426232108860e-02 3.40942853238320e-04
4.19877192982456e+00 4.20864912752299e-02 3.40176421757517e-04
4.23070175438597e+00 4.18319086904434e-02 3.39401898429158e-04
4.26263157894737e+00 4.15788660838524e-02 3.38619493685311e-04
4.29456140350877e+00 4.13273541406705e-02 3.37829413832863e-04
4.32649122807018e+00 4.10773636012798e-02 3.37031861171237e-04
4.35842105263158e+00 4.08288852632363e-02 3.36227033871907e-04
4.39035087719298e+00 4.05819099791743e-02 3.35415126844760e-04
4.42228070175439e+00 4.03364286565135e-02 3.34596330673010e-04
4.45421052631579e+00 4.00924322587828e-02 3.33770832454106e-04
4.48614035087719e+00 3.98499118030790e-02 3.32938815708014e-04
4.51807017543860e+00 3.96088583619172e-02 3.32100460433921e-04
4.55000000000000e+00 3.93692630607479e-02 3.31255943208770e-04
4.58192982456140e+00 3.91311170797584e-02 3.30405437240207e-04
4.61385964912281e+00 3.88944116514457e-02 3.29549112460298e-04
4.64578947368421e+00 3.86591380623709e-02 3.28687135574905e-04
4.67771929824561e+00 3.84252876507859e-02 3.27819670153166e-04
4.70964912280702e+00 3.81928518083426e-02 3.26946876673386e-04
4.74157894736842e+00 3.79618219777725e-02 3.26068912608623e-04
4.77350877192982e+00 3.77321896545509e-02 3.25185932302689e-04
4.80543859649123e+00 3.75039463851016e-02 3.24298087719194e-04
4.83736842105263e+00 3.72770837665215e-02 3.23405527483855e-04
4.86929824561404e+00 3.70515934476740e-02 3.22508397612482e-04
4.90122807017544e+00 3.68274671270125e-02 3.21606841414592e-04
4.93315789473684e+00 3.66046965541220e-02 3.20700999529490e-04
4.96508771929825e+00 3.63832735275902e-02 3.19791009999222e-04
4.99701754385965e+00 3.61631898965091e-02 3.18877008302300e-04
5.02894736842105e+00 3.59444375583925e-02 3.17959127423590e-04
5.06087719298246e+00 3.57270084606394e-02 3.17037497885771e-04
5.09280701754386e+00 3.55108945984963e-02 3.16112247816391e-04
5.12473684210526e+00 3.52960880164838e-02 3.15183502826822e-04
5.15666666666667e+00 3.50825808068145e-02 3.14251386678804e-04
5.18859649122807e+00 3.48703651091317e-02 3.13316020411430e-04
5.22052631578947e+00 3.46594331114428e-02 3.12377522989705e-04
5.25245614035088e+00 3.44497770482032e-02 3.11436011209141e-04
5.28438596491228e+00 3.42413892016399e-02 3.10491599720642e-04
5.31631578947368e+00 3.40342618998764e-02 3.09544401088522e-04
5.34824561403509e+00 3.38283875182235e-02 3.08594525813682e-04
5.38017543859649e+00 3.36237584773427e-02 3.07642082389433e-04
5.41210526315789e+00 3.34203672445059e-02 3.06687177323189e-04
5.44403508771930e+00 3.32182063317964e-02 3.05729915190099e-04
5.47596491228070e+00 3.30172682973382e-02 3.04770398517384e-04
5.50789473684210e+00 3.28175457438945e-02 3.03808728380765e-04
5.53982456140351e+00 3.26190313186212e-02 3.02845003608622e-04
5.57175438596491e+00 3.24217177138667e-02 3.01879321362977e-04
5.60368421052632e+00 3.22255976654767e-02 3.00911777047382e-04
5.63561403508772e+00 3.20306639539370e-02 2.99942464324009e-04
5.66754385964912e+00 3.18369094027130e-02 2.98971475160655e-04
5.69947368421053e+00 3.16443268793653e-02 2.97998899846809e-04
5.73140350877193e+00 3.14529092939221e-02 2.97024827038990e-04
5.76333333333333e+00 3.12626495999686e-02 2.96049343775620e-04
5.79526315789474e+00 3.10735407930517e-02 2.95072535520858e-04
5.82719298245614e+00 3.08855759117435e-02 2.94094486055213e-04
5.85912280701754e+00 3.06987480363953e-02 2.93115278011758e-04
5.89105263157895e+00 3.05130502889046e-02 2.92134992150415e-04
5.92298245614035e+00 3.03284758334033e-02 2.91153707880439e-04
5.95491228070175e+00 3.01450178747518e-02 2.90171503172835e-04
5.98684210526316e+00 2.99626696595300e-02 2.89188454571998e-04
6.01877192982456e+00 2.97814244745605e-02 2.88204637234527e-04
6.05070175438597e+00 2.96012756478764e-02 2.87220124940184e-04
6.08263157894737e+00 2.94222165472740e-02 2.86234990129254e-04
6.11456140350877e+00 2.92442405812575e-02 2.85249303912763e-04
6.14649122807018e+00 2.90673411976199e-02 2.84263136108739e-04
6.17842105263158e+00 2.88915118843659e-02 2.83276555139610e-04
6.21035087719298e+00 2.87167461686005e-02 2.82289628516073e-04
6.24228070175439e+00 2.85430376163083e-02 2.81302422174845e-04
6.27421052631579e+00 2.83703798329486e-02 2.80315000950120e-04
6.30614035087719e+00 2.81987664621124e-02 2.79327428491078e-04
6.33807017543860e+00 2.80281911863841e-02 2.78339767269787e-04
6.37000000000000e+00 2.78586477260247e-02 2.77352078613514e-04
6.40192982456140e+00 2.76901298398137e-02 2.76364422712062e-04
6.43385964912281e+00 2.75226313237573e-02 2.75376858649126e-04
6.46578947368421e+00 2.73561460119110e-02 2.74389444409057e-04
6.49771929824561e+00 2.71906677751125e-02 2.73402236907276e-04
6.52964912280702e+00 2.70261905217856e-02 2.72415291996488e-04
6.56157894736842e+00 2.68627081966969e-02 2.71428664496203e-04
6.59350877192982e+00 2.67002147817412e-02 2.70442408098190e-04
6.62543859649123e+00 2.65387042949652e-02 2.69456575796891e-04
6.65736842105263e+00 2.63781707903618e-02 2.68471219293920e-04
6.68929824561403e+00 2.62186083583732e-02 2.67486389417667e-04
6.72122807017544e+00 2.60600111247121e-02 2.66502136046847e-04
6.75315789473684e+00 2.59023732510964e-02 2.65518508115207e-04
6.78508771929825e+00 2.57456889340935e-02 2.64535553638044e-04
6.81701754385965e+00 2.55899524058376e-02 2.63553319716574e-04
6.84894736842105e+00 2.54351579328958e-02 2.62571852563647e-04
6.88087719298246e+00 2.52812998169698e-02 2.61591197507765e-04
6.91280701754386e+00 2.51283723937819e-02 2.60611399018077e-04
6.94473684210526e+00 2.49763700337618e-02 2.59632500616606e-04
6.97666666666667e+00 2.48252871411688e-02 2.58654545268713e-04
7.00859649122807e+00 2.46751181538993e-02 2.57677574838818e-04
7.04052631578947e+00 2.45258575439225e-02 2.56701630471246e-04
7.07245614035088e+00 2.43774998162236e-02 2.55726752518943e-04
7.10438596491228e+00 2.42300395094463e-02 2.54752980546319e-04
7.13631578947368e+00 2.40834711948554e-02 2.53780353351873e-04
7.16824561403509e+00 2.39377894769651e-02 2.52808908970822e-04
7.20017543859649e+00 2.37929889925204e-02 2.51838684697062e-04
7.23210526315790e+00 2.36490644111112e-02 2.50869717085533e-04
7.26403508771930e+00 2.35060104341729e-02 2.49902041973621e-04
7.29596491228070e+00 2.33638217955866e-02 2.48935694399809e-04
7.32789473684211e+00 2.32224932608894e-02 2.47970708958632e-04
7.35982456140351e+00 2.30820196270933e-02 2.47007119302854e-04
7.39175438596491e+00 2.29423957230638e-02 2.46044958489756e-04
7.42368421052632e+00 2.28036164085700e-02 2.45084258914834e-04
7.45561403508772e+00 2.26656765748476e-02 2.44125052313327e-04
7.48754385964912e+00 2.25285711436657e-02 2.43167369779677e-04
7.51947368421053e+00 2.23922950678778e-02 2.42211241768837e-04
7.55140350877193e+00 2.22568433305056e-02 2.41256698115244e-04
7.58333333333333e+00 2.21222109452772e-02 2.40303768033928e-04
7.61526315789474e+00 2.19883929557275e-02 2.39352480139008e-04
7.64719298245614e+00 2.18553844357254e-02 2.38402862368403e-04
7.67912280701754e+00 2.17231804887606e-02 2.37454942307036e-04
7.71105263157895e+00 2.15917762477733e-02 2.36508746731175e-04
7.74298245614035e+00 2.14611668754848e-02 2.35564301923776e-04
7.77491228070175e+00 2.13313475635407e-02 2.34621633612985e-04
7.80684210526316e+00 2.12023135330055e-02 2.33680766972681e-04
7.83877192982456e+00 2.10740600335220e-02 2.32741726639346e-04
7.87070175438596e+00 2.09465823437945e-02 2.31804536712441e-04
7.90263157894737e+00 2.08198757707632e-02 2.30869220770848e-04
7.93456140350877e+00 2.06939356500772e-02 2.29935801873086e-04
7.96649122807018e+00 2.05687573452828e-02 2.29004302573372e-04
7.99842105263158e+00 2.04443362482872e-02 2.28074744852046e-04
8.03035087719298e+00 2.03206677787133e-02 2.27147150410322e-04
8.06228070175439e+00 2.01977473837402e-02 2.26221540252833e-04
8.09421052631579e+00 2.00755705383913e-02 2.25297934975300e-04
8.12614035087719e+00 1.99541327447605e-02 2.24376354707537e-04
8.15807017543860e+00 1.98334295324479e-02 2.23456819113249e-04
8.19000000000000e+00 1.97134564577997e-02 2.22539347404737e-04
8.22192982456140e+00 1.95942091043347e-02 2.21623958342613e-04
8.25385964912281e+00 1.94756830819973e-02 2.20710670250143e-04
8.28578947368421e+00 1.93578740275745e-02 2.19799501012807e-04
8.31771929824561e+00 1.92407776039621e-02 2.18890468092347e-04
8.34964912280702e+00 1.91243895005730e-02 2.17983588526241e-04
8.38157894736842e+00 1.90087054326158e-02 2.17078878941400e-04
8.41350877192983e+00 1.88937211414944e-02 2.16176355490701e-04
8.44543859649123e+00 1.87794323942340e-02 2.15276034118041e-04
8.47736842105263e+00 1.86658349833325e-02 2.14377930181260e-04
8.50929824561404e+00 1.85529247270064e-02 2.13482058710829e-04
8.54122807017544e+00 1.84406974685032e-02 2.12588434357768e-04
8.57315789473684e+00 1.83291490764770e-02 2.11697071392863e-04
8.60508771929825e+00 1.82182754443126e-02 2.10807983719223e-04
8.63701754385965e+00 1.81080724904935e-02 2.09921184871429e-04
8.66894736842105e+00 1.79985361579372e-02 2.09036688027831e-04
8.70087719298246e+00 1.78896624143555e-02 2.08154506009575e-04
8.73280701754386e+00 1.77814472516011e-02 2.07274651292650e-04
8.76473684210526e+00 1.76738866860202e-02 2.06397135949293e-04
8.79666666666667e+00 1.75669767579314e-02 2.05521971890365e-04
8.82859649122807e+00 1.74607135314864e-02 2.04649170519320e-04
8.86052631578947e+00 1.73550930948851e-02 2.03778742968852e-04
8.89245614035088e+00 1.72501115597520e-02 2.02910700052689e-04
8.92438596491228e+00 1.71457650614683e-02 2.02045052264436e-04
8.95631578947368e+00 1.70420497585589e-02 2.01181809788680e-04
8.98824561403509e+00 1.69389618330172e-02 2.00320982499779e-04
9.02017543859649e+00 1.68364974897026e-02 1.99462579972673e-04
9.05210526315789e+00 1.67346529566587e-02 1.98606611481650e-04
9.08403508771930e+00 1.66334244845207e-02 1.97753086010966e-04
9.11596491228070e+00 1.65328083468267e-02 1.96902012200727e-04
9.14789473684210e+00 1.64328008395440e-02 1.96053398568738e-04
9.17982456140351e+00 1.63333982809388e-02 1.95207253192841e-04
9.21175438596491e+00 1.62345970117639e-02 1.94363583927551e-04
9.24368421052632e+00 1.61363933946933e-02 1.93522398359445e-04
9.27561403508772e+00 1.60387838146149e-02 1.92683703805815e-04
9.30754385964912e+00 1.59417646780750e-02 1.91847507324455e-04
9.33947368421053e+00 1.58453324135645e-02 1.91013815712201e-04
9.37140350877193e+00 1.57494834709725e-02 1.90182635514531e-04
9.40333333333333e+00 1.56542143218670e-02 1.89353973024117e-04
9.43526315789474e+00 1.55595214589574e-02 1.88527834290178e-04
9.46719298245614e+00 1.54654013963692e-02 1.87704225068544e-04
9.49912280701754e+00 1.53718506692132e-02 1.86883151024934e-04
9.53105263157895e+00 1.52788658334628e-02 1.86064617443121e-04
9.56298245614035e+00 1.51864434661191e-02 1.85248629423418e-04
9.59491228070175e+00 1.50945801646959e-02 1.84435191841458e-04
9.62684210526316e+00 1.50032725474803e-02 1.83624309346664e-04
9.65877192982456e+00 1.49125172530257e-02 1.82815986370897e-04
9.69070175438597e+00 1.48223109404069e-02 1.82010227126905e-04
9.72263157894737e+00 1.47326502887220e-02 1.81207035616820e-04
9.75456140350877e+00 1.46435319973418e-02 1.80406415630543e-04
9.78649122807018e+00 1.45549527854198e-02 1.79608370754066e-04
9.81842105263158e+00 1.44669093921366e-02 1.78812904323383e-04
9.85035087719298e+00 1.43793985763066e-02 1.78020019610896e-04
9.88228070175439e+00 1.42924171162631e-02 1.77229719557108e-04
9.91421052631579e+00 1.42059618100025e-02 1.76442006952687e-04
9.94614035087719e+00 1.41200294747169e-02 1.75656884400344e-04
9.97807017543860e+00 1.40346169470231e-02 1.74874354313216e-04
1.00100000000000e+01 1.39497210825029e-02 1.74094418880172e-04
1.00419298245614e+01 1.38653387560111e-02 1.73317080065606e-04
1.00738596491228e+01 1.37814668612194e-02 1.72542340246985e-04
