Energy (eV)          EEDF (eV^-(3/2))     First Anisotropy
3.98611111111111e-02 4.69436327756315e-02 2.93203702838759e-05
1.19583333333333e-01 4.64949950694132e-02 4.83474438950136e-05
1.99305555555556e-01 4.60506449698234e-02 6.36420455575442e-05
2.79027777777778e-01 4.56105414978797e-02 7.51512664820433e-05
3.58750000000000e-01 4.51746440711510e-02 8.46593279167670e-05
4.38472222222222e-01 4.47429124923512e-02 9.28435174169272e-05
5.18194444444444e-01 4.43153069485699e-02 1.00055662461617e-04
5.97916666666667e-01 4.38917880067204e-02 1.06509007294196e-04
6.77638888888889e-01 4.34723166122274e-02 1.12345494851454e-04
7.57361111111111e-01 4.30568540828493e-02 1.17665809490996e-04
8.37083333333333e-01 4.26453621060291e-02 1.22544749309716e-04
9.16805555555556e-01 4.22378027353955e-02 1.27039876112923e-04
9.96527777777778e-01 4.18341383868213e-02 1.31196737903792e-04
1.07625000000000e+00 4.14343318358342e-02 1.35052198890958e-04
1.15597222222222e+00 4.10383462148008e-02 1.38636657855268e-04
1.23569444444444e+00 4.06461450071438e-02 1.41975579575039e-04
1.31541666666667e+00 4.02576920423291e-02 1.45090582855025e-04
1.39513888888889e+00 3.98729515018036e-02 1.48000235722382e-04
1.47486111111111e+00 3.94918879060340e-02 1.50720648382293e-04
1.55458333333333e+00 3.91144661145358e-02 1.53265922489342e-04
1.63430555555556e+00 3.87406513227263e-02 1.55648499509912e-04
1.71402777777778e+00 3.83704090564854e-02 1.57879432803114e-04
1.79375000000000e+00 3.80037051756586e-02 1.59968604829977e-04
1.87347222222222e+00 3.76405058640222e-02 1.61924901885579e-04
1.95319444444444e+00 3.72807776285431e-02 1.63756355203967e-04
2.03291666666667e+00 3.69244872945311e-02 1.65470256814917e-04
2.11263888888889e+00 3.65716020079935e-02 1.67073256191143e-04
2.19236111111111e+00 3.62220892270401e-02 1.68571440979952e-04
2.27208333333333e+00 3.58759167207676e-02 1.69970403899733e-04
2.35180555555556e+00 3.55330525663268e-02 1.71275300320635e-04
2.43152777777778e+00 3.51934651445584e-02 1.72490896470742e-04
2.51125000000000e+00 3.48571231413561e-02 1.73621611571621e-04
2.59097222222222e+00 3.45239955404005e-02 1.74671554204200e-04
2.67069444444444e+00 3.41940516217973e-02 1.75644553111898e-04
2.75041666666667e+00 3.38672609580558e-02 1.76544184065309e-04
2.83013888888889e+00 3.35435934149251e-02 1.77373793942742e-04
2.90986111111111e+00 3.32230191448929e-02 1.78136521916333e-04
2.98958333333333e+00 3.29055085856904e-02 1.78835317341850e-04
3.06930555555556e+00 3.25910324575859e-02 1.79472956347584e-04
3.14902777777778e+00 3.22795617596860e-02 1.80052055868768e-04
3.22875000000000e+00 3.19710677702760e-02 1.80575086823548e-04
3.30847222222222e+00 3.16655220410981e-02 1.81044385923677e-04
3.38819444444444e+00 3.13628963957746e-02 1.81462165693645e-04
3.46791666666667e+00 3.10631629263467e-02 1.81830523520819e-04
3.54763888888889e+00 3.07662939933379e-02 1.82151450303653e-04
3.62736111111111e+00 3.04722622205189e-02 1.82426838296786e-04
3.70708333333333e+00 3.01810404932889e-02 1.82658487572157e-04
3.78680555555556e+00 2.98926019561871e-02 1.82848112514670e-04
3.86652777777778e+00 2.96069200096722e-02 1.82997347154802e-04
3.94625000000000e+00 2.93239683099148e-02 1.83107750595284e-04
4.02597222222222e+00 2.90437207640853e-02 1.83180811995301e-04
4.10569444444444e+00 2.87661515287225e-02 1.83217954661236e-04
4.18541666666667e+00 2.84912350066959e-02 1.83220539835154e-04
4.26513888888889e+00 2.82189458468422e-02 1.83189870589511e-04
4.34486111111111e+00 2.79492589395980e-02 1.83127195434065e-04
4.42458333333333e+00 2.76821494153670e-02 1.83033711100141e-04
4.50430555555556e+00 2.74175926422350e-02 1.82910565641261e-04
4.58402777777778e+00 2.71555642231243e-02 1.82758860811474e-04
4.66375000000000e+00 2.68960399952767e-02 1.82579654746578e-04
4.74347222222222e+00 2.66389960262662e-02 1.82373964469696e-04
4.82319444444444e+00 2.63844086123882e-02 1.82142767818421e-04
4.90291666666667e+00 2.61322542759613e-02 1.81887005267208e-04
4.98263888888889e+00 2.58825097647228e-02 1.81607581976428e-04
5.06236111111111e+00 2.56351520481004e-02 1.81305369719141e-04
5.14208333333333e+00 2.53901583156216e-02 1.80981208219141e-04
5.22180555555556e+00 2.51475059748153e-02 1.80635906852352e-04
5.30152777777778e+00 2.49071726486743e-02 1.80270245819726e-04
5.38125000000000e+00 2.46691361749634e-02 1.79884977655514e-04
5.46097222222222e+00 2.44333746027848e-02 1.79480828655411e-04
5.54069444444444e+00 2.41998661910245e-02 1.79058499874226e-04
5.62041666666667e+00 2.39685894059378e-02 1.78618668088289e-04
5.70013888888889e+00 2.37395229204099e-02 1.78161987002905e-04
5.77986111111111e+00 2.35126456107256e-02 1.77689088401199e-04
5.85958333333333e+00 2.32879365550463e-02 1.77200582830582e-04
5.93930555555556e+00 2.30653750314845e-02 1.76697060637615e-04
6.01902777777778e+00 2.28449405158259e-02 1.76179092582874e-04
6.09875000000000e+00 2.26266126807444e-02 1.75647230775466e-04
6.17847222222222e+00 2.24103713928056e-02 1.75102009567104e-04
6.25819444444444e+00 2.21961967109894e-02 1.74543946101856e-04
6.33791666666667e+00 2.19840688845182e-02 1.73973540857832e-04
6.41763888888889e+00 2.17739683520477e-02 1.73391278422166e-04
6.49736111111111e+00 2.15658757388378e-02 1.72797628235333e-04
6.57708333333333e+00 2.13597718553107e-02 1.72193044954506e-04
6.65680555555556e+00 2.11556376952836e-02 1.71577969134165e-04
6.73652777777778e+00 2.09534544339163e-02 1.70952827558311e-04
6.81625000000000e+00 2.07532034268814e-02 1.70318033863730e-04
6.89597222222222e+00 2.05548662077277e-02 1.69673989141285e-04
6.97569444444444e+00 2.03584244864867e-02 1.69021082250863e-04
7.05541666666667e+00 2.01638601477122e-02 1.68359690139487e-04
7.13513888888889e+00 1.99711552496427e-02 1.67690178372438e-04
7.21486111111111e+00 1.97802920217035e-02 1.67012901647195e-04
7.29458333333333e+00 1.95912528631515e-02 1.66328203985185e-04
7.37430555555556e+00 1.94040203414539e-02 1.65636419207187e-04
7.45402777777778e+00 1.92185771904324e-02 1.64937871112685e-04
7.53375000000000e+00 1.90349063094215e-02 1.64232873919895e-04
7.61347222222222e+00 1.88529907609318e-02 1.63521732693155e-04
7.69319444444444e+00 1.86728137693448e-02 1.62804743526814e-04
7.77291666666667e+00 1.84943587191375e-02 1.62082193736843e-04
7.85263888888889e+00 1.83176091540433e-02 1.61354362243800e-04
7.93236111111111e+00 1.81425487748330e-02 1.60621519945712e-04
8.01208333333333e+00 1.79691614380479e-02 1.59883929814087e-04
8.09180555555556e+00 1.77974311545119e-02 1.59141847241842e-04
8.17152777777778e+00 1.76273420876499e-02 1.58395520136086e-04
8.25125000000000e+00 1.74588785526548e-02 1.57645189242822e-04
8.33097222222222e+00 1.72920250144060e-02 1.56891088464071e-04
8.41069444444445e+00 1.71267660862517e-02 1.56133444965096e-04
8.49041666666667e+00 1.69630865283975e-02 1.55372479290944e-04
8.57013888888889e+00 1.68009712470833e-02 1.54608405653744e-04
8.64986111111111e+00 1.66404052926031e-02 1.53841432213909e-04
8.72958333333333e+00 1.64813738581237e-02 1.53071761120903e-04
8.80930555555556e+00 1.63238622783206e-02 1.52299588777402e-04
8.88902777777778e+00 1.61678560278508e-02 1.51525105881386e-04
8.96875000000000e+00 1.60133407205418e-02 1.50748497674194e-04
9.04847222222222e+00 1.58603021075304e-02 1.49969944183924e-04
9.12819444444444e+00 1.57087260761291e-02 1.49189620286168e-04
9.20791666666667e+00 1.55585986483626e-02 1.48407695774360e-04
9.28763888888889e+00 1.54099059801705e-02 1.47624335582119e-04
9.36736111111111e+00 1.52626343596333e-02 1.46839700001827e-04
9.44708333333333e+00 1.51167702058754e-02 1.46053944692949e-04
9.52680555555555e+00 1.49723000678133e-02 1.45267220888445e-04
9.60652777777778e+00 1.48292106227667e-02 1.44479675406634e-04
9.68625000000000e+00 1.46874886756787e-02 1.43691450845928e-04
9.76597222222222e+00 1.45471211574453e-02 1.42902685776696e-04
9.84569444444444e+00 1.44080951238637e-02 1.42113514773090e-04
9.92541666666667e+00 1.42703977542997e-02 1.41324068454171e-04
1.00051388888889e+01 1.41340163509246e-02 1.40534473660286e-04
1.00848611111111e+01 1.39989383371211e-02 1.39744853560048e-04
1.01645833333333e+01 1.38651512567264e-02 1.38955327776020e-04
1.02443055555556e+01 1.37326427723510e-02 1.38166012843160e-04
1.03240277777778e+01 1.36014006632501e-02 1.37377021171904e-04
1.04037500000000e+01 1.34714128280243e-02 1.36588461874449e-04
1.04834722222222e+01 1.33426672796362e-02 1.35800441525339e-04
1.05631944444444e+01 1.32151521456082e-02 1.35013063537243e-04
1.06429166666667e+01 1.30888556657482e-02 1.34226427646239e-04
1.07226388888889e+01 1.29637661946409e-02 1.33440630623001e-04
1.08023611111111e+01 1.28398721969614e-02 1.32655766989848e-04
1.08820833333333e+01 1.27171622476245e-02 1.31871928127673e-04
1.09618055555556e+01 1.25956250307374e-02 1.31089202964025e-04
1.10415277777778e+01 1.24752493374691e-02 1.30307677166875e-04
1.11212500000000e+01 1.23560240682990e-02 1.29527433802625e-04
1.12009722222222e+01 1.22379382286781e-02 1.28748554000129e-04
1.12806944444444e+01 1.21209809291322e-02 1.27971116387509e-04
1.13604166666667e+01 1.20051413832439e-02 1.27195196625142e-04
1.14401388888889e+01 1.18904089097298e-02 1.26420868027323e-04
1.15198611111111e+01 1.17767729283527e-02 1.25648202189755e-04
1.15995833333333e+01 1.16642229599883e-02 1.24877268188451e-04
1.16793055555556e+01 1.15527486256633e-02 1.24108133182420e-04
1.17590277777778e+01 1.14423396446627e-02 1.23340861689029e-04
1.18387500000000e+01 1.13329858364073e-02 1.22575516160907e-04
1.19184722222222e+01 1.12246771166617e-02 1.21812157568677e-04
1.19981944444444e+01 1.11174034975653e-02 1.21050844893656e-04
1.20779166666667e+01 1.10111550858367e-02 1.20291634705236e-04
1.21576388888889e+01 1.09059220845109e-02 1.19534581706966e-04
1.22373611111111e+01 1.08016947893603e-02 1.18779739288228e-04
1.23170833333333e+01 1.06984635888986e-02 1.18027158805718e-04
1.23968055555556e+01 1.05962189634981e-02 1.17276890113698e-04
1.24765277777778e+01 1.04949514837030e-02 1.16528980912963e-04
1.25562500000000e+01 1.03946518118023e-02 1.15783477258791e-04
1.26359722222222e+01 1.02953106985028e-02 1.15040424074435e-04
1.27156944444444e+01 1.01969189829066e-02 1.14299864694545e-04
1.27954166666667e+01 1.00994675909093e-02 1.13561840483316e-04
1.28751388888889e+01 1.00029475366561e-02 1.12826391316053e-04
1.29548611111111e+01 9.90734991939823e-03 1.12093556066034e-04
1.30345833333333e+01 9.81266592344963e-03 1.11363371959902e-04
1.31143055555556e+01 9.71888681737692e-03 1.10635875045898e-04
1.31940277777778e+01 9.62600395249316e-03 1.09911099608905e-04
1.32737500000000e+01 9.53400876417782e-03 1.09189078619265e-04
1.33534722222222e+01 9.44289276894945e-03 1.08469844186814e-04
1.34331944444444e+01 9.35264756440290e-03 1.07753427150038e-04
1.35129166666667e+01 9.26326482777729e-03 1.07039856731363e-04
1.35926388888889e+01 9.17473631717920e-03 1.06329160963191e-04
1.36723611111111e+01 9.08705386881311e-03 1.05621367118885e-04
1.37520833333333e+01 9.00020939690337e-03 1.04916501134244e-04
1.38318055555556e+01 8.91419489295102e-03 1.04214588022188e-04
1.39115277777778e+01 8.82900242438553e-03 1.03515651347062e-04
1.39912500000000e+01 8.74462413567493e-03 1.02819713622344e-04
1.40709722222222e+01 8.66105224574261e-03 1.02126796713200e-04
1.41506944444444e+01 8.57827904787544e-03 1.01436921466804e-04
1.42304166666667e+01 8.49629690844066e-03 1.00750107401304e-04
1.43101388888889e+01 8.41509826791535e-03 1.00066373083712e-04
1.43898611111111e+01 8.33467563843983e-03 9.93857365124468e-05
1.44695833333333e+01 8.25502160371458e-03 9.87082145978155e-05
1.45493055555556e+01 8.17612881831837e-03 9.80338235301975e-05
1.46290277777778e+01 8.09799000649921e-03 9.73625783074178e-05
1.47087500000000e+01 8.02059796310934e-03 9.66944930880211e-05
1.47884722222222e+01 7.94394555132012e-03 9.60295815490243e-05
1.48681944444444e+01 7.86802570250929e-03 9.53678565532180e-05
1.49479166666667e+01 7.79283141510942e-03 9.47093298685245e-05
1.50276388888889e+01 7.71835575547540e-03 9.40540125039840e-05
1.51073611111111e+01 7.64459185571804e-03 9.34019150500114e-05
1.51870833333333e+01 7.57153291358344e-03 9.27530472115926e-05
1.52668055555556e+01 7.49917219182740e-03 9.21074181359020e-05
1.53465277777778e+01 7.42750301712934e-03 9.14650359871561e-05
1.54262500000000e+01 7.35651878088078e-03 9.08259082610769e-05
1.55059722222222e+01 7.28621293715937e-03 9.01900421034932e-05
1.55856944444444e+01 7.21657900260186e-03 8.95574440107854e-05
1.56654166666667e+01 7.14761055536888e-03 8.89281195766704e-05
1.57451388888889e+01 7.07930123587686e-03 8.83020737915012e-05
1.58248611111111e+01 7.01164474487554e-03 8.76793113454925e-05
1.59045833333333e+01 6.94463484331559e-03 8.70598362090309e-05
1.59843055555556e+01 6.87826535177473e-03 8.64436519247103e-05
1.60640277777778e+01 6.81253014948065e-03 8.58307612247125e-05
1.61437500000000e+01 6.74742317497652e-03 8.52211663112213e-05
1.62234722222222e+01 6.68293842432110e-03 8.46148691406277e-05
1.63031944444444e+01 6.61906995095257e-03 8.40118711537404e-05
1.63829166666667e+01 6.55581186475658e-03 8.34121730472615e-05
1.64626388888889e+01 6.49315833268422e-03 8.28157750408494e-05
1.65423611111111e+01 6.43110357704264e-03 8.22226771478014e-05
1.66220833333333e+01 6.36964187535557e-03 8.16328787974619e-05
1.67018055555556e+01 6.30876755983679e-03 8.10463790959791e-05
1.67815277777778e+01 6.24847501650997e-03 8.04631764817683e-05
1.68612500000000e+01 6.18875868577071e-03 7.98832689759475e-05
1.69409722222222e+01 6.12961306078457e-03 7.93066544362518e-05
1.70206944444444e+01 6.07103268734572e-03 7.87333303139259e-05
1.71004166666667e+01 6.01301216303693e-03 7.81632934474454e-05
1.71801388888889e+01 5.95554613775144e-03 7.75965403011716e-05
1.72598611111111e+01 5.89862931217059e-03 7.70330672073161e-05
1.73395833333333e+01 5.84225643762053e-03 7.64728700260244e-05
1.74193055555556e+01 5.78642231558928e-03 7.59159443785262e-05
1.74990277777778e+01 5.73112179693292e-03 7.53622853367182e-05
1.75787500000000e+01 5.67634978235029e-03 7.48118876471404e-05
1.76584722222222e+01 5.62210122095497e-03 7.42647459581410e-05
1.77381944444444e+01 5.56837111013159e-03 7.37208546007050e-05
1.78179166666667e+01 5.51515449477795e-03 7.31802074021788e-05
1.78976388888889e+01 5.46244646774583e-03 7.26427978998267e-05
1.79773611111111e+01 5.41024216848289e-03 7.21086195574133e-05
1.80570833333333e+01 5.35853678288840e-03 7.15776654590050e-05
1.81368055555556e+01 5.30732554287025e-03 7.10499285177032e-05
1.82165277777778e+01 5.25660372562818e-03 7.05254011958173e-05
1.82962500000000e+01 5.20636665405484e-03 7.00040757054199e-05
1.83759722222222e+01 5.15660969546076e-03 6.94859442118186e-05
1.84556944444444e+01 5.10732826143085e-03 6.89709986358659e-05
1.85354166666667e+01 5.05851780713974e-03 6.84592304857116e-05
1.86151388888889e+01 5.01017383172422e-03 6.79506310481049e-05
1.86948611111111e+01 4.96229187706982e-03 6.74451915824656e-05
1.87745833333333e+01 4.91486752766771e-03 6.69429030449318e-05
1.88543055555556e+01 4.86789641020822e-03 6.64437562754245e-05
1.89340277777778e+01 4.82137419293319e-03 6.59477417452494e-05
1.90137500000000e+01 4.77529658597458e-03 6.54548497368946e-05
1.90934722222222e+01 4.72965934021451e-03 6.49650705264768e-05
1.91731944444444e+01 4.68445824714371e-03 6.44783942053373e-05
1.92529166666667e+01 4.63968913824248e-03 6.39948105280121e-05
1.93326388888889e+01 4.59534788529517e-03 6.35143090837896e-05
1.94123611111111e+01 4.55143039930464e-03 6.30368794707989e-05
1.94920833333333e+01 4.50793263035180e-03 6.25625110471479e-05
1.95718055555556e+01 4.46485056722277e-03 6.20911930987475e-05
1.96515277777778e+01 4.42218023682299e-03 6.16229146115577e-05
1.97312500000000e+01 4.37991770446308e-03 6.11576644329189e-05
1.98109722222222e+01 4.33805907283825e-03 6.06954314352989e-05
1.98906944444444e+01 4.29660048189007e-03 6.02362043552216e-05
1.99704166666667e+01 4.25553810824631e-03 5.97799716558438e-05
2.00501388888889e+01 4.21486816548623e-03 5.93267216809508e-05
2.01298611111111e+01 4.17458690316831e-03 5.88764428112594e-05
2.02095833333333e+01 4.13469060669356e-03 5.84291232398755e-05
2.02893055555556e+01 4.09517559696352e-03 5.79847511229947e-05
2.03690277777778e+01 4.05603822984984e-03 5.75433143742719e-05
2.04487500000000e+01 4.01727489643542e-03 5.71048008097167e-05
2.05284722222222e+01 3.97888202209956e-03 5.66691982947915e-05
2.06081944444444e+01 3.94085606638410e-03 5.62364945989274e-05
2.06879166666667e+01 3.90319352248604e-03 5.58066772712443e-05
2.07676388888889e+01 3.86589091748120e-03 5.53797337789060e-05
2.08473611111111e+01 3.82894481145239e-03 5.49556516475848e-05
2.09270833333333e+01 3.79235179735730e-03 5.45344182587393e-05
2.10068055555556e+01 3.75610850071478e-03 5.41160209850578e-05
2.10865277777778e+01 3.72021157912439e-03 5.37004470047209e-05
2.11662500000000e+01 3.68465772246942e-03 5.32876834316362e-05
2.12459722222222e+01 3.64944365209612e-03 5.28777174476905e-05
2.13256944444444e+01 3.61456612068468e-03 5.24705361712715e-05
2.14054166666667e+01 3.58002191178952e-03 5.20661265448522e-05
2.14851388888889e+01 3.54580784002751e-03 5.16644754593876e-05
2.15648611111111e+01 3.51192075029534e-03 5.12655698806220e-05
2.16445833333333e+01 3.47835751764269e-03 5.08693966660032e-05
2.17243055555556e+01 3.44511504698445e-03 5.04759426864960e-05
2.18040277777778e+01 3.41219027266510e-03 5.00851946587388e-05
2.18837500000000e+01 3.37958015862952e-03 4.96971392621879e-05
2.19634722222222e+01 3.34728169768578e-03 4.93117632580978e-05
2.20431944444444e+01 3.31529191138156e-03 4.89290533706739e-05
2.21229166666667e+01 3.28360784958723e-03 4.85489961853291e-05
2.22026388888889e+01 3.25222659065404e-03 4.81715782606125e-05
2.22823611111111e+01 3.22114524071095e-03 4.77967862418858e-05
2.23620833333333e+01 3.19036093354332e-03 4.74246066958786e-05
2.24418055555556e+01 3.15987083032895e-03 4.70550262203234e-05
2.25215277777778e+01 3.12967211924298e-03 4.66880312922089e-05
2.26012500000000e+01 3.09976201560121e-03 4.63236083732369e-05
2.26809722222222e+01 3.07013776119738e-03 4.59617440169309e-05
2.27606944444444e+01 3.04079662418529e-03 4.56024247611507e-05
2.28404166666667e+01 3.01173589870050e-03 4.52456370359879e-05
2.29201388888889e+01 2.98295290499302e-03 4.48913672645395e-05
2.29998611111111e+01 2.95444498879484e-03 4.45396019652802e-05
2.30795833333333e+01 2.92620952120455e-03 4.41903276024911e-05
2.31593055555556e+01 2.89824389844514e-03 4.38435306850051e-05
2.32390277777778e+01 2.87054554150544e-03 4.34991976289550e-05
2.33187500000000e+01 2.84311189626010e-03 4.31573148527569e-05
2.33984722222222e+01 2.81594043287333e-03 4.28178688736112e-05
2.34781944444444e+01 2.78902864568686e-03 4.24808462102355e-05
2.35579166666667e+01 2.76237405287652e-03 4.21462332994651e-05
2.36376388888889e+01 2.73597419656321e-03 4.18140165870472e-05
2.37173611111111e+01 2.70982664224365e-03 4.14841826198751e-05
2.37970833333333e+01 2.68392897868085e-03 4.11567179107209e-05
2.38768055555556e+01 2.65827881768205e-03 4.08316090272150e-05
2.39565277777778e+01 2.63287379377300e-03 4.05088424676645e-05
2.40362500000000e+01 2.60771156429824e-03 4.01884047466528e-05
2.41159722222222e+01 2.58278980888411e-03 3.98702824820236e-05
2.41956944444444e+01 2.55810622933265e-03 3.95544623068454e-05
2.42754166666667e+01 2.53365854930968e-03 3.92409307938578e-05
2.43551388888889e+01 2.50944451443729e-03 3.89296745373128e-05
2.44348611111111e+01 2.48546189178113e-03 3.86206802361369e-05
2.45145833333333e+01 2.46170846974674e-03 3.83139345715426e-05
2.45943055555556e+01 2.43818205787590e-03 3.80094242872537e-05
2.46740277777778e+01 2.41488048655071e-03 3.77071360771052e-05
2.47537500000000e+01 2.39180160707703e-03 3.74070566622345e-05
2.48334722222222e+01 2.36894329120055e-03 3.71091728695260e-05
2.49131944444444e+01 2.34630343100659e-03 3.68134715518943e-05
2.49929166666667e+01 2.32387993863661e-03 3.65199395198222e-05
2.50726388888889e+01 2.30167074636512e-03 3.62285636151728e-05
2.51523611111111e+01 2.27967380613742e-03 3.59393307862090e-05
