Energy (eV)          EEDF (eV^-(3/2))     First Anisotropy
8.04347826086956e-02 3.19365133901467e-02 2.48855382453506e-05
2.41304347826087e-01 3.14605174183314e-02 4.09244419483362e-05
4.02173913043478e-01 3.09916159018622e-02 5.35799404678241e-05
5.63043478260870e-01 3.05297031008350e-02 6.29279014849376e-05
7.23913043478261e-01 3.00746748535689e-02 7.05067360658175e-05
8.84782608695652e-01 2.96264285494419e-02 7.69052925331634e-05
1.04565217391304e+00 2.91848631072892e-02 8.24318722028669e-05
1.20652173913043e+00 2.87498789508822e-02 8.72747628511567e-05
1.36739130434783e+00 2.83213779934488e-02 9.15602248978205e-05
1.52826086956522e+00 2.78992636030127e-02 9.53784641732773e-05
1.68913043478261e+00 2.74834405943053e-02 9.87969629593381e-05
1.85000000000000e+00 2.70738151951437e-02 1.01868004077360e-04
2.01086956521739e+00 2.66702950359144e-02 1.04633227279381e-04
2.17173913043478e+00 2.62727891193182e-02 1.07126543543652e-04
2.33260869565217e+00 2.58812078082877e-02 1.09376081977008e-04
2.49347826086957e+00 2.54954627981524e-02 1.11405538059082e-04
2.65434782608696e+00 2.51154671036561e-02 1.13235135438321e-04
2.81521739130435e+00 2.47411350329999e-02 1.14882329896997e-04
2.97608695652174e+00 2.43723821743496e-02 1.16362335807129e-04
3.13695652173913e+00 2.40091253714137e-02 1.17688527572213e-04
3.29782608695652e+00 2.36512827096866e-02 1.18872750744176e-04
3.45869565217391e+00 2.32987734933281e-02 1.19925566888804e-04
3.61956521739130e+00 2.29515182313051e-02 1.20856448734202e-04
3.78043478260870e+00 2.26094386154045e-02 1.21673937766421e-04
3.94130434782609e+00 2.22724575055218e-02 1.22385772314060e-04
4.10217391304348e+00 2.19404989121479e-02 1.22998993802741e-04
4.26304347826087e+00 2.16134879766251e-02 1.23520034322908e-04
4.42391304347826e+00 2.12913509576542e-02 1.23954790298849e-04
4.58478260869565e+00 2.09740152114680e-02 1.24308684652959e-04
4.74565217391304e+00 2.06614091784732e-02 1.24586719581128e-04
4.90652173913043e+00 2.03534623642503e-02 1.24793521748286e-04
5.06739130434783e+00 2.00501053263719e-02 1.24933381126171e-04
5.22826086956522e+00 1.97512696561648e-02 1.25010284646761e-04
5.38913043478261e+00 1.94568879657355e-02 1.25027945425386e-04
5.55000000000000e+00 1.91668938704396e-02 1.24989828345502e-04
5.71086956521739e+00 1.88812219761368e-02 1.24899172477984e-04
5.87173913043478e+00 1.85998078623214e-02 1.24759010889221e-04
6.03260869565217e+00 1.83225880696223e-02 1.24572188136856e-04
6.19347826086956e+00 1.80495000835556e-02 1.24341375854324e-04
6.35434782608696e+00 1.77804823222803e-02 1.24069086612591e-04
6.51521739130435e+00 1.75154741209369e-02 1.23757686358577e-04
6.67608695652174e+00 1.72544157196684e-02 1.23409405547081e-04
6.83695652173913e+00 1.69972482485122e-02 1.23026349196286e-04
6.99782608695652e+00 1.67439137156912e-02 1.22610505936477e-04
7.15869565217391e+00 1.64943549930321e-02 1.22163756233426e-04
7.31956521739130e+00 1.62485158045284e-02 1.21687879824574e-04
7.48043478260869e+00 1.60063407122599e-02 1.21184562553442e-04
7.64130434782609e+00 1.57677751049163e-02 1.20655402385303e-04
7.80217391304348e+00 1.55327651854486e-02 1.20101915307839e-04
7.96304347826087e+00 1.53012579580003e-02 1.19525540355482e-04
8.12391304347826e+00 1.50732012171884e-02 1.18927644396396e-04
8.28478260869565e+00 1.48485435351442e-02 1.18309526521632e-04
8.44565217391304e+00 1.46272342510602e-02 1.17672422066135e-04
8.60652173913043e+00 1.44092234586623e-02 1.17017506344767e-04
8.76739130434783e+00 1.41944619960207e-02 1.16345898084956e-04
8.92826086956522e+00 1.39829014334359e-02 1.15658662628773e-04
9.08913043478261e+00 1.37744940635097e-02 1.14956814882656e-04
9.25000000000000e+00 1.35691928894293e-02 1.14241322079288e-04
9.41086956521739e+00 1.33669516152944e-02 1.13513106327744e-04
9.57173913043478e+00 1.31677246347832e-02 1.12773047009581e-04
9.73260869565217e+00 1.29714670217326e-02 1.12021982995865e-04
9.89347826086956e+00 1.27781345191709e-02 1.11260714737154e-04
1.00543478260870e+01 1.25876835301470e-02 1.10490006174650e-04
1.02152173913043e+01 1.24000711072972e-02 1.09710586755593e-04
1.03760869565217e+01 1.22152549426521e-02 1.08923152589258e-04
1.05369565217391e+01 1.20331933613008e-02 1.08128368850841e-04
1.06978260869565e+01 1.18538453059801e-02 1.07326870997782e-04
1.08586956521739e+01 1.16771703331171e-02 1.06519265306647e-04
1.10195652173913e+01 1.15031286035173e-02 1.05706131723804e-04
1.11804347826087e+01 1.13316808685705e-02 1.04888024380818e-04
1.13413043478261e+01 1.11627884662489e-02 1.04065472060652e-04
1.15021739130435e+01 1.09964133122194e-02 1.03238980737765e-04
1.16630434782609e+01 1.08325178868436e-02 1.02409033941633e-04
1.18239130434783e+01 1.06710652311641e-02 1.01576093083394e-04
1.19847826086957e+01 1.05120189384136e-02 1.00740599734221e-04
1.21456521739130e+01 1.03553431417563e-02 9.99029758704960e-05
1.23065217391304e+01 1.02010025102848e-02 9.90636240932940e-05
1.24673913043478e+01 1.00489622409072e-02 9.82229296834498e-05
1.26282608695652e+01 9.89918804677768e-03 9.73812607549514e-05
1.27891304347826e+01 9.75164615332290e-03 9.65389683911852e-05
1.29500000000000e+01 9.60630329048975e-03 9.56963885077687e-05
1.31108695652174e+01 9.46312668181832e-03 9.48538417603811e-05
1.32717391304348e+01 9.32208404157135e-03 9.40116343156111e-05
1.34326086956522e+01 9.18314356307492e-03 9.31700586732925e-05
1.35934782608696e+01 9.04627391479252e-03 9.23293935131948e-05
1.37543478260870e+01 8.91144423314533e-03 9.14899052815989e-05
1.39152173913043e+01 8.77862411258549e-03 9.06518481939488e-05
1.40760869565217e+01 8.64778360173581e-03 8.98154642313552e-05
1.42369565217391e+01 8.51889319653331e-03 8.89809845937596e-05
1.43978260869565e+01 8.39192383083248e-03 8.81486296666185e-05
1.45586956521739e+01 8.26684687261939e-03 8.73186089829523e-05
1.47195652173913e+01 8.14363411746321e-03 8.64911225583486e-05
1.48804347826087e+01 8.02225777961653e-03 8.56663608298528e-05
1.50413043478261e+01 7.90269048831060e-03 8.48445045913190e-05
1.52021739130435e+01 7.78490528150058e-03 8.40257262232308e-05
1.53630434782609e+01 7.66887559743191e-03 8.32101896098910e-05
1.55239130434783e+01 7.55457527102411e-03 8.23980500547100e-05
1.56847826086957e+01 7.44197852789299e-03 8.15894554158286e-05
1.58456521739130e+01 7.33105997635721e-03 8.07845460063280e-05
1.60065217391304e+01 7.22179460391371e-03 7.99834544946824e-05
1.61673913043478e+01 7.11415777152458e-03 7.91863069554946e-05
1.63282608695652e+01 7.00812520603751e-03 7.83932227569848e-05
1.64891304347826e+01 6.90367299675557e-03 7.76043144504190e-05
1.66500000000000e+01 6.80077758997694e-03 7.68196887441257e-05
1.68108695652174e+01 6.69941578180498e-03 7.60394462726990e-05
1.69717391304348e+01 6.59956471539957e-03 7.52636819159381e-05
1.71326086956522e+01 6.50120187340779e-03 7.44924851568596e-05
1.72934782608696e+01 6.40430507468033e-03 7.37259398404239e-05
1.74543478260870e+01 6.30885246921051e-03 7.29641250303085e-05
1.76152173913043e+01 6.21482253155500e-03 7.22071148803616e-05
1.77760869565217e+01 6.12219405764822e-03 7.14549785093128e-05
1.79369565217391e+01 6.03094615996713e-03 7.07077807983462e-05
1.80978260869565e+01 5.94105826128270e-03 6.99655822596694e-05
1.82586956521739e+01 5.85251009157241e-03 6.92284389080959e-05
1.84195652173913e+01 5.76528168340053e-03 6.84964030044501e-05
1.85804347826087e+01 5.67935336598201e-03 6.77695229227110e-05
1.87413043478261e+01 5.59470576219264e-03 6.70478430199385e-05
1.89021739130435e+01 5.51131978415512e-03 6.63314043300265e-05
1.90630434782609e+01 5.42917662759792e-03 6.56202444304101e-05
1.92239130434783e+01 5.34825776896333e-03 6.49143973117377e-05
1.93847826086957e+01 5.26854496118853e-03 6.42138940259651e-05
1.95456521739130e+01 5.19002022834439e-03 6.35187625533490e-05
1.97065217391304e+01 5.11266586283991e-03 6.28290276729628e-05
1.98673913043478e+01 5.03646442138964e-03 6.21447115686720e-05
2.00282608695652e+01 4.96139871991729e-03 6.14658336972113e-05
2.01891304347826e+01 4.88745183085505e-03 6.07924106602323e-05
2.03500000000000e+01 4.81460707928914e-03 6.01244567713894e-05
2.05108695652174e+01 4.74284803811400e-03 5.94619838562860e-05
2.06717391304348e+01 4.67215852576485e-03 5.88050014070844e-05
2.08326086956522e+01 4.60252260116829e-03 5.81535167633012e-05
2.09934782608696e+01 4.53392456118922e-03 5.75075349113336e-05
2.11543478260870e+01 4.46634893705695e-03 5.68670589905718e-05
2.13152173913043e+01 4.39978048991314e-03 5.62320901687450e-05
2.14760869565217e+01 4.33420420834886e-03 5.56026275211028e-05
2.16369565217391e+01 4.26960530498941e-03 5.49786685050361e-05
2.17978260869565e+01 4.20596921225817e-03 5.43602088384232e-05
2.19586956521739e+01 4.14328158000169e-03 5.37472423814556e-05
2.21195652173913e+01 4.08152827222621e-03 5.31397615820065e-05
2.22804347826087e+01 4.02069536306615e-03 5.25377573571938e-05
2.24413043478261e+01 3.96076913449514e-03 5.19412189781016e-05
2.26021739130435e+01 3.90173607320737e-03 5.13501344879706e-05
2.27630434782609e+01 3.84358286678016e-03 5.07644905870307e-05
2.29239130434783e+01 3.78629640146917e-03 5.01842725204213e-05
2.30847826086957e+01 3.72986375922736e-03 4.96094644710858e-05
2.32456521739130e+01 3.67427221405217e-03 4.90400494478554e-05
2.34065217391304e+01 3.61950922986253e-03 4.84760091767824e-05
2.35673913043478e+01 3.56556245764934e-03 4.79173244704368e-05
2.37282608695652e+01 3.51241973199784e-03 4.73639751193335e-05
2.38891304347826e+01 3.46006906904402e-03 4.68159397867344e-05
2.40500000000000e+01 3.40849866375084e-03 4.62731963559219e-05
2.42108695652174e+01 3.35769688659697e-03 4.57357217794993e-05
2.43717391304348e+01 3.30765228181423e-03 4.52034921605039e-05
2.45326086956522e+01 3.25835356396480e-03 4.46764828507864e-05
2.46934782608696e+01 3.20978961602132e-03 4.41546683019381e-05
2.48543478260870e+01 3.16194948684093e-03 4.36380223776543e-05
2.50152173913043e+01 3.11482238811556e-03 4.31265182551729e-05
2.51760869565217e+01 3.06839769252510e-03 4.26201283297754e-05
2.53369565217391e+01 3.02266493132349e-03 4.21188245088711e-05
2.54978260869565e+01 2.97761379143337e-03 4.16225781169519e-05
2.56586956521739e+01 2.93323411367026e-03 4.11313598033436e-05
2.58195652173913e+01 2.88951589043543e-03 4.06451398191861e-05
2.59804347826087e+01 2.84644926294799e-03 4.01638879258586e-05
2.61413043478261e+01 2.80402451953758e-03 3.96875733059533e-05
2.63021739130435e+01 2.76223209343944e-03 3.92161648242519e-05
2.64630434782609e+01 2.72106256015697e-03 3.87496309395008e-05
2.66239130434783e+01 2.68050663582099e-03 3.82879396186400e-05
2.67847826086957e+01 2.64055517508202e-03 3.78310585827816e-05
2.69456521739130e+01 2.60119916859722e-03 3.73789552221966e-05
2.71065217391304e+01 2.56242974145385e-03 3.69315965137967e-05
2.72673913043478e+01 2.52423815115451e-03 3.64889492530382e-05
2.74282608695652e+01 2.48661578522229e-03 3.60509799720551e-05
2.75891304347826e+01 2.44955415968627e-03 3.56176548603159e-05
2.77500000000000e+01 2.41304491715559e-03 3.51889399833197e-05
2.79108695652174e+01 2.37707982453708e-03 3.47648011737857e-05
2.80717391304348e+01 2.34165077170589e-03 3.43452040759607e-05
2.82326086956522e+01 2.30674976916131e-03 3.39301142013387e-05
2.83934782608696e+01 2.27236894660903e-03 3.35194968216386e-05
2.85543478260870e+01 2.23850055117496e-03 3.31133171664601e-05
2.87152173913043e+01 2.20513694529962e-03 3.27115403499763e-05
2.88760869565217e+01 2.17227060537676e-03 3.23141312998712e-05
2.90369565217391e+01 2.13989412004623e-03 3.19210549438774e-05
2.91978260869565e+01 2.10800018818655e-03 3.15322761394051e-05
2.93586956521739e+01 2.07658161760785e-03 3.11477596052252e-05
2.95195652173913e+01 2.04563132342030e-03 3.07674700975603e-05
2.96804347826087e+01 2.01514232612010e-03 3.03913723425522e-05
2.98413043478261e+01 1.98510775033483e-03 3.00194309706118e-05
3.00021739130435e+01 1.95552082326399e-03 2.96516106826947e-05
3.01630434782609e+01 1.92637487285399e-03 2.92878761854786e-05
3.03239130434783e+01 1.89766332659405e-03 2.89281921283456e-05
3.04847826086956e+01 1.86937971002548e-03 2.85725232604233e-05
3.06456521739130e+01 1.84151764500154e-03 2.82208343683398e-05
3.08065217391304e+01 1.81407084853197e-03 2.78730902157861e-05
3.09673913043478e+01 1.78703313135799e-03 2.75292556918551e-05
3.11282608695652e+01 1.76039839629292e-03 2.71892957512916e-05
3.12891304347826e+01 1.73416063711358e-03 2.68531753565446e-05
3.14500000000000e+01 1.70831393719810e-03 2.65208596179141e-05
3.16108695652174e+01 1.68285246794341e-03 2.61923137162378e-05
3.17717391304348e+01 1.65777048778014e-03 2.58675029275499e-05
3.19326086956522e+01 1.63306234055577e-03 2.55463926553362e-05
3.20934782608696e+01 1.60872245449916e-03 2.52289483547171e-05
3.22543478260870e+01 1.58474534095721e-03 2.49151356595171e-05
3.24152173913043e+01 1.56112559293323e-03 2.46049203290660e-05
3.25760869565217e+01 1.53785788409379e-03 2.42982681965879e-05
3.27369565217391e+01 1.51493696756108e-03 2.39951452893192e-05
3.28978260869565e+01 1.49235767451883e-03 2.36955177775368e-05
3.30586956521739e+01 1.47011491325968e-03 2.33993519250538e-05
3.32195652173913e+01 1.44820366803099e-03 2.31066142027810e-05
3.33804347826087e+01 1.42661899770491e-03 2.28172712399004e-05
3.35413043478261e+01 1.40535603486484e-03 2.25312897763907e-05
3.37021739130435e+01 1.38440998470223e-03 2.22486367704130e-05
3.38630434782609e+01 1.36377612374787e-03 2.19692793515264e-05
3.40239130434783e+01 1.34344979899589e-03 2.16931847751912e-05
3.41847826086956e+01 1.32342642684927e-03 2.14203205243343e-05
3.43456521739130e+01 1.30370149190941e-03 2.11506542644981e-05
3.45065217391304e+01 1.28427054613639e-03 2.08841538002717e-05
3.46673913043478e+01 1.26512920784082e-03 2.06207871713566e-05
3.48282608695652e+01 1.24627316052915e-03 2.03605226095788e-05
3.49891304347826e+01 1.22769815209856e-03 2.01033284971703e-05
3.51500000000000e+01 1.20939999387331e-03 1.98491734576444e-05
3.53108695652174e+01 1.19137455950300e-03 1.95980263012194e-05
3.54717391304348e+01 1.17361778424057e-03 1.93498560386070e-05
3.56326086956522e+01 1.15612566382153e-03 1.91046318998810e-05
3.57934782608696e+01 1.13889425371322e-03 1.88623232810577e-05
3.59543478260870e+01 1.12191966822090e-03 1.86228998266815e-05
3.61152173913043e+01 1.10519807946947e-03 1.83863313916475e-05
3.62760869565217e+01 1.08872571668373e-03 1.81525880041402e-05
3.64369565217391e+01 1.07249886533406e-03 1.79216399437874e-05
3.65978260869565e+01 1.05651386616465e-03 1.76934577051164e-05
3.67586956521739e+01 1.04076711450374e-03 1.74680119620465e-05
3.69195652173913e+01 1.02525505944701e-03 1.72452736418585e-05
3.70804347826087e+01 1.00997420293019e-03 1.70252138902178e-05
3.72413043478261e+01 9.94921099068079e-04 1.68078040371572e-05
3.74021739130435e+01 9.80092353373932e-04 1.65930156670995e-05
3.75630434782609e+01 9.65484621874474e-04 1.63808205853699e-05
3.77239130434783e+01 9.51094610476483e-04 1.61711907856269e-05
3.78847826086957e+01 9.36919074220608e-04 1.59640985161523e-05
3.80456521739130e+01 9.22954816436781e-04 1.57595162477802e-05
3.82065217391304e+01 9.09198688137294e-04 1.55574166427266e-05
3.83673913043478e+01 8.95647587303505e-04 1.53577726173525e-05
3.85282608695652e+01 8.82298458079786e-04 1.51605573114507e-05
3.86891304347826e+01 8.69148290192016e-04 1.49657440584174e-05
3.88500000000000e+01 8.56194118265721e-04 1.47733064446809e-05
3.90108695652174e+01 8.43433021056776e-04 1.45832182712753e-05
3.91717391304348e+01 8.30862120926129e-04 1.43954535614933e-05
3.93326086956522e+01 8.18478583060133e-04 1.42099865719592e-05
3.94934782608696e+01 8.06279614928800e-04 1.40267917550644e-05
3.96543478260870e+01 7.94262465653336e-04 1.38458438130686e-05
3.98152173913043e+01 7.82424425294611e-04 1.36671176708530e-05
3.99760869565217e+01 7.70762824334170e-04 1.34905884494534e-05
4.01369565217391e+01 7.59275033069679e-04 1.33162315173009e-05
4.02978260869565e+01 7.47958460935756e-04 1.31440224641550e-05
4.04586956521739e+01 7.36810556006791e-04 1.29739370757608e-05
4.06195652173913e+01 7.25828804419091e-04 1.28059513823857e-05
4.07804347826087e+01 7.15010729722552e-04 1.26400416338819e-05
4.09413043478261e+01 7.04353892404425e-04 1.24761842754207e-05
4.11021739130435e+01 6.93855889336958e-04 1.23143559934749e-05
4.12630434782609e+01 6.83514353158499e-04 1.21545336919547e-05
4.14239130434783e+01 6.73326951817361e-04 1.19966944689853e-05
4.15847826086956e+01 6.63291388043803e-04 1.18408156604722e-05
4.17456521739130e+01 6.53405398759238e-04 1.16868748172554e-05
4.19065217391304e+01 6.43666754639357e-04 1.15348496828945e-05
4.20673913043478e+01 6.34073259609381e-04 1.13847182349463e-05
4.22282608695652e+01 6.24622750280077e-04 1.12364586630947e-05
4.23891304347826e+01 6.15313095529353e-04 1.10900493479000e-05
4.25500000000000e+01 6.06142196019749e-04 1.09454688999113e-05
4.27108695652174e+01 5.97107983660031e-04 1.08026961326328e-05
4.28717391304348e+01 5.88208421225091e-04 1.06617100666870e-05
4.30326086956522e+01 5.79441501812005e-04 1.05224899362897e-05
4.31934782608696e+01 5.70805248450536e-04 1.03850151628497e-05
4.33543478260870e+01 5.62297713655564e-04 1.02492653906205e-05
4.35152173913043e+01 5.53916978928889e-04 1.01152204673107e-05
4.36760869565217e+01 5.45661154386228e-04 9.98286042523688e-06
4.38369565217391e+01 5.37528378329398e-04 9.85216551511306e-06
4.39978260869565e+01 5.29516816770660e-04 9.72311618750481e-06
4.41586956521739e+01 5.21624663075534e-04 9.59569307478882e-06
4.43195652173913e+01 5.13850137553854e-04 9.46987702317965e-06
4.44804347826087e+01 5.06191487005625e-04 9.34564907499145e-06
4.46413043478261e+01 4.98646984378996e-04 9.22299045137023e-06
4.48021739130435e+01 4.91214928379361e-04 9.10188258265269e-06
4.49630434782609e+01 4.83893643035737e-04 8.98230709139575e-06
4.51239130434783e+01 4.76681477373277e-04 8.86424577585611e-06
4.52847826086957e+01 4.69576805039600e-04 8.74768063876979e-06
4.54456521739130e+01 4.62578023890768e-04 8.63259387110983e-06
4.56065217391304e+01 4.55683555677733e-04 8.51896783628624e-06
4.57673913043478e+01 4.48891845689129e-04 8.40678509742936e-06
4.59282608695652e+01 4.42201362355955e-04 8.29602840184574e-06
4.60891304347826e+01 4.35610596951372e-04 8.18668066590577e-06
4.62500000000000e+01 4.29118063249238e-04 8.07872500091080e-06
4.64108695652174e+01 4.22722297146638e-04 7.97214469407502e-06
4.65717391304348e+01 4.16421856389896e-04 7.86692321070491e-06
4.67326086956522e+01 4.10215320194272e-04 7.76304419795030e-06
4.68934782608696e+01 4.04101288964657e-04 7.66049146624471e-06
4.70543478260870e+01 3.98078383978832e-04 7.55924901290990e-06
4.72152173913043e+01 3.92145247038059e-04 7.45930100837621e-06
4.73760869565217e+01 3.86300540199690e-04 7.36063178278157e-06
4.75369565217391e+01 3.80542945474394e-04 7.26322584835400e-06
4.76978260869565e+01 3.74871164492505e-04 7.16706788623328e-06
4.78586956521739e+01 3.69283918248029e-04 7.07214273364710e-06
4.80195652173913e+01 3.63779946809237e-04 6.97843540513560e-06
4.81804347826087e+01 3.58358009000037e-04 6.88593107994783e-06
4.83413043478261e+01 3.53016882154924e-04 6.79461508977019e-06
4.85021739130435e+01 3.47755361842325e-04 6.70447293885544e-06
4.86630434782609e+01 3.42572261560327e-04 6.61549029196623e-06
4.88239130434783e+01 3.37466412502103e-04 6.52765296263537e-06
4.89847826086956e+01 3.32436663291448e-04 6.44094693225737e-06
4.91456521739130e+01 3.27481879692213e-04 6.35535833855137e-06
4.93065217391304e+01 3.22600944383762e-04 6.27087346433373e-06
4.94673913043478e+01 3.17792756708166e-04 6.18747875562511e-06
4.96282608695652e+01 3.13056232392714e-04 6.10516081061156e-06
4.97891304347826e+01 3.08390303334985e-04 6.02390636890688e-06
4.99500000000000e+01 3.03793917361178e-04 5.94370232872651e-06
5.01108695652174e+01 2.99266037961115e-04 5.86453573350289e-06
5.02717391304348e+01 2.94805644091317e-04 5.78639377294958e-06
5.04326086956522e+01 2.90411729908650e-04 5.70926378519668e-06
5.05934782608696e+01 2.86083304570447e-04 5.63313324373732e-06
5.07543478260869e+01 2.81819392010336e-04 5.55798977311219e-06
