Energy (eV)          EEDF (eV^-(3/2))     First Anisotropy
1.58593750000000e-02 7.89616450087051e-02 3.70235917323116e-05
4.75781250000000e-02 7.85367083922758e-02 6.11776356561371e-05
7.92968750000000e-02 7.81140585969040e-02 8.08705314187558e-05
1.11015625000000e-01 7.76936833156958e-02 9.58979817525000e-05
1.42734375000000e-01 7.72755703081774e-02 1.08486319760682e-04
1.74453125000000e-01 7.68597073997779e-02 1.19475468601218e-04
2.06171875000000e-01 7.64460824814531e-02 1.29299196290915e-04
2.37890625000000e-01 7.60346835093276e-02 1.38218917434186e-04
2.69609375000000e-01 7.56254985043425e-02 1.46407663074094e-04
3.01328125000000e-01 7.52185155519054e-02 1.53987486711035e-04
3.33046875000000e-01 7.48137228015435e-02 1.61048560870494e-04
3.64765625000000e-01 7.44111084665583e-02 1.67659898466506e-04
3.96484375000000e-01 7.40106608236824e-02 1.73875811778046e-04
4.28203125000000e-01 7.36123682127376e-02 1.79740021926658e-04
4.59921875000000e-01 7.32162190362960e-02 1.85288390131605e-04
4.91640625000000e-01 7.28222017593417e-02 1.90550799040063e-04
5.23359375000000e-01 7.24303049089355e-02 1.95552487906061e-04
5.55078125000000e-01 7.20405170738803e-02 2.00315024497716e-04
5.86796875000000e-01 7.16528269043890e-02 2.04857028168888e-04
6.18515625000000e-01 7.12672231117542e-02 2.09194718106625e-04
6.50234375000000e-01 7.08836944680193e-02 2.13342336007072e-04
6.81953125000000e-01 7.05022298056515e-02 2.17312476784805e-04
7.13671875000000e-01 7.01228180172169e-02 2.21116350754204e-04
7.45390625000000e-01 6.97454480550566e-02 2.24763993953900e-04
7.77109375000000e-01 6.93701089309658e-02 2.28264438681540e-04
8.08828125000000e-01 6.89967897158728e-02 2.31625853112291e-04
8.40546875000000e-01 6.86254795395217e-02 2.34855656620164e-04
8.72265625000000e-01 6.82561675901554e-02 2.37960615804187e-04
9.03984375000000e-01 6.78888431142009e-02 2.40946925044636e-04
9.35703125000000e-01 6.75234954159562e-02 2.43820274546911e-04
9.67421875000000e-01 6.71601138572788e-02 2.46585908182432e-04
9.99140625000000e-01 6.67986878572758e-02 2.49248672947195e-04
1.03085937500000e+00 6.64392068919964e-02 2.51813061485459e-04
1.06257812500000e+00 6.60816604941246e-02 2.54283248838483e-04
1.09429687500000e+00 6.57260382526752e-02 2.56663124355093e-04
1.12601562500000e+00 6.53723298126902e-02 2.58956319525671e-04
1.15773437500000e+00 6.50205248749372e-02 2.61166232363045e-04
1.18945312500000e+00 6.46706131956101e-02 2.63296048843484e-04
1.22117187500000e+00 6.43225845860300e-02 2.65348761833085e-04
1.25289062500000e+00 6.39764289123494e-02 2.67327187853725e-04
1.28460937500000e+00 6.36321360952563e-02 2.69233981984703e-04
1.31632812500000e+00 6.32896961096814e-02 2.71071651149682e-04
1.34804687500000e+00 6.29490989845056e-02 2.72842565999500e-04
1.37976562500000e+00 6.26103348022701e-02 2.74548971569532e-04
1.41148437500000e+00 6.22733936988875e-02 2.76192996864223e-04
1.44320312500000e+00 6.19382658633546e-02 2.77776663499005e-04
1.47492187500000e+00 6.16049415374665e-02 2.79301893511610e-04
1.50664062500000e+00 6.12734110155328e-02 2.80770516439268e-04
1.53835937500000e+00 6.09436646440947e-02 2.82184275745316e-04
1.57007812500000e+00 6.06156928216441e-02 2.83544834667629e-04
1.60179687500000e+00 6.02894859983439e-02 2.84853781551828e-04
1.63351562500000e+00 5.99650346757502e-02 2.86112634724394e-04
1.66523437500000e+00 5.96423294065353e-02 2.87322846953797e-04
1.69695312500000e+00 5.93213607942129e-02 2.88485809541929e-04
1.72867187500000e+00 5.90021194928645e-02 2.89602856083081e-04
1.76039062500000e+00 5.86845962068671e-02 2.90675265923372e-04
1.79210937500000e+00 5.83687816906227e-02 2.91704267349564e-04
1.82382812500000e+00 5.80546667482891e-02 2.92691040533167e-04
1.85554687500000e+00 5.77422422335117e-02 2.93636720252574e-04
1.88726562500000e+00 5.74314990491579e-02 2.94542398413704e-04
1.91898437500000e+00 5.71224281470516e-02 2.95409126387446e-04
1.95070312500000e+00 5.68150205277103e-02 2.96237917179960e-04
1.98242187500000e+00 5.65092672400823e-02 2.97029747450637e-04
2.01414062500000e+00 5.62051593812868e-02 2.97785559390590e-04
2.04585937500000e+00 5.59026880963544e-02 2.98506262473621e-04
2.07757812500000e+00 5.56018445779689e-02 2.99192735090224e-04
2.10929687500000e+00 5.53026200662116e-02 2.99845826074131e-04
2.14101562500000e+00 5.50050058483054e-02 3.00466356130168e-04
2.17273437500000e+00 5.47089932583617e-02 3.01055119171117e-04
2.20445312500000e+00 5.44145736771281e-02 3.01612883570794e-04
2.23617187500000e+00 5.41217385317367e-02 3.02140393339813e-04
2.26789062500000e+00 5.38304792954554e-02 3.02638369229719e-04
2.29960937500000e+00 5.35407874874389e-02 3.03107509771069e-04
2.33132812500000e+00 5.32526546724824e-02 3.03548492250217e-04
2.36304687500000e+00 5.29660724607753e-02 3.03961973629316e-04
2.39476562500000e+00 5.26810325076574e-02 3.04348591413475e-04
2.42648437500000e+00 5.23975265133758e-02 3.04708964468846e-04
2.45820312500000e+00 5.21155462228432e-02 3.05043693795284e-04
2.48992187500000e+00 5.18350834253973e-02 3.05353363256359e-04
2.52164062500000e+00 5.15561299545622e-02 3.05638540269830e-04
2.55335937500000e+00 5.12786776878104e-02 3.05899776461265e-04
2.58507812500000e+00 5.10027185463260e-02 3.06137608283001e-04
2.61679687500000e+00 5.07282444947698e-02 3.06352557600915e-04
2.64851562500000e+00 5.04552475410454e-02 3.06545132251121e-04
2.68023437500000e+00 5.01837197360662e-02 3.06715826568300e-04
2.71195312500000e+00 4.99136531735239e-02 3.06865121887572e-04
2.74367187500000e+00 4.96450399896589e-02 3.06993487021565e-04
2.77539062500000e+00 4.93778723630303e-02 3.07101378714202e-04
2.80710937500000e+00 4.91121425142892e-02 3.07189242072521e-04
2.83882812500000e+00 4.88478427059515e-02 3.07257510977907e-04
2.87054687500000e+00 4.85849652421728e-02 3.07306608478083e-04
2.90226562500000e+00 4.83235024685244e-02 3.07336947160758e-04
2.93398437500000e+00 4.80634467717703e-02 3.07348929510028e-04
2.96570312500000e+00 4.78047905796456e-02 3.07342948246756e-04
2.99742187500000e+00 4.75475263606360e-02 3.07319386653585e-04
3.02914062500000e+00 4.72916466237585e-02 3.07278618885441e-04
3.06085937500000e+00 4.70371439183430e-02 3.07221010266555e-04
3.09257812500000e+00 4.67840108338160e-02 3.07146917574537e-04
3.12429687500000e+00 4.65322399994842e-02 3.07056689312215e-04
3.15601562500000e+00 4.62818240843200e-02 3.06950665967947e-04
3.18773437500000e+00 4.60327557967484e-02 3.06829180265102e-04
3.21945312500000e+00 4.57850278844343e-02 3.06692557401111e-04
3.25117187500000e+00 4.55386331340715e-02 3.06541115276716e-04
3.28289062500000e+00 4.52935643711725e-02 3.06375164715920e-04
3.31460937500000e+00 4.50498144598599e-02 3.06195009677026e-04
3.34632812500000e+00 4.48073763026582e-02 3.06000947455407e-04
3.37804687500000e+00 4.45662428402877e-02 3.05793268878190e-04
3.40976562500000e+00 4.43264070514582e-02 3.05572258491402e-04
3.44148437500000e+00 4.40878619526654e-02 3.05338194739936e-04
3.47320312500000e+00 4.38506005979868e-02 3.05091350140557e-04
3.50492187500000e+00 4.36146160788800e-02 3.04831991448450e-04
3.53664062500000e+00 4.33799015239812e-02 3.04560379817536e-04
3.56835937500000e+00 4.31464500989052e-02 3.04276770954810e-04
3.60007812500000e+00 4.29142550060466e-02 3.03981415269003e-04
3.63179687500000e+00 4.26833094843816e-02 3.03674558013934e-04
3.66351562500000e+00 4.24536068092711e-02 3.03356439426667e-04
3.69523437500000e+00 4.22251402922653e-02 3.03027294860699e-04
3.72695312500000e+00 4.19979032809086e-02 3.02687354914472e-04
3.75867187500000e+00 4.17718891585457e-02 3.02336845555444e-04
3.79039062500000e+00 4.15470913441296e-02 3.01975988239839e-04
3.82210937500000e+00 4.13235032920293e-02 3.01605000028233e-04
3.85382812500000e+00 4.11011184918398e-02 3.01224093697320e-04
3.88554687500000e+00 4.08799304681917e-02 3.00833477847781e-04
3.91726562500000e+00 4.06599327805638e-02 3.00433357008682e-04
3.94898437500000e+00 4.04411190230944e-02 3.00023931738352e-04
3.98070312500000e+00 4.02234828243956e-02 2.99605398721912e-04
4.01242187500000e+00 4.00070178473675e-02 2.99177950865762e-04
4.04414062500000e+00 3.97917177890134e-02 2.98741777388902e-04
4.07585937500000e+00 3.95775763802569e-02 2.98297063911425e-04
4.10757812500000e+00 3.93645873857588e-02 2.97843992540139e-04
4.13929687500000e+00 3.91527446037357e-02 2.97382741951527e-04
4.17101562500000e+00 3.89420418657795e-02 2.96913487472183e-04
4.20273437500000e+00 3.87324730366777e-02 2.96436401156670e-04
4.23445312500000e+00 3.85240320142349e-02 2.95951651863032e-04
4.26617187500000e+00 3.83167127290949e-02 2.95459405326070e-04
4.29789062500000e+00 3.81105091445643e-02 2.94959824228384e-04
4.32960937500000e+00 3.79054152564362e-02 2.94453068269220e-04
4.36132812500000e+00 3.77014250928159e-02 2.93939294231357e-04
4.39304687500000e+00 3.74985327139468e-02 2.93418656046068e-04
4.42476562500000e+00 3.72967322120372e-02 2.92891304856081e-04
4.45648437500000e+00 3.70960177110889e-02 2.92357389076779e-04
4.48820312500000e+00 3.68963833667254e-02 2.91817054455651e-04
4.51992187500000e+00 3.66978233660221e-02 2.91270444130044e-04
4.55164062500000e+00 3.65003319273372e-02 2.90717698683289e-04
4.58335937500000e+00 3.63039033001428e-02 2.90158956199232e-04
4.61507812500000e+00 3.61085317648582e-02 2.89594352315277e-04
4.64679687500000e+00 3.59142116326826e-02 2.89024020273963e-04
4.67851562500000e+00 3.57209372454299e-02 2.88448090973123e-04
4.71023437500000e+00 3.55287029753640e-02 2.87866693014679e-04
4.74195312500000e+00 3.53375032250347e-02 2.87279952752127e-04
4.77367187500000e+00 3.51473324271146e-02 2.86687994336703e-04
4.80539062500000e+00 3.49581850442375e-02 2.86090939762400e-04
4.83710937500000e+00 3.47700555688367e-02 2.85488908909809e-04
4.86882812500000e+00 3.45829385229848e-02 2.84882019588704e-04
4.90054687500000e+00 3.43968284582341e-02 2.84270387579593e-04
4.93226562500000e+00 3.42117199554583e-02 2.83654126674213e-04
4.96398437500000e+00 3.40276076246941e-02 2.83033348714930e-04
4.99570312500000e+00 3.38444861049848e-02 2.82408163633176e-04
5.02742187500000e+00 3.36623500642240e-02 2.81778679486922e-04
5.05914062500000e+00 3.34811941990002e-02 2.81145002497168e-04
5.09085937500000e+00 3.33010132344427e-02 2.80507237083565e-04
5.12257812500000e+00 3.31218019240676e-02 2.79865485899129e-04
5.15429687500000e+00 3.29435550496255e-02 2.79219849864101e-04
5.18601562500000e+00 3.27662674209491e-02 2.78570428199043e-04
5.21773437500000e+00 3.25899338758023e-02 2.77917318457043e-04
5.24945312500000e+00 3.24145492797301e-02 2.77260616555123e-04
5.28117187500000e+00 3.22401085259085e-02 2.76600416805014e-04
5.31289062500000e+00 3.20666065349965e-02 2.75936811943153e-04
5.34460937500000e+00 3.18940382549877e-02 2.75269893159919e-04
5.37632812500000e+00 3.17223986610634e-02 2.74599750128202e-04
5.40804687500000e+00 3.15516827554462e-02 2.73926471031361e-04
5.43976562500000e+00 3.13818855672545e-02 2.73250142590454e-04
5.47148437500000e+00 3.12130021523580e-02 2.72570850090883e-04
5.50320312500000e+00 3.10450275932332e-02 2.71888677408488e-04
5.53492187500000e+00 3.08779569988209e-02 2.71203707034879e-04
5.56664062500000e+00 3.07117855043830e-02 2.70516020102371e-04
5.59835937500000e+00 3.05465082713616e-02 2.69825696408310e-04
5.63007812500000e+00 3.03821204872377e-02 2.69132814438768e-04
5.66179687500000e+00 3.02186173653910e-02 2.68437451391794e-04
5.69351562500000e+00 3.00559941449608e-02 2.67739683200151e-04
5.72523437500000e+00 2.98942460907073e-02 2.67039584553552e-04
5.75695312500000e+00 2.97333684928736e-02 2.66337228920368e-04
5.78867187500000e+00 2.95733566670484e-02 2.65632688568882e-04
5.82039062500000e+00 2.94142059540303e-02 2.64926034588111e-04
5.85210937500000e+00 2.92559117196912e-02 2.64217336908201e-04
5.88382812500000e+00 2.90984693548422e-02 2.63506664320318e-04
5.91554687500000e+00 2.89418742750987e-02 2.62794084496159e-04
5.94726562500000e+00 2.87861219207474e-02 2.62079664007062e-04
5.97898437500000e+00 2.86312077566133e-02 2.61363468342640e-04
6.01070312500000e+00 2.84771272719278e-02 2.60645561929126e-04
6.04242187500000e+00 2.83238759801972e-02 2.59926008147331e-04
6.07414062500000e+00 2.81714494190720e-02 2.59204869350126e-04
6.10585937500000e+00 2.80198431502173e-02 2.58482206879688e-04
6.13757812500000e+00 2.78690527591833e-02 2.57758081084344e-04
6.16929687500000e+00 2.77190738552766e-02 2.57032551335044e-04
6.20101562500000e+00 2.75699020714329e-02 2.56305676041543e-04
6.23273437500000e+00 2.74215330640892e-02 2.55577512668232e-04
6.26445312500000e+00 2.72739625130580e-02 2.54848117749699e-04
6.29617187500000e+00 2.71271861214007e-02 2.54117546905946e-04
6.32789062500000e+00 2.69811996153032e-02 2.53385854857240e-04
6.35960937500000e+00 2.68359987439512e-02 2.52653095438790e-04
6.39132812500000e+00 2.66915792794062e-02 2.51919321615118e-04
6.42304687500000e+00 2.65479370164827e-02 2.51184585494062e-04
6.45476562500000e+00 2.64050677726257e-02 2.50448938340566e-04
6.48648437500000e+00 2.62629673877888e-02 2.49712430590238e-04
6.51820312500000e+00 2.61216317243132e-02 2.48975111862594e-04
6.54992187500000e+00 2.59810566668070e-02 2.48237030974064e-04
6.58164062500000e+00 2.58412381220256e-02 2.47498235950744e-04
6.61335937500000e+00 2.57021720187525e-02 2.46758774040938e-04
6.64507812500000e+00 2.55638543076806e-02 2.46018691727436e-04
6.67679687500000e+00 2.54262809612944e-02 2.45278034739553e-04
6.70851562500000e+00 2.52894479737526e-02 2.44536848064980e-04
6.74023437500000e+00 2.51533513607718e-02 2.43795175961386e-04
6.77195312500000e+00 2.50179871595101e-02 2.43053061967822e-04
6.80367187500000e+00 2.48833514284519e-02 2.42310548915884e-04
6.83539062500000e+00 2.47494402472930e-02 2.41567678940717e-04
6.86710937500000e+00 2.46162497168266e-02 2.40824493491791e-04
6.89882812500000e+00 2.44837759588297e-02 2.40081033343498e-04
6.93054687500000e+00 2.43520151159503e-02 2.39337338605519e-04
6.96226562500000e+00 2.42209633515948e-02 2.38593448733049e-04
6.99398437500000e+00 2.40906168498165e-02 2.37849402536838e-04
7.02570312500000e+00 2.39609718152044e-02 2.37105238193026e-04
7.05742187500000e+00 2.38320244727729e-02 2.36360993252807e-04
7.08914062500000e+00 2.37037710678514e-02 2.35616704651920e-04
7.12085937500000e+00 2.35762078659755e-02 2.34872408720001e-04
7.15257812500000e+00 2.34493311527779e-02 2.34128141189772e-04
7.18429687500000e+00 2.33231372338806e-02 2.33383937206027e-04
7.21601562500000e+00 2.31976224347869e-02 2.32639831334477e-04
7.24773437500000e+00 2.30727831007746e-02 2.31895857570466e-04
7.27945312500000e+00 2.29486155967898e-02 2.31152049347507e-04
7.31117187500000e+00 2.28251163073406e-02 2.30408439545744e-04
7.34289062500000e+00 2.27022816363923e-02 2.29665060500132e-04
7.37460937500000e+00 2.25801080072623e-02 2.28921944008557e-04
7.40632812500000e+00 2.24585918625161e-02 2.28179121339904e-04
7.43804687500000e+00 2.23377296638640e-02 2.27436623241846e-04
7.46976562500000e+00 2.22175178920576e-02 2.26694479948534e-04
7.50148437500000e+00 2.20979530467875e-02 2.25952721188238e-04
7.53320312500000e+00 2.19790316465815e-02 2.25211376190766e-04
7.56492187500000e+00 2.18607502287031e-02 2.24470473694822e-04
7.59664062500000e+00 2.17431053490508e-02 2.23730041955214e-04
7.62835937500000e+00 2.16260935820577e-02 2.22990108749928e-04
7.66007812500000e+00 2.15097115205917e-02 2.22250701387107e-04
7.69179687500000e+00 2.13939557758564e-02 2.21511846711938e-04
7.72351562500000e+00 2.12788229772925e-02 2.20773571113421e-04
7.75523437500000e+00 2.11643097724794e-02 2.20035900530936e-04
7.78695312500000e+00 2.10504128270380e-02 2.19298860460841e-04
7.81867187500000e+00 2.09371288245331e-02 2.18562475962876e-04
7.85039062500000e+00 2.08244544663772e-02 2.17826771666475e-04
7.88210937500000e+00 2.07123864717342e-02 2.17091771777016e-04
7.91382812500000e+00 2.06009215774242e-02 2.16357500081911e-04
7.94554687500000e+00 2.04900565378283e-02 2.15623979956657e-04
7.97726562500000e+00 2.03797881247939e-02 2.14891234370752e-04
8.00898437500000e+00 2.02701131275409e-02 2.14159285893524e-04
8.04070312500000e+00 2.01610283525684e-02 2.13428156699909e-04
8.07242187500000e+00 2.00525306235614e-02 2.12697868576062e-04
8.10414062500000e+00 1.99446167812983e-02 2.11968442924921e-04
8.13585937500000e+00 1.98372836835592e-02 2.11239900771736e-04
8.16757812500000e+00 1.97305282050342e-02 2.10512262769390e-04
8.19929687500000e+00 1.96243472372324e-02 2.09785549203731e-04
8.23101562500000e+00 1.95187376883914e-02 2.09059779998841e-04
8.26273437500000e+00 1.94136964833874e-02 2.08334974722143e-04
8.29445312500000e+00 1.93092205636454e-02 2.07611152589470e-04
8.32617187500000e+00 1.92053068870504e-02 2.06888332470049e-04
8.35789062500000e+00 1.91019524278587e-02 2.06166532891398e-04
8.38960937500000e+00 1.89991541766098e-02 2.05445772044195e-04
8.42132812500000e+00 1.88969091400388e-02 2.04726067787029e-04
8.45304687500000e+00 1.87952143409893e-02 2.04007437651088e-04
8.48476562500000e+00 1.86940668183265e-02 2.03289898844794e-04
8.51648437500000e+00 1.85934636268511e-02 2.02573468258347e-04
8.54820312500000e+00 1.84934018372137e-02 2.01858162468174e-04
8.57992187500000e+00 1.83938785358293e-02 2.01143997741354e-04
8.61164062500000e+00 1.82948908247925e-02 2.00430990040015e-04
8.64335937500000e+00 1.81964358217932e-02 1.99719155025579e-04
8.67507812500000e+00 1.80985106600325e-02 1.99008508062971e-04
8.70679687500000e+00 1.80011124881395e-02 1.98299064224820e-04
8.73851562500000e+00 1.79042384700880e-02 1.97590838295529e-04
8.77023437500000e+00 1.78078857851141e-02 1.96883844775276e-04
8.80195312500000e+00 1.77120516276340e-02 1.96178097884062e-04
8.83367187500000e+00 1.76167332071622e-02 1.95473611565567e-04
8.86539062500000e+00 1.75219277482306e-02 1.94770399491042e-04
8.89710937500000e+00 1.74276324903071e-02 1.94068475063116e-04
8.92882812500000e+00 1.73338446877158e-02 1.93367851419524e-04
8.96054687500000e+00 1.72405616095569e-02 1.92668541436843e-04
8.99226562500000e+00 1.71477805396267e-02 1.91970557734069e-04
9.02398437500000e+00 1.70554987763394e-02 1.91273912676243e-04
9.05570312500000e+00 1.69637136326476e-02 1.90578618378003e-04
9.08742187500000e+00 1.68724224359645e-02 1.89884686707015e-04
9.11914062500000e+00 1.67816225280860e-02 1.89192129287495e-04
9.15085937500000e+00 1.66913112651132e-02 1.88500957503548e-04
9.18257812500000e+00 1.66014860173756e-02 1.87811182502434e-04
9.21429687500000e+00 1.65121441693544e-02 1.87122815197987e-04
9.24601562500000e+00 1.64232831196062e-02 1.86435866273812e-04
9.27773437500000e+00 1.63349002806877e-02 1.85750346186443e-04
9.30945312500000e+00 1.62469930790799e-02 1.85066265168528e-04
9.34117187500000e+00 1.61595589551133e-02 1.84383633231943e-04
9.37289062500000e+00 1.60725953628934e-02 1.83702460170831e-04
9.40460937500000e+00 1.59860997702269e-02 1.83022755564657e-04
9.43632812500000e+00 1.59000696585472e-02 1.82344528781189e-04
9.46804687500000e+00 1.58145025228417e-02 1.81667788979378e-04
9.49976562500000e+00 1.57293958715788e-02 1.80992545112313e-04
9.53148437500000e+00 1.56447472266350e-02 1.80318805930062e-04
9.56320312500000e+00 1.55605541232231e-02 1.79646579982475e-04
9.59492187500000e+00 1.54768141098201e-02 1.78975875621969e-04
9.62664062500000e+00 1.53935247480964e-02 1.78306701006273e-04
9.65835937500000e+00 1.53106836128441e-02 1.77639064101132e-04
9.69007812500000e+00 1.52282882919066e-02 1.76972972682950e-04
9.72179687500000e+00 1.51463363861088e-02 1.76308434341425e-04
9.75351562500000e+00 1.50648255091867e-02 1.75645456482166e-04
9.78523437500000e+00 1.49837532877181e-02 1.74984046329211e-04
9.81695312500000e+00 1.49031173610536e-02 1.74324210927555e-04
9.84867187500000e+00 1.48229153812477e-02 1.73665957145673e-04
9.88039062500000e+00 1.47431450129905e-02 1.73009291677935e-04
9.91210937500000e+00 1.46638039335397e-02 1.72354221047019e-04
9.94382812500000e+00 1.45848898326531e-02 1.71700751606319e-04
9.97554687500000e+00 1.45064004125210e-02 1.71048889542292e-04
1.00072656250000e+01 1.44283333876996e-02 1.70398640876775e-04
