Energy (eV)          EEDF (eV^-(3/2))     First Anisotropy
6.85000000000000e-01 4.62932797780355e-02 1.13422755598025e-04
2.05500000000000e+00 3.89315254288268e-02 1.72982660018134e-04
3.42500000000000e+00 3.27404685838334e-02 1.93342416237558e-04
4.79500000000000e+00 2.75339399440862e-02 1.93853333802100e-04
6.16500000000000e+00 2.31553756447728e-02 1.85423914745746e-04
7.53500000000000e+00 1.94731092731136e-02 1.72661883417448e-04
8.90500000000000e+00 1.63764125695894e-02 1.57993972520461e-04
1.02750000000000e+01 1.37721657537089e-02 1.42803595710427e-04
1.16450000000000e+01 1.15820573487413e-02 1.27897609261359e-04
1.30150000000000e+01 9.74022930223644e-03 1.13739420395658e-04
1.43850000000000e+01 8.19129658950061e-03 1.00579481057257e-04
1.57550000000000e+01 6.88868174815538e-03 8.85337180551969e-05
1.71250000000000e+01 5.79321426209792e-03 7.76328691623798e-05
1.84950000000000e+01 4.87195267738442e-03 6.78544319405494e-05
1.98650000000000e+01 4.09719403025802e-03 5.91437147870082e-05
2.12350000000000e+01 3.44564080014716e-03 5.14278214337049e-05
2.26050000000000e+01 2.89770033734310e-03 4.46249416053819e-05
2.39750000000000e+01 2.43689569866936e-03 3.86504719968507e-05
2.53450000000000e+01 2.04937017457030e-03 3.34209743975475e-05
2.67150000000000e+01 1.72347060841037e-03 2.88566503123810e-05
2.80850000000000e+01 1.44939697811169e-03 2.48827977728939e-05
2.94550000000000e+01 1.21890770281073e-03 2.14305732226921e-05
3.08250000000000e+01 1.02507181290455e-03 1.84372840442074e-05
3.21950000000000e+01 8.62060531070899e-04 1.58463699608239e-05
3.35650000000000e+01 7.24971996961385e-04 1.36071844093596e-05
3.49350000000000e+01 6.09683864919866e-04 1.16746536848586e-05
3.63050000000000e+01 5.12729342238890e-04 1.00088680004695e-05
3.76750000000000e+01 4.31192940340119e-04 8.57464172935712e-06
3.90450000000000e+01 3.62622804045668e-04 7.34106804152913e-06
4.04150000000000e+01 3.04956982621797e-04 6.28108454699979e-06
4.17850000000000e+01 2.56461425514978e-04 5.37106044081385e-06
4.31550000000000e+01 2.15677838269881e-04 4.59041132531301e-06
4.45250000000000e+01 1.81379830621164e-04 3.92124486461993e-06
4.58950000000000e+01 1.52536038102327e-04 3.34803834668242e-06
4.72650000000000e+01 1.28279108213257e-04 2.85734782830781e-06
4.86350000000000e+01 1.07879618539388e-04 2.43754762791472e-06
5.00050000000000e+01 9.07241425225393e-05 2.07859836990993e-06
5.13750000000000e+01 7.62968033062230e-05 1.77184147169058e-06
5.27450000000000e+01 6.41637609669585e-05 1.50981782469162e-06
5.41150000000000e+01 5.39601666520829e-05 1.28610840020759e-06
5.54850000000000e+01 4.53791913260813e-05 1.09519456933695e-06
5.68550000000000e+01 3.81627992123632e-05 9.32336035714746e-07
5.82250000000000e+01 3.20939884815906e-05 7.93464419205945e-07
5.95950000000000e+01 2.69902658587681e-05 6.75090683894470e-07
6.09650000000000e+01 2.26981589260818e-05 5.74224764387536e-07
6.23350000000000e+01 1.90886011026934e-05 4.88305903755046e-07
6.37050000000000e+01 1.60530505246861e-05 4.15142369787255e-07
6.50750000000000e+01 1.35002261172384e-05 3.52859360833315e-07
6.64450000000000e+01 1.13533627104888e-05 2.99854046654281e-07
6.78150000000000e+01 9.54790265855825e-06 2.54756812726862e-07
6.91850000000000e+01 8.02955454713723e-06 2.16397888109229e-07
7.05550000000000e+01 6.75266061365438e-06 1.83778637573854e-07
7.19250000000000e+01 5.67882378723691e-06 1.56046888734690e-07
7.32950000000000e+01 4.77575306261917e-06 1.32475745017319e-07
7.46650000000000e+01 4.01629248760574e-06 1.12445406298516e-07
7.60350000000000e+01 3.37760456508021e-06 9.54275816678497e-08
7.74050000000000e+01 2.84048351390153e-06 8.09721338295488e-08
7.87750000000000e+01 2.38877773797501e-06 6.86956429334351e-08
8.01450000000000e+01 2.00890413674932e-06 5.82716198246316e-08
8.15150000000000e+01 1.68943965212503e-06 4.94221355083939e-08
8.28850000000000e+01 1.42077776931200e-06 4.19106656603052e-08
8.42550000000000e+01 1.19483964238209e-06 3.55359768389862e-08
8.56250000000000e+01 1.00483115786579e-06 3.01269051894118e-08
8.69950000000000e+01 8.45038631129567e-07 2.55378993182447e-08
8.83650000000000e+01 7.10656991984629e-07 2.16452170870873e-08
8.97350000000000e+01 5.97645292951354e-07 1.83436816680424e-08
9.11050000000000e+01 5.02605195214395e-07 1.55439156591605e-08
9.24750000000000e+01 4.22678778258297e-07 1.31699836476495e-08
9.38450000000000e+01 3.55462600249720e-07 1.11573835840785e-08
9.52150000000000e+01 2.98935424903395e-07 9.45133590827335e-09
9.65850000000000e+01 2.51397441529417e-07 8.00532673672429e-09
9.79550000000000e+01 2.11419150567253e-07 6.77986774727034e-09
9.93250000000000e+01 1.77798377559655e-07 5.74144082322291e-09
1.00695000000000e+02 1.49524122947367e-07 4.86160017061724e-09
1.02065000000000e+02 1.25746160623304e-07 4.11620860699485e-09
1.03435000000000e+02 1.05749471054030e-07 3.48478813153111e-09
1.04805000000000e+02 8.89327401550472e-08 2.94996780524106e-09
1.06175000000000e+02 7.47902773664393e-08 2.49701446618048e-09
1.07545000000000e+02 6.28968091930704e-08 2.11343393814593e-09
1.08915000000000e+02 5.28946909407330e-08 1.78863221416721e-09
1.10285000000000e+02 4.44831520964328e-08 1.51362765264570e-09
1.11655000000000e+02 3.74092519540668e-08 1.28080655263934e-09
1.13025000000000e+02 3.14602735149938e-08 1.08371560843890e-09
1.14395000000000e+02 2.64573269429042e-08 9.16885710470589e-10
1.15765000000000e+02 2.22499702245155e-08 7.75682383922065e-10
1.17135000000000e+02 1.87116852756963e-08 6.56178859089371e-10
1.18505000000000e+02 1.57360734564460e-08 5.55048366066770e-10
1.19875000000000e+02 1.32336560912710e-08 4.69472756276194e-10
1.21245000000000e+02 1.11291837844271e-08 3.97064987484853e-10
1.22615000000000e+02 9.35937361930193e-09 3.35803378527814e-10
1.23985000000000e+02 7.87100619798005e-09 2.83975854457837e-10
1.25355000000000e+02 6.61932529767532e-09 2.40132670420820e-10
1.26725000000000e+02 5.56669202060709e-09 2.03046330147142e-10
1.28095000000000e+02 4.68145296669035e-09 1.71677608484953e-10
1.29465000000000e+02 3.93698839422121e-09 1.45146751938977e-10
1.30835000000000e+02 3.31091174610058e-09 1.22709071031440e-10
1.32205000000000e+02 2.78439647080424e-09 1.03734257148014e-10
1.33575000000000e+02 2.34160989514686e-09 8.76888575058416e-11
1.34945000000000e+02 1.96923712500827e-09 7.41214276533302e-11
1.36315000000000e+02 1.65608065739217e-09 6.26499537571099e-11
1.37685000000000e+02 1.39272366387922e-09 5.29511987873261e-11
1.39055000000000e+02 1.17124682017817e-09 4.47516792268326e-11
1.40425000000000e+02 9.84990166646897e-10 3.78200235060806e-11
1.41795000000000e+02 8.28352838766723e-10 3.19605011971922e-11
1.43165000000000e+02 6.96624645328940e-10 2.70075441032545e-11
1.44535000000000e+02 5.85844429774853e-10 2.28211076156638e-11
1.45905000000000e+02 4.92680955518248e-10 1.92827438174497e-11
1.47275000000000e+02 4.14332733390773e-10 1.62922774078505e-11
1.48645000000000e+02 3.48443778953236e-10 1.37649921432087e-11
1.50015000000000e+02 2.93032766437747e-10 1.16292495820040e-11
1.51385000000000e+02 2.46433448931465e-10 9.82447387021637e-12
1.52755000000000e+02 2.07244553196268e-10 8.29944643221117e-12
1.54125000000000e+02 1.74287642427410e-10 7.01086301795212e-12
1.55495000000000e+02 1.46571679855622e-10 5.92211283386631e-12
1.56865000000000e+02 1.23263227595993e-10 5.00224565100525e-12
1.58235000000000e+02 1.03661384602728e-10 4.22509800906219e-12
1.59605000000000e+02 8.71767100969864e-11 3.56855406155740e-12
1.60975000000000e+02 7.33134986809158e-11 3.01392035762024e-12
1.62345000000000e+02 6.16548741384821e-11 2.54539703237549e-12
1.63715000000000e+02 5.18502536835224e-11 2.14963056842755e-12
1.65085000000000e+02 4.36048056964181e-11 1.81533556949041e-12
1.66455000000000e+02 3.66705839363448e-11 1.53297491672000e-12
1.67825000000000e+02 3.08390716288176e-11 1.29448931208654e-12
1.69195000000000e+02 2.59349112241635e-11 1.09306859637758e-12
1.70565000000000e+02 2.18106312764848e-11 9.22958400461673e-13
1.71935000000000e+02 1.83422118767680e-11 7.79296679739580e-13
1.73305000000000e+02 1.54253552896922e-11 6.57975520783857e-13
1.74675000000000e+02 1.29723496496411e-11 5.55524319334938e-13
1.76045000000000e+02 1.09094314051227e-11 4.69011029839599e-13
1.77415000000000e+02 9.17456719850052e-12 3.95958695321644e-13
1.78785000000000e+02 7.71558848064962e-12 3.34274896742151e-13
1.80155000000000e+02 6.48862276712767e-12 2.82192125145625e-13
1.81525000000000e+02 5.45677436266568e-12 2.38217387968315e-13
1.82895000000000e+02 4.58901488246429e-12 2.01089621517816e-13
1.84265000000000e+02 3.85925020751475e-12 1.69743702110858e-13
1.85635000000000e+02 3.24553581665543e-12 1.43280034852979e-13
1.87005000000000e+02 2.72941689986370e-12 1.20938856786518e-13
1.88375000000000e+02 2.29537340954031e-12 1.02078524546704e-13
1.89745000000000e+02 1.93035336210009e-12 8.61571694948987e-14
1.91115000000000e+02 1.62338035592970e-12 7.27171987133543e-14
1.92485000000000e+02 1.36522350350992e-12 6.13722009298119e-14
1.93855000000000e+02 1.14811985233646e-12 5.17958846634284e-14
1.95225000000000e+02 9.65540947647114e-13 4.37127335668678e-14
1.96595000000000e+02 8.11996517337534e-13 3.68901127085402e-14
1.97965000000000e+02 6.82869375736988e-13 3.11316007691689e-14
1.99335000000000e+02 5.74276581688325e-13 2.62713579816450e-14
2.00705000000000e+02 4.82952675860880e-13 2.21693691067459e-14
2.02075000000000e+02 4.06151486162763e-13 1.87074256423305e-14
2.03445000000000e+02 3.41563548474342e-13 1.57857325143044e-14
2.04815000000000e+02 2.87246659488108e-13 1.33200422895904e-14
2.06185000000000e+02 2.41567473331468e-13 1.12392349882713e-14
2.07555000000000e+02 2.03152385743115e-13 9.48327427998617e-15
2.08925000000000e+02 1.70846228856687e-13 8.00148158877911e-15
2.10295000000000e+02 1.43677534515691e-13 6.75107870552614e-15
2.11665000000000e+02 1.20829321563919e-13 5.69595717534017e-15
2.13035000000000e+02 1.01614528665249e-13 4.80563920672484e-15
2.14405000000000e+02 8.54553539009857e-14 4.05440032380690e-15
2.15775000000000e+02 7.18658798723546e-14 3.42052860834754e-15
2.17145000000000e+02 6.04374618331330e-14 2.88569928597472e-15
2.18515000000000e+02 5.08264394636116e-14 2.43444671239335e-15
2.19885000000000e+02 4.27438027705515e-14 2.05371860421406e-15
2.21255000000000e+02 3.59465013597075e-14 1.73249971493988e-15
2.22625000000000e+02 3.02301357448169e-14 1.46149414670733e-15
2.23995000000000e+02 2.54228109157351e-14 1.23285716934011e-15
2.25365000000000e+02 2.13799673383218e-14 1.03996883809461e-15
2.26735000000000e+02 1.79800339507221e-14 8.77242900680435e-16
2.28105000000000e+02 1.51207724386775e-14 7.39965496969766e-16
2.29475000000000e+02 1.27162028597329e-14 6.24159010199954e-16
2.30845000000000e+02 1.06940181677665e-14 5.26467150873029e-16
2.32215000000000e+02 8.99340989082980e-15 4.44057964618445e-16
2.33585000000000e+02 7.56323957895123e-15 3.74541970462933e-16
2.34955000000000e+02 6.36050103609105e-15 3.15903070986885e-16
2.36325000000000e+02 5.34902709451460e-15 2.66440243194976e-16
2.37695000000000e+02 4.49840204340809e-15 2.24718329111158e-16
2.39065000000000e+02 3.78304700772401e-15 1.89526507012281e-16
2.40435000000000e+02 3.18145077397460e-15 1.59843245347670e-16
2.41805000000000e+02 2.67552293338090e-15 1.34806728095109e-16
2.43175000000000e+02 2.25004989095088e-15 1.13689897932662e-16
2.44545000000000e+02 1.89223738230888e-15 9.58793966841210e-17
2.45915000000000e+02 1.59132574144567e-15 8.08577948440159e-17
2.47285000000000e+02 1.33826635022807e-15 6.81885968325015e-17
2.48655000000000e+02 1.12544954028440e-15 5.75035886958083e-17
2.50025000000000e+02 9.46475765090037e-16 4.84921625553250e-17
2.51395000000000e+02 7.95963161241684e-16 4.08923091608112e-17
2.52765000000000e+02 6.69385712156704e-16 3.44830180615058e-17
2.54135000000000e+02 5.62937147669683e-16 2.90778655584333e-17
2.55505000000000e+02 4.73416486894318e-16 2.45196049118506e-17
2.56875000000000e+02 3.98131782546474e-16 2.06756022372353e-17
2.58245000000000e+02 3.34819172254592e-16 1.74339859654471e-17
2.59615000000000e+02 2.81574802675203e-16 1.47003983717797e-17
2.60985000000000e+02 2.36797579325275e-16 1.23952550889990e-17
2.62355000000000e+02 1.99141020579850e-16 1.04514332129747e-17
2.63725000000000e+02 1.67472768051862e-16 8.81232100980786e-18
2.65095000000000e+02 1.40840535803656e-16 7.43017269809978e-18
2.66465000000000e+02 1.18443474459788e-16 6.26472061108266e-18
2.67835000000000e+02 9.96080891204788e-17 5.28200449562304e-18
2.69205000000000e+02 8.37679869109353e-17 4.45338399371523e-18
2.70575000000000e+02 7.04468451615740e-17 3.75470565860578e-18
2.71945000000000e+02 5.92440880606972e-17 3.16560033539407e-18
2.73315000000000e+02 4.98228410668152e-17 2.89943039403368e-18
