Energy (eV)          EEDF (eV^-(3/2))     First Anisotropy
5.05263157894737e-02 8.51407129285426e-02 7.27532973012046e-05
1.51578947368421e-01 8.36088733226942e-02 1.19457225525066e-04
2.52631578947368e-01 8.21045943683951e-02 1.55908076159852e-04
3.53684210526316e-01 8.06273801844931e-02 1.82535089737241e-04
4.54736842105263e-01 7.91767438306973e-02 2.03878041920067e-04
5.55789473684210e-01 7.77522071185304e-02 2.21683209599416e-04
6.56842105263158e-01 7.63533004695481e-02 2.36869129658236e-04
7.57894736842105e-01 7.49795627491259e-02 2.49999250732970e-04
8.58947368421053e-01 7.36305411215892e-02 2.61452987896021e-04
9.60000000000000e-01 7.23057909002211e-02 2.71502487400606e-04
1.06105263157895e+00 7.10048753903214e-02 2.80352098646329e-04
1.16210526315789e+00 6.97273657697968e-02 2.88160694655830e-04
1.26315789473684e+00 6.84728409226913e-02 2.95055214780490e-04
1.36421052631579e+00 6.72408873097810e-02 3.01139340569583e-04
1.46526315789474e+00 6.60310988322498e-02 3.06499304495109e-04
1.56631578947368e+00 6.48430766979369e-02 3.11207920027942e-04
1.66736842105263e+00 6.36764292826125e-02 3.15327460788921e-04
1.76842105263158e+00 6.25307720229892e-02 3.18911773782611e-04
1.86947368421053e+00 6.14057272669755e-02 3.22007863520755e-04
1.97052631578947e+00 6.03009241571756e-02 3.24657099905459e-04
2.07157894736842e+00 5.92159985085710e-02 3.26896158273054e-04
2.17263157894737e+00 5.81505926886055e-02 3.28757760187485e-04
2.27368421052632e+00 5.71043554992116e-02 3.30271265688015e-04
2.37473684210526e+00 5.60769420567107e-02 3.31463150838879e-04
2.47578947368421e+00 5.50680136914830e-02 3.32357399627760e-04
2.57684210526316e+00 5.40772378225606e-02 3.32975827562885e-04
2.67789473684211e+00 5.31042878527141e-02 3.33338349450620e-04
2.77894736842105e+00 5.21488430608302e-02 3.33463205540876e-04
2.88000000000000e+00 5.12105884961832e-02 3.33367152799291e-04
2.98105263157895e+00 5.02892148715112e-02 3.33065626773669e-04
3.08210526315789e+00 4.93844184705716e-02 3.32572881658632e-04
3.18315789473684e+00 4.84959010382599e-02 3.31902111186045e-04
3.28421052631579e+00 4.76233696856343e-02 3.31065552086702e-04
3.38526315789474e+00 4.67665367933692e-02 3.30074575358226e-04
3.48631578947368e+00 4.59251199169632e-02 3.28939766180523e-04
3.58736842105263e+00 4.50988416913165e-02 3.27670993361401e-04
3.68842105263158e+00 4.42874297463706e-02 3.26277471774504e-04
3.78947368421053e+00 4.34906166100826e-02 3.24767817819832e-04
3.89052631578947e+00 4.27081396227319e-02 3.23150097676541e-04
3.99157894736842e+00 4.19397408503254e-02 3.21431871318139e-04
4.09263157894737e+00 4.11851669995974e-02 3.19620231766288e-04
4.19368421052632e+00 4.04441693345007e-02 3.17721840585525e-04
4.29473684210526e+00 3.97165035925297e-02 3.15742959198203e-04
4.39578947368421e+00 3.90019299093620e-02 3.13689478087041e-04
4.49684210526316e+00 3.83002127345154e-02 3.11566943332271e-04
4.59789473684210e+00 3.76111207554949e-02 3.09380579827344e-04
4.69894736842105e+00 3.69344268215521e-02 3.07135313169777e-04
4.80000000000000e+00 3.62699078688069e-02 3.04835789640327e-04
4.90105263157895e+00 3.56173448453896e-02 3.02486393903444e-04
5.00210526315789e+00 3.49765226432866e-02 3.00091265985243e-04
5.10315789473684e+00 3.43472300232945e-02 2.97654316918925e-04
5.20421052631579e+00 3.37292595467947e-02 2.95179242382118e-04
5.30526315789474e+00 3.31224075073747e-02 2.92669535895309e-04
5.40631578947368e+00 3.25264738636833e-02 2.90128501001859e-04
5.50736842105263e+00 3.19412621724286e-02 2.87559262041441e-04
5.60842105263158e+00 3.13665795268561e-02 2.84964774765744e-04
5.70947368421053e+00 3.08022364898612e-02 2.82347836225112e-04
5.81052631578947e+00 3.02480470326654e-02 2.79711093305975e-04
5.91157894736842e+00 2.97038284734908e-02 2.77057051203431e-04
6.01263157894737e+00 2.91694014173488e-02 2.74388081195417e-04
6.11368421052632e+00 2.86445896969004e-02 2.71706428009633e-04
6.21473684210526e+00 2.81292203135629e-02 2.69014216290856e-04
6.31578947368421e+00 2.76231233829951e-02 2.66313457173310e-04
6.41684210526316e+00 2.71261320765367e-02 2.63606054459223e-04
6.51789473684210e+00 2.66380825670837e-02 2.60893809867307e-04
6.61894736842105e+00 2.61588139750879e-02 2.58178428394223e-04
6.72000000000000e+00 2.56881683155240e-02 2.55461523337456e-04
6.82105263157895e+00 2.52259904451395e-02 2.52744620660563e-04
6.92210526315789e+00 2.47721280133658e-02 2.50029163548618e-04
7.02315789473684e+00 2.43264314100073e-02 2.47316516717389e-04
7.12421052631579e+00 2.38887537166333e-02 2.44607970008220e-04
7.22526315789474e+00 2.34589506581486e-02 2.41904742153029e-04
7.32631578947368e+00 2.30368805552367e-02 2.39207984316614e-04
7.42736842105263e+00 2.26224042771014e-02 2.36518783135563e-04
7.52842105263158e+00 2.22153851972956e-02 2.33838163976222e-04
7.62947368421053e+00 2.18156891469620e-02 2.31167094031914e-04
7.73052631578947e+00 2.14231843711907e-02 2.28506484852492e-04
7.83157894736842e+00 2.10377414855864e-02 2.25857195061921e-04
7.93263157894737e+00 2.06592334336209e-02 2.23220032856035e-04
8.03368421052632e+00 2.02875354447495e-02 2.20595758438418e-04
8.13473684210526e+00 1.99225249928375e-02 2.17985086072022e-04
8.23578947368421e+00 1.95640817571260e-02 2.15388686350872e-04
8.33684210526316e+00 1.92120875811911e-02 2.12807188369604e-04
8.43789473684211e+00 1.88664264344618e-02 2.10241181446147e-04
8.53894736842105e+00 1.85269843739735e-02 2.07691217030244e-04
8.64000000000000e+00 1.81936495068074e-02 2.05157810509285e-04
8.74105263157895e+00 1.78663119528357e-02 2.02641442701809e-04
8.84210526315789e+00 1.75448638096322e-02 2.00142561559657e-04
8.94315789473684e+00 1.72291991157527e-02 1.97661583798788e-04
9.04421052631579e+00 1.69192138161958e-02 1.95198896159150e-04
9.14526315789474e+00 1.66148057281033e-02 1.92754856839699e-04
9.24631578947368e+00 1.63158745070768e-02 1.90329796858122e-04
9.34736842105263e+00 1.60223216137890e-02 1.87924021152406e-04
9.44842105263158e+00 1.57340502824507e-02 1.85537809874975e-04
9.54947368421053e+00 1.54509654879478e-02 1.83171419635895e-04
9.65052631578947e+00 1.51729739148445e-02 1.80825084434462e-04
9.75157894736842e+00 1.48999839266227e-02 1.78499016751971e-04
9.85263157894737e+00 1.46319055354762e-02 1.76193408545364e-04
9.95368421052632e+00 1.43686503726468e-02 1.73908432114630e-04
1.00547368421053e+01 1.41101316598005e-02 1.71644241546852e-04
1.01557894736842e+01 1.38562641771435e-02 1.69400972428457e-04
1.02568421052632e+01 1.36069642429167e-02 1.67178743333646e-04
1.03578947368421e+01 1.33621496783877e-02 1.64977657858729e-04
1.04589473684211e+01 1.31217397811013e-02 1.62797802968045e-04
1.05600000000000e+01 1.28856553052224e-02 1.60639250945269e-04
1.06610526315789e+01 1.26538184283399e-02 1.58502060889539e-04
1.07621052631579e+01 1.24261527282149e-02 1.56386278508082e-04
1.08631578947368e+01 1.22025831555618e-02 1.54291936118764e-04
1.09642105263158e+01 1.19830360154961e-02 1.52219053970086e-04
1.10652631578947e+01 1.17674389369430e-02 1.50167641873861e-04
1.11663157894737e+01 1.15557208490526e-02 1.48137697680508e-04
1.12673684210526e+01 1.13478119634752e-02 1.46129208854207e-04
1.13684210526316e+01 1.11436437455470e-02 1.44142153965904e-04
1.14694736842105e+01 1.09431488919502e-02 1.42176501236198e-04
1.15705263157895e+01 1.07462613137889e-02 1.40232209979369e-04
1.16715789473684e+01 1.05529161094407e-02 1.38309231970503e-04
1.17726315789474e+01 1.03630495433977e-02 1.36407510055346e-04
1.18736842105263e+01 1.01765990301119e-02 1.34526979475012e-04
1.19747368421053e+01 9.99350310841630e-03 1.32667569120326e-04
1.20757894736842e+01 9.81370142147679e-03 1.30829200207320e-04
1.21768421052632e+01 9.63713470138405e-03 1.29011787492872e-04
1.22778947368421e+01 9.46374474504677e-03 1.27215240427657e-04
1.23789473684211e+01 9.29347439519658e-03 1.25439461895351e-04
1.24800000000000e+01 9.12626752569783e-03 1.23684349329380e-04
1.25810526315789e+01 8.96206901882299e-03 1.21949795542696e-04
1.26821052631579e+01 8.80082474851603e-03 1.20235688457115e-04
1.27831578947368e+01 8.64248156133016e-03 1.18541910970978e-04
1.28842105263158e+01 8.48698726262812e-03 1.16868341693637e-04
1.29852631578947e+01 8.33429059559107e-03 1.15214855891138e-04
1.30863157894737e+01 8.18434122447791e-03 1.13581324374077e-04
1.31873684210526e+01 8.03708972147719e-03 1.11967614415018e-04
1.32884210526316e+01 7.89248754690824e-03 1.10373590619199e-04
1.33894736842105e+01 7.75048703336574e-03 1.08799113868421e-04
1.34905263157895e+01 7.61104137319632e-03 1.07244042167445e-04
1.35915789473684e+01 7.47410459982126e-03 1.05708231446275e-04
1.36926315789474e+01 7.33963157271954e-03 1.04191534557951e-04
1.37936842105263e+01 7.20757796550222e-03 1.02693802059544e-04
1.38947368421053e+01 7.07790024829283e-03 1.01214882952453e-04
1.39957894736842e+01 6.95055567350118e-03 9.97546237318279e-05
1.40968421052632e+01 6.82550226447236e-03 9.83128691071347e-05
1.41978947368421e+01 6.70269879886172e-03 9.68894626861504e-05
1.42989473684211e+01 6.58210479515824e-03 9.54842460736211e-05
1.44000000000000e+01 6.46368050188281e-03 9.40970595364841e-05
1.45010526315789e+01 6.34738688189962e-03 9.27277424837663e-05
1.46021052631579e+01 6.23318560042408e-03 9.13761332248055e-05
1.47031578947368e+01 6.12103901163475e-03 9.00420688188477e-05
1.48042105263158e+01 6.01091014855452e-03 8.87253854997588e-05
1.49052631578947e+01 5.90276270853634e-03 8.74259192431275e-05
1.50063157894737e+01 5.79656104138850e-03 8.61435049757027e-05
1.51073684210526e+01 5.69227013974945e-03 8.48779771274644e-05
1.52084210526316e+01 5.58985562538548e-03 8.36291701558549e-05
1.53094736842105e+01 5.48928373794445e-03 8.23969177968475e-05
1.54105263157895e+01 5.39052132580188e-03 8.11810535761738e-05
1.55115789473684e+01 5.29353583312371e-03 7.99814112941454e-05
1.56126315789474e+01 5.19829528921532e-03 7.87978243163994e-05
1.57136842105263e+01 5.10476829981697e-03 7.76301260472595e-05
1.58147368421053e+01 5.01292403488898e-03 7.64781503786123e-05
1.59157894736842e+01 4.92273221852265e-03 7.53417310183729e-05
1.60168421052632e+01 4.83416312066563e-03 7.42207019286373e-05
1.61178947368421e+01 4.74718754558774e-03 7.31148977417047e-05
1.62189473684211e+01 4.66177682232419e-03 7.20241531243068e-05
1.63200000000000e+01 4.57790279681093e-03 7.09483031833239e-05
1.64210526315789e+01 4.49553782099199e-03 6.98871837500185e-05
1.65221052631579e+01 4.41465474425165e-03 6.88406311859745e-05
1.66231578947368e+01 4.33522690399374e-03 6.78084822497674e-05
1.67242105263158e+01 4.25722811828719e-03 6.67905743479428e-05
1.68252631578947e+01 4.18063267577790e-03 6.57867458822096e-05
1.69263157894737e+01 4.10541532726924e-03 6.47968356928623e-05
1.70273684210526e+01 4.03155127873372e-03 6.38206833976170e-05
1.71284210526316e+01 3.95901618178321e-03 6.28581297133431e-05
1.72294736842105e+01 3.88778612569525e-03 6.19090159293130e-05
1.73305263157895e+01 3.81783763077342e-03 6.09731842216924e-05
1.74315789473684e+01 3.74914763934437e-03 6.00504779517641e-05
1.75326315789474e+01 3.68169350820630e-03 5.91407411674930e-05
1.76336842105263e+01 3.61545300232127e-03 5.82438188953531e-05
1.77347368421053e+01 3.55040428630988e-03 5.73595574170264e-05
1.78357894736842e+01 3.48652591729868e-03 5.64878037978067e-05
1.79368421052632e+01 3.42379683892903e-03 5.56284061572702e-05
1.80378947368421e+01 3.36219637332135e-03 5.47812139262185e-05
1.81389473684211e+01 3.30170421430027e-03 5.39460774004714e-05
1.82400000000000e+01 3.24230042170490e-03 5.31228479919800e-05
1.83410526315789e+01 3.18396541379605e-03 5.23113783994637e-05
1.84421052631579e+01 3.12667996114659e-03 5.15115224595458e-05
1.85431578947368e+01 3.07042518000378e-03 5.07231350385243e-05
1.86442105263158e+01 3.01518252697499e-03 4.99460721824737e-05
1.87452631578947e+01 2.96093379199034e-03 4.91801913325681e-05
1.88463157894737e+01 2.90766109233455e-03 4.84253509346251e-05
1.89473684210526e+01 2.85534686760092e-03 4.76814106496625e-05
1.90484210526316e+01 2.80397387304037e-03 4.69482315537436e-05
1.91494736842105e+01 2.75352517390948e-03 4.62256757685840e-05
1.92505263157895e+01 2.70398414067944e-03 4.55136066572629e-05
1.93515789473684e+01 2.65533444275009e-03 4.48118890097381e-05
1.94526315789474e+01 2.60756004309725e-03 4.41203886934188e-05
1.95536842105263e+01 2.56064519372419e-03 4.34389728350217e-05
1.96547368421053e+01 2.51457442972053e-03 4.27675099929194e-05
1.97557894736842e+01 2.46933256419261e-03 4.21058698266162e-05
1.98568421052632e+01 2.42490468394579e-03 4.14539232656402e-05
1.99578947368421e+01 2.38127614386906e-03 4.08115426697781e-05
2.00589473684211e+01 2.33843256213331e-03 4.01786015164195e-05
2.01600000000000e+01 2.29635981609321e-03 3.95549745574310e-05
2.02610526315789e+01 2.25504403697930e-03 3.89405379223131e-05
2.03621052631579e+01 2.21447160554714e-03 3.83351690066279e-05
2.04631578947368e+01 2.17462914739607e-03 3.77387463877614e-05
2.05642105263158e+01 2.13550352914473e-03 3.71511499151932e-05
2.06652631578947e+01 2.09708185350861e-03 3.65722608451284e-05
2.07663157894737e+01 2.05935145507033e-03 3.60019615668586e-05
2.08673684210526e+01 2.02229989665012e-03 3.54401357346368e-05
2.09684210526316e+01 1.98591496465207e-03 3.48866683927502e-05
2.10694736842105e+01 1.95018466505852e-03 3.43414457166713e-05
2.11705263157895e+01 1.91509721998562e-03 3.38043551357484e-05
2.12715789473684e+01 1.88064106328357e-03 3.32752854494145e-05
2.13726315789474e+01 1.84680483674310e-03 3.27541265823465e-05
2.14736842105263e+01 1.81357738682703e-03 3.22407696985665e-05
2.15747368421053e+01 1.78094776051041e-03 3.17351073094902e-05
2.16757894736842e+01 1.74890520168783e-03 3.12370330423431e-05
2.17768421052632e+01 1.71743914807207e-03 3.07464417462147e-05
2.18778947368421e+01 1.68653922726120e-03 3.02632295925844e-05
2.19789473684211e+01 1.65619525333576e-03 2.97872938562631e-05
2.20800000000000e+01 1.62639722391638e-03 2.93185330139759e-05
2.21810526315789e+01 1.59713531644511e-03 2.88568468068677e-05
2.22821052631579e+01 1.56839988509010e-03 2.84021361579754e-05
2.23831578947368e+01 1.54018145744180e-03 2.79543031081877e-05
2.24842105263158e+01 1.51247073176869e-03 2.75132508705757e-05
2.25852631578947e+01 1.48525857356714e-03 2.70788839149860e-05
2.26863157894737e+01 1.45853601256419e-03 2.66511077762427e-05
2.27873684210526e+01 1.43229424011414e-03 2.62298291371451e-05
2.28884210526316e+01 1.40652460593593e-03 2.58149559070961e-05
2.29894736842105e+01 1.38121861527468e-03 2.54063970406713e-05
2.30905263157895e+01 1.35636792643202e-03 2.50040626148747e-05
2.31915789473684e+01 1.33196434768065e-03 2.46078639022301e-05
2.32926315789474e+01 1.30799983457635e-03 2.42177131991657e-05
2.33936842105263e+01 1.28446648761512e-03 2.38335238978947e-05
2.34947368421053e+01 1.26135654931547e-03 2.34552105544032e-05
2.35957894736842e+01 1.23866240167257e-03 2.30826887261190e-05
2.36968421052632e+01 1.21637656393608e-03 2.27158750387528e-05
2.37978947368421e+01 1.19449168985079e-03 2.23546872495763e-05
2.38989473684211e+01 1.17300056524553e-03 2.19990440938630e-05
2.40000000000000e+01 1.15189610592545e-03 2.16488653470437e-05
2.41010526315789e+01 1.13117135506242e-03 2.13040718625219e-05
2.42021052631579e+01 1.11081948099461e-03 2.09645855111308e-05
2.43031578947368e+01 1.09083377489349e-03 2.06303291331460e-05
2.44042105263158e+01 1.07120764879901e-03 2.03012265708755e-05
2.45052631578947e+01 1.05193463319762e-03 1.99772027219478e-05
2.46063157894737e+01 1.03300837489858e-03 1.96581834047949e-05
2.47073684210526e+01 1.01442263517049e-03 1.93440954110204e-05
2.48084210526316e+01 9.96171287450508e-04 1.90348665549440e-05
2.49094736842105e+01 9.78248315333148e-04 1.87304255463456e-05
2.50105263157895e+01 9.60647810803044e-04 1.84307020392221e-05
2.51115789473684e+01 9.43363972068127e-04 1.81356266778500e-05
2.52126315789474e+01 9.26391101655034e-04 1.78451309764039e-05
2.53136842105263e+01 9.09723604733113e-04 1.75591473643318e-05
2.54147368421053e+01 8.93355987064936e-04 1.72776092292060e-05
2.55157894736842e+01 8.77282853202498e-04 1.70004508028447e-05
2.56168421052632e+01 8.61498904897914e-04 1.67276072035106e-05
2.57178947368421e+01 8.45998939164835e-04 1.64590144757990e-05
2.58189473684211e+01 8.30777846570116e-04 1.61946094829032e-05
2.59200000000000e+01 8.15830609726760e-04 1.59343299458588e-05
2.60210526315789e+01 8.01152301460194e-04 1.56781144663016e-05
2.61221052631579e+01 7.86738083244898e-04 1.54259024822937e-05
2.62231578947368e+01 7.72583203556236e-04 1.51776342327112e-05
2.63242105263158e+01 7.58682996466091e-04 1.49332507766427e-05
2.64252631578947e+01 7.45032879940512e-04 1.46926940269806e-05
2.65263157894737e+01 7.31628354335070e-04 1.44559066559992e-05
2.66273684210526e+01 7.18465001063222e-04 1.42228321284236e-05
2.67284210526316e+01 7.05538480985902e-04 1.39934147326605e-05
2.68294736842105e+01 6.92844532986602e-04 1.37675994914640e-05
2.69305263157895e+01 6.80378972708753e-04 1.35453321927240e-05
2.70315789473684e+01 6.68137691032245e-04 1.33265594184993e-05
2.71326315789474e+01 6.56116652724026e-04 1.31112284605008e-05
2.72336842105263e+01 6.44311895240926e-04 1.28992873487417e-05
2.73347368421053e+01 6.32719527288452e-04 1.26906848785450e-05
2.74357894736842e+01 6.21335727542812e-04 1.24853705305826e-05
2.75368421052632e+01 6.10156743515887e-04 1.22832944975180e-05
2.76378947368421e+01 5.99178890191799e-04 1.20844077091414e-05
2.77389473684211e+01 5.88398548816595e-04 1.18886617567156e-05
2.78400000000000e+01 5.77812165822164e-04 1.16960089177508e-05
2.79410526315789e+01 5.67416251536357e-04 1.15064021695725e-05
2.80421052631579e+01 5.57207379072728e-04 1.13197951572144e-05
2.81431578947368e+01 5.47182183165790e-04 1.11361421671664e-05
2.82442105263158e+01 5.37337359168536e-04 1.09553981387762e-05
2.83452631578947e+01 5.27669661854716e-04 1.07775186854046e-05
2.84463157894737e+01 5.18175904352845e-04 1.06024600280893e-05
2.85473684210526e+01 5.08852957195824e-04 1.04301790164097e-05
2.86484210526316e+01 4.99697747187737e-04 1.02606331481506e-05
2.87494736842105e+01 4.90707256394367e-04 1.00937805065322e-05
2.88505263157895e+01 4.81878521242205e-04 9.92957977963233e-06
2.89515789473684e+01 4.73208631446302e-04 9.76799027866095e-06
2.90526315789474e+01 4.64694729054267e-04 9.60897187856810e-06
2.91536842105263e+01 4.56334007592137e-04 9.45248503611199e-06
2.92547368421053e+01 4.48123711049985e-04 9.29849080685173e-06
2.93557894736842e+01 4.40061132976539e-04 9.14695078895181e-06
2.94568421052632e+01 4.32143615669514e-04 8.99782713997800e-06
2.95578947368421e+01 4.24368549215842e-04 8.85108259270671e-06
2.96589473684211e+01 4.16733370634235e-04 8.70668040194958e-06
2.97600000000000e+01 4.09235563107676e-04 8.56458436016677e-06
2.98610526315789e+01 4.01872655075322e-04 8.42475880544242e-06
2.99621052631579e+01 3.94642219444315e-04 8.28716859821154e-06
3.00631578947368e+01 3.87541872766434e-04 8.15177910200364e-06
3.01642105263158e+01 3.80569274523255e-04 8.01855619001625e-06
3.02652631578947e+01 3.73722126282780e-04 7.88746625840672e-06
3.03663157894737e+01 3.66998170944256e-04 7.75847617964396e-06
3.04673684210526e+01 3.60395192060571e-04 7.63155331564494e-06
3.05684210526316e+01 3.53911013040242e-04 7.50666553012116e-06
3.06694736842105e+01 3.47543496432253e-04 7.38378114443523e-06
3.07705263157895e+01 3.41290543283765e-04 7.26286894982238e-06
3.08715789473684e+01 3.35150092385011e-04 7.14389821885809e-06
3.09726315789474e+01 3.29120119592031e-04 7.02683866368589e-06
3.10736842105263e+01 3.23198637217868e-04 6.91166044738109e-06
3.11747368421053e+01 3.17383693318059e-04 6.79833419460817e-06
3.12757894736842e+01 3.11673371049248e-04 6.68683095209149e-06
3.13768421052632e+01 3.06065788092133e-04 6.57712219917320e-06
3.14778947368421e+01 3.00559095975377e-04 6.46917985772234e-06
3.15789473684211e+01 2.95151479468176e-04 6.36297625472602e-06
3.16800000000000e+01 2.89841156033331e-04 6.25848413209794e-06
3.17810526315789e+01 2.84626375187487e-04 6.15567665126955e-06
3.18821052631579e+01 2.79505417941747e-04 6.05452737635496e-06
