Energy (eV)          EEDF (eV^-(3/2))     First Anisotropy
1.25000000000000e-03 6.15327156055824e-01 4.01457971472333e-08
3.75000000000000e-03 6.15327126778584e-01 1.15768129066246e-07
6.25000000000000e-03 6.15327058462472e-01 2.71014867230992e-07
8.75000000000000e-03 6.15326949640758e-01 4.61438608301313e-07
1.12500000000000e-02 6.15326803338577e-01 6.79100541224492e-07
1.37500000000000e-02 6.15326618226846e-01 9.25856297118505e-07
1.62500000000000e-02 6.15326394270004e-01 1.18391093156178e-06
1.87500000000000e-02 6.15326136629242e-01 1.44085548575149e-06
2.12500000000000e-02 6.15325848145702e-01 1.69832084540800e-06
2.37500000000000e-02 6.15325531438628e-01 1.96091520473114e-06
2.62500000000000e-02 6.15325186600850e-01 2.23384792437264e-06
2.87500000000000e-02 6.15324813959851e-01 2.51531854346180e-06
3.12500000000000e-02 6.15324413938800e-01 2.79592471401904e-06
3.37500000000000e-02 6.15323989441224e-01 3.07760225656660e-06
3.62500000000000e-02 6.15323539866943e-01 3.37123364947515e-06
3.87500000000000e-02 6.15323064779228e-01 3.67584440648976e-06
4.12500000000000e-02 6.15322563863727e-01 3.99539876699905e-06
4.37500000000000e-02 6.15322035646852e-01 4.33202762879742e-06
4.62500000000000e-02 6.15321479362145e-01 4.68300683646641e-06
4.87500000000000e-02 6.15320894326030e-01 5.04790795390089e-06
5.12500000000000e-02 6.15320279919151e-01 5.41220143066906e-06
5.37500000000000e-02 6.15319638924492e-01 5.77526608157732e-06
5.62500000000000e-02 6.15318970675750e-01 6.15135214886658e-06
5.87500000000000e-02 6.15318274553076e-01 6.54025635789942e-06
6.12500000000000e-02 6.15317549972231e-01 6.94205873412538e-06
6.37500000000000e-02 6.15316796327744e-01 7.35743562353794e-06
6.62500000000000e-02 6.15316012922266e-01 7.78685593183570e-06
6.87500000000000e-02 6.15315199086019e-01 8.23024694429988e-06
7.12500000000000e-02 6.15314354170407e-01 8.66646048180289e-06
7.37500000000000e-02 6.15313481836111e-01 9.09423416799522e-06
7.62500000000000e-02 6.15312581520508e-01 9.53404826392144e-06
7.87500000000000e-02 6.15311652680276e-01 9.98584993510287e-06
8.12500000000000e-02 6.15310694788313e-01 1.04497128771854e-05
8.37500000000000e-02 6.15309707310776e-01 1.09259645993014e-05
8.62500000000000e-02 6.15308689681831e-01 1.14147598932609e-05
8.87500000000000e-02 6.15307641361130e-01 1.19159384525420e-05
9.12500000000000e-02 6.15306561832681e-01 1.24294325378035e-05
9.37500000000000e-02 6.15305450586809e-01 1.29554186283140e-05
9.62500000000000e-02 6.15304307093291e-01 1.34940433544303e-05
9.87500000000000e-02 6.15303130833136e-01 1.40453288976320e-05
1.01250000000000e-01 6.15301921288232e-01 1.45820372063148e-05
1.03750000000000e-01 6.15300682689156e-01 1.51015925781244e-05
1.06250000000000e-01 6.15299414821871e-01 1.56292531277893e-05
1.08750000000000e-01 6.15298117470271e-01 1.61650474801507e-05
1.11250000000000e-01 6.15296790415322e-01 1.67090099596990e-05
1.13750000000000e-01 6.15295433435252e-01 1.72611742568936e-05
1.16250000000000e-01 6.15294046305723e-01 1.78215735215831e-05
1.18750000000000e-01 6.15292628799980e-01 1.83902404359631e-05
1.21250000000000e-01 6.15291180688982e-01 1.89672072871953e-05
1.23750000000000e-01 6.15289701741525e-01 1.95525060270699e-05
1.26250000000000e-01 6.15288191724342e-01 2.01461683216179e-05
1.28750000000000e-01 6.15286650402198e-01 2.07482256097106e-05
1.31250000000000e-01 6.15285077537969e-01 2.13587091346318e-05
1.33750000000000e-01 6.15283472892721e-01 2.19776499855069e-05
1.36250000000000e-01 6.15281836225773e-01 2.26050791238162e-05
1.38750000000000e-01 6.15280167294752e-01 2.32410274199265e-05
1.41250000000000e-01 6.15278465855652e-01 2.38855256801167e-05
1.43750000000000e-01 6.15276731662874e-01 2.45386046573512e-05
1.46250000000000e-01 6.15274964469271e-01 2.52002950811310e-05
1.48750000000000e-01 6.15273164026184e-01 2.58706276737667e-05
1.51250000000000e-01 6.15271330083476e-01 2.65496331574066e-05
1.53750000000000e-01 6.15269462389561e-01 2.72373422709768e-05
1.56250000000000e-01 6.15267560691431e-01 2.79337857972122e-05
1.58750000000000e-01 6.15265624734678e-01 2.86389945584375e-05
1.61250000000000e-01 6.15263654263517e-01 2.93529994242930e-05
1.63750000000000e-01 6.15261649020802e-01 3.00758313202372e-05
1.66250000000000e-01 6.15259608748048e-01 3.08075212374757e-05
1.68750000000000e-01 6.15257533185438e-01 3.15481002298838e-05
1.71250000000000e-01 6.15255422071847e-01 3.22975989126054e-05
1.73750000000000e-01 6.15253275144912e-01 3.30560446634097e-05
1.76250000000000e-01 6.15251092141417e-01 3.38234578076792e-05
1.78750000000000e-01 6.15248872797847e-01 3.45998430243426e-05
1.81250000000000e-01 6.15246616851861e-01 3.53851778249199e-05
1.83750000000000e-01 6.15244324044269e-01 3.61793772027405e-05
1.86250000000000e-01 6.15241994124934e-01 3.69822768388085e-05
1.88750000000000e-01 6.15239626856649e-01 3.77936551864210e-05
1.91250000000000e-01 6.15237222017952e-01 3.86132608425340e-05
1.93750000000000e-01 6.15234779403361e-01 3.94408470713074e-05
1.96250000000000e-01 6.15232298821775e-01 4.02762202599621e-05
1.98750000000000e-01 6.15229780090708e-01 4.11192869794963e-05
2.01250000000000e-01 6.15227223029124e-01 4.19149337258063e-05
2.03750000000000e-01 6.15224634665290e-01 4.26611831427275e-05
2.06250000000000e-01 6.15222014973190e-01 4.34116056730225e-05
2.08750000000000e-01 6.15219363926421e-01 4.41661765413061e-05
2.11250000000000e-01 6.15216681498378e-01 4.49248701301647e-05
2.13750000000000e-01 6.15213967662238e-01 4.56876616932123e-05
2.16250000000000e-01 6.15211222390931e-01 4.64545273015212e-05
2.18750000000000e-01 6.15208445657131e-01 4.72254438132363e-05
2.21250000000000e-01 6.15205637433233e-01 4.80003888625460e-05
2.23750000000000e-01 6.15202797691339e-01 4.87793408250853e-05
2.26250000000000e-01 6.15199926403242e-01 4.95622787875276e-05
2.28750000000000e-01 6.15197023540413e-01 5.03491825416439e-05
2.31250000000000e-01 6.15194089073990e-01 5.11400325574862e-05
2.33750000000000e-01 6.15191122974761e-01 5.19348099475424e-05
2.36250000000000e-01 6.15188125213158e-01 5.27334964701453e-05
2.38750000000000e-01 6.15185095759244e-01 5.35360744973207e-05
2.41250000000000e-01 6.15182034582703e-01 5.43425270105966e-05
2.43750000000000e-01 6.15178941652829e-01 5.51528375705334e-05
2.46250000000000e-01 6.15175816938522e-01 5.59669902878138e-05
2.48750000000000e-01 6.15172660408276e-01 5.67849698446449e-05
2.51250000000000e-01 6.15169472030172e-01 5.76067614522675e-05
2.53750000000000e-01 6.15166251771874e-01 5.84323508337834e-05
2.56250000000000e-01 6.15162999600618e-01 5.92617242290697e-05
2.58750000000000e-01 6.15159715483208e-01 6.00948683648151e-05
2.61250000000000e-01 6.15156399386013e-01 6.09317704403924e-05
2.63750000000000e-01 6.15153051274957e-01 6.17724181290262e-05
2.66250000000000e-01 6.15149671115516e-01 6.26167995568198e-05
2.68750000000000e-01 6.15146258872714e-01 6.34649032809819e-05
2.71250000000000e-01 6.15142814511120e-01 6.43167181307277e-05
2.73750000000000e-01 6.15139337994860e-01 6.51722322762169e-05
2.76250000000000e-01 6.15135829287710e-01 6.60314320041935e-05
2.78750000000000e-01 6.15132288353242e-01 6.68942989179984e-05
2.81250000000000e-01 6.15128715155213e-01 6.77608061407175e-05
2.83750000000000e-01 6.15125109658098e-01 6.86309065780042e-05
2.86250000000000e-01 6.15121471828711e-01 6.95045275189759e-05
2.88750000000000e-01 6.15117801637264e-01 7.03815781163672e-05
2.91250000000000e-01 6.15114099058148e-01 7.12619586375538e-05
2.93750000000000e-01 6.15110364069976e-01 7.21455717345617e-05
2.96250000000000e-01 6.15106596655171e-01 7.30323392481659e-05
2.98750000000000e-01 6.15102796798256e-01 7.39222179948431e-05
3.01250000000000e-01 6.15098964483860e-01 7.47995403928230e-05
3.03750000000000e-01 6.15095101699242e-01 7.57147180506344e-05
3.06250000000000e-01 6.15091203256109e-01 7.67321212673042e-05
3.08750000000000e-01 6.15087264214755e-01 7.78479966314877e-05
3.11250000000000e-01 6.15083279873957e-01 7.90587057126076e-05
3.13750000000000e-01 6.15079245761409e-01 8.03607202109809e-05
3.16250000000000e-01 6.15075157624572e-01 8.17506181936313e-05
3.18750000000000e-01 6.15071011421921e-01 8.32250805000839e-05
3.21250000000000e-01 6.15066803314557e-01 8.47808872534598e-05
3.23750000000000e-01 6.15062529658197e-01 8.64149145343549e-05
3.26250000000000e-01 6.15058186995482e-01 8.81241312032147e-05
3.28750000000000e-01 6.15053772048627e-01 8.99055958031508e-05
3.31250000000000e-01 6.15049281712371e-01 9.17564536009078e-05
3.33750000000000e-01 6.15044713047224e-01 9.36739337580788e-05
3.36250000000000e-01 6.15040063272997e-01 9.56553465661725e-05
3.38750000000000e-01 6.15035329762595e-01 9.76980808029363e-05
3.41250000000000e-01 6.15030510036073e-01 9.97996012125480e-05
3.43750000000000e-01 6.15025601754931e-01 1.01957446029619e-04
3.46250000000000e-01 6.15020602716643e-01 1.04169224618093e-04
3.48750000000000e-01 6.15015510849412e-01 1.06432615214768e-04
3.51250000000000e-01 6.15010324207133e-01 1.08745362716920e-04
3.53750000000000e-01 6.15005040964562e-01 1.11105276551177e-04
3.56250000000000e-01 6.14999659412681e-01 1.13510228654410e-04
3.58750000000000e-01 6.14994177954243e-01 1.15958151487310e-04
3.61250000000000e-01 6.14988595099503e-01 1.18447036123997e-04
3.63750000000000e-01 6.14982909462113e-01 1.20974930431369e-04
3.66250000000000e-01 6.14977119755181e-01 1.23539937280322e-04
3.68750000000000e-01 6.14971224787484e-01 1.26140212829857e-04
3.71250000000000e-01 6.14965223459840e-01 1.28773964790315e-04
3.73750000000000e-01 6.14959114761613e-01 1.31439450392036e-04
3.76250000000000e-01 6.14952897767407e-01 1.34134974224399e-04
3.78750000000000e-01 6.14946571633898e-01 1.36858885287274e-04
3.81250000000000e-01 6.14940135596918e-01 1.39609573676509e-04
3.83750000000000e-01 6.14933588968709e-01 1.42385463479159e-04
3.86250000000000e-01 6.14926931135768e-01 1.45185009086274e-04
3.88750000000000e-01 6.14920161556532e-01 1.48006697251207e-04
3.91250000000000e-01 6.14913279759106e-01 1.50849050590848e-04
3.93750000000000e-01 6.14906285338699e-01 1.53710632983850e-04
3.96250000000000e-01 6.14899177954924e-01 1.56590056413966e-04
3.98750000000000e-01 6.14891957328682e-01 1.59485986774432e-04
4.01250000000000e-01 6.14884623239035e-01 1.62337587921863e-04
4.03750000000000e-01 6.14877181874921e-01 1.65201122267906e-04
4.06250000000000e-01 6.14869627910872e-01 1.68190761668851e-04
4.08750000000000e-01 6.14861956277590e-01 1.71301797158015e-04
4.11250000000000e-01 6.14854162152401e-01 1.74529661820207e-04
4.13750000000000e-01 6.14846240950061e-01 1.77869926752760e-04
4.16250000000000e-01 6.14838188313882e-01 1.81318297154169e-04
4.18750000000000e-01 6.14830000107178e-01 1.84870608528406e-04
4.21250000000000e-01 6.14821672405020e-01 1.88522823016133e-04
4.23750000000000e-01 6.14813201486276e-01 1.92271025856429e-04
4.26250000000000e-01 6.14804583825938e-01 1.96111421938637e-04
4.28750000000000e-01 6.14795816087718e-01 2.00040332481906e-04
4.31250000000000e-01 6.14786895116902e-01 2.04054191801232e-04
4.33750000000000e-01 6.14777817933460e-01 2.08149544175761e-04
4.36250000000000e-01 6.14768581725386e-01 2.12323040826369e-04
4.38750000000000e-01 6.14759183842286e-01 2.16571436958694e-04
4.41250000000000e-01 6.14749621789176e-01 2.20891588927204e-04
4.43750000000000e-01 6.14739893220499e-01 2.25280451450557e-04
4.46250000000000e-01 6.14729995934352e-01 2.29735074913058e-04
4.48750000000000e-01 6.14719927866914e-01 2.34252602796426e-04
4.51250000000000e-01 6.14709687087055e-01 2.38830269127646e-04
4.53750000000000e-01 6.14699271791146e-01 2.43465396016718e-04
4.56250000000000e-01 6.14688680298036e-01 2.48155391287181e-04
4.58750000000000e-01 6.14677911044207e-01 2.52897746162125e-04
4.61250000000000e-01 6.14666962579090e-01 2.57690033023251e-04
4.63750000000000e-01 6.14655833560547e-01 2.62529903224420e-04
4.66250000000000e-01 6.14644522750499e-01 2.67415084983585e-04
4.68750000000000e-01 6.14633029010714e-01 2.72343381333405e-04
4.71250000000000e-01 6.14621351298724e-01 2.77312668046583e-04
4.73750000000000e-01 6.14609488663899e-01 2.82320891459624e-04
4.76250000000000e-01 6.14597440243662e-01 2.87366066253418e-04
4.78750000000000e-01 6.14585205259850e-01 2.92446272774385e-04
4.81250000000000e-01 6.14572783015255e-01 2.97559654158014e-04
4.83750000000000e-01 6.14560172890322e-01 3.02704411082624e-04
4.86250000000000e-01 6.14547374340226e-01 3.07878798681494e-04
4.88750000000000e-01 6.14534386891907e-01 3.13081127154658e-04
4.91250000000000e-01 6.14521210141167e-01 3.18309763911916e-04
4.93750000000000e-01 6.14507843749586e-01 3.23563135170896e-04
4.96250000000000e-01 6.14494287441560e-01 3.28839730045549e-04
4.98750000000000e-01 6.14480541000928e-01 3.34138103302292e-04
5.01250000000000e-01 6.14466604267862e-01 3.39396122030274e-04
5.03750000000000e-01 6.14452482879823e-01 3.44621522515394e-04
5.06250000000000e-01 6.14438176034883e-01 3.49882271562274e-04
5.08750000000000e-01 6.14423683032598e-01 3.55175986819154e-04
5.11250000000000e-01 6.14409003270308e-01 3.60500354488050e-04
5.13750000000000e-01 6.14394136239512e-01 3.65853128382683e-04
5.16250000000000e-01 6.14379081522337e-01 3.71232128316506e-04
5.18750000000000e-01 6.14363838788127e-01 3.76635238530395e-04
5.21250000000000e-01 6.14348407790129e-01 3.82060406193207e-04
5.23750000000000e-01 6.14332788362288e-01 3.87505639914489e-04
5.26250000000000e-01 6.14316980416125e-01 3.92969008282950e-04
5.28750000000000e-01 6.14300983937731e-01 3.98448638465139e-04
5.31250000000000e-01 6.14284798984829e-01 4.03942714849689e-04
5.33750000000000e-01 6.14268425683946e-01 4.09449477691845e-04
5.36250000000000e-01 6.14251864227656e-01 4.14967221825583e-04
5.38750000000000e-01 6.14235114871912e-01 4.20494295364823e-04
5.41250000000000e-01 6.14218177933463e-01 4.26029098463873e-04
5.43750000000000e-01 6.14201053787341e-01 4.31570082130414e-04
5.46250000000000e-01 6.14183742864428e-01 4.37115747011713e-04
5.48750000000000e-01 6.14166245649100e-01 4.42664642241039e-04
5.51250000000000e-01 6.14148562676938e-01 4.48215364334678e-04
5.53750000000000e-01 6.14130694532507e-01 4.53766556055393e-04
5.56250000000000e-01 6.14112641847209e-01 4.59316905347918e-04
5.58750000000000e-01 6.14094405297192e-01 4.64865144314358e-04
5.61250000000000e-01 6.14075985601333e-01 4.70410048144587e-04
5.63750000000000e-01 6.14057383519270e-01 4.75950434141573e-04
5.66250000000000e-01 6.14038599849506e-01 4.81485160748591e-04
5.68750000000000e-01 6.14019635427560e-01 4.87013126572244e-04
5.71250000000000e-01 6.14000491124181e-01 4.92533269422578e-04
5.73750000000000e-01 6.13981167843617e-01 4.98044565233704e-04
5.76250000000000e-01 6.13961666521947e-01 5.03546026913752e-04
5.78750000000000e-01 6.13941988125475e-01 5.09036702848636e-04
5.81250000000000e-01 6.13922133649214e-01 5.14515675297261e-04
5.83750000000000e-01 6.13902104115434e-01 5.19982057208151e-04
5.86250000000000e-01 6.13881900572434e-01 5.25434991136116e-04
5.88750000000000e-01 6.13861524093191e-01 5.30873650055851e-04
5.91250000000000e-01 6.13840975774090e-01 5.36297237756390e-04
5.93750000000000e-01 6.13820256733571e-01 5.41704990812873e-04
5.96250000000000e-01 6.13799368110708e-01 5.47096183075577e-04
5.98750000000000e-01 6.13778311063511e-01 5.52470125507998e-04
6.01250000000000e-01 6.13757086767578e-01 5.57985312566257e-04
6.03750000000000e-01 6.13735684256943e-01 5.63952128279196e-04
6.06250000000000e-01 6.13714081086905e-01 5.70511622609579e-04
6.08750000000000e-01 6.13692255728688e-01 5.77643083600188e-04
6.11250000000000e-01 6.13670187540828e-01 5.85326358181794e-04
6.13750000000000e-01 6.13647856741466e-01 5.93541836824234e-04
6.16250000000000e-01 6.13625244381485e-01 6.02270439196443e-04
6.18750000000000e-01 6.13602332318453e-01 6.11493600198627e-04
6.21250000000000e-01 6.13579103191368e-01 6.21193256426388e-04
6.23750000000000e-01 6.13555540396154e-01 6.31351832992855e-04
6.26250000000000e-01 6.13531628061900e-01 6.41952230685249e-04
6.28750000000000e-01 6.13507351027816e-01 6.52977813491020e-04
6.31250000000000e-01 6.13482694820884e-01 6.64412396420559e-04
6.33750000000000e-01 6.13457645634181e-01 6.76240233689015e-04
6.36250000000000e-01 6.13432190305856e-01 6.88446007168444e-04
6.38750000000000e-01 6.13406316298742e-01 7.01014815140941e-04
6.41250000000000e-01 6.13380011680578e-01 7.13932161388041e-04
6.43750000000000e-01 6.13353265104830e-01 7.27183944515785e-04
6.46250000000000e-01 6.13326065792091e-01 7.40756447564654e-04
6.48750000000000e-01 6.13298403512034e-01 7.54636327903045e-04
6.51250000000000e-01 6.13270268565923e-01 7.68810607375611e-04
6.53750000000000e-01 6.13241651769634e-01 7.83266662704410e-04
6.56250000000000e-01 6.13212544437198e-01 7.97992216122453e-04
6.58750000000000e-01 6.13182938364842e-01 8.12975326273235e-04
6.61250000000000e-01 6.13152825815504e-01 8.28204379354099e-04
6.63750000000000e-01 6.13122199503820e-01 8.43668080432313e-04
6.66250000000000e-01 6.13091052581561e-01 8.59355445028725e-04
6.68750000000000e-01 6.13059378623514e-01 8.75255790910368e-04
6.71250000000000e-01 6.13027171613788e-01 8.91358730047902e-04
6.73750000000000e-01 6.12994425932533e-01 9.07654160696833e-04
6.76250000000000e-01 6.12961136343072e-01 9.24132259618919e-04
6.78750000000000e-01 6.12927297979430e-01 9.40783474245199e-04
6.81250000000000e-01 6.12892906334264e-01 9.57598514914588e-04
6.83750000000000e-01 6.12857957247177e-01 9.74568346133250e-04
6.86250000000000e-01 6.12822446893504e-01 9.91684178964348e-04
6.88750000000000e-01 6.12786371773383e-01 1.00893746496349e-03
6.91250000000000e-01 6.12749728701168e-01 1.02631989378915e-03
6.93750000000000e-01 6.12712514794827e-01 1.04382338810074e-03
6.96250000000000e-01 6.12674727465922e-01 1.06144009702168e-03
6.98750000000000e-01 6.12636364409668e-01 1.07916239383233e-03
7.01250000000000e-01 6.12597423595211e-01 1.09719449814771e-03
7.03750000000000e-01 6.12557888805891e-01 1.11606013331856e-03
7.06250000000000e-01 6.12517720718704e-01 1.13605562379543e-03
7.08750000000000e-01 6.12476881558694e-01 1.15714282856447e-03
7.11250000000000e-01 6.12435335058237e-01 1.17928445766360e-03
7.13750000000000e-01 6.12393046417272e-01 1.20244405510504e-03
7.16250000000000e-01 6.12349982264525e-01 1.22658598116455e-03
7.18750000000000e-01 6.12306110619694e-01 1.25167539511623e-03
7.21250000000000e-01 6.12261400856578e-01 1.27767823830763e-03
7.23750000000000e-01 6.12215823667119e-01 1.30456121762712e-03
7.26250000000000e-01 6.12169351026340e-01 1.33229178932167e-03
7.28750000000000e-01 6.12121956158147e-01 1.36083814309197e-03
7.31250000000000e-01 6.12073613501994e-01 1.39016918654307e-03
7.33750000000000e-01 6.12024298680364e-01 1.42025452994075e-03
7.36250000000000e-01 6.11973988467065e-01 1.45106447125657e-03
7.38750000000000e-01 6.11922660756318e-01 1.48256998151591e-03
7.41250000000000e-01 6.11870294532614e-01 1.51474269042200e-03
7.43750000000000e-01 6.11816869841321e-01 1.54755487226799e-03
7.46250000000000e-01 6.11762367760028e-01 1.58097943212081e-03
7.48750000000000e-01 6.11706770370608e-01 1.61498989225987e-03
7.51250000000000e-01 6.11650060731979e-01 1.64956037892217e-03
7.53750000000000e-01 6.11592222853545e-01 1.68466560926668e-03
7.56250000000000e-01 6.11533241669309e-01 1.72028087857036e-03
7.58750000000000e-01 6.11473103012637e-01 1.75638204775211e-03
7.61250000000000e-01 6.11411793591654e-01 1.79294553105790e-03
7.63750000000000e-01 6.11349300965262e-01 1.82994828401696e-03
7.66250000000000e-01 6.11285613519770e-01 1.86736779166076e-03
7.68750000000000e-01 6.11220720446101e-01 1.90518205690003e-03
7.71250000000000e-01 6.11154611717597e-01 1.94336958913757e-03
7.73750000000000e-01 6.11087278068371e-01 1.98190939303591e-03
7.76250000000000e-01 6.11018710972228e-01 2.02078095737364e-03
7.78750000000000e-01 6.10948902622131e-01 2.05996424377935e-03
7.81250000000000e-01 6.10877845910218e-01 2.09943967561282e-03
7.83750000000000e-01 6.10805534408353e-01 2.13918812558317e-03
7.86250000000000e-01 6.10731962349310e-01 2.17919090602466e-03
7.88750000000000e-01 6.10657124608278e-01 2.21942976002668e-03
