Energy (eV)          EEDF (eV^-(3/2))     First Anisotropy
3.34313725490196e-02 3.62375612158148e-02 1.90368053701799e-05
1.00294117647059e-01 3.59930300416614e-02 3.14347917634452e-05
1.67156862745098e-01 3.57501489649390e-02 4.14964681947366e-05
2.34019607843137e-01 3.55089068505007e-02 4.91397841318785e-05
3.00882352941176e-01 3.52692926386067e-02 5.55138941229462e-05
3.67745098039216e-01 3.50312953441583e-02 6.10531952618570e-05
4.34607843137255e-01 3.47949040556048e-02 6.59824473655780e-05
5.01470588235294e-01 3.45601079362923e-02 7.04373519720919e-05
5.68333333333333e-01 3.43268962219850e-02 7.45078928065443e-05
6.35196078431373e-01 3.40952582210947e-02 7.82576571874030e-05
7.02058823529412e-01 3.38651833141861e-02 8.17337074008393e-05
7.68921568627451e-01 3.36366609534843e-02 8.49721267440821e-05
8.35784313725490e-01 3.34096806623966e-02 8.80013630546304e-05
9.02647058823529e-01 3.31842320350288e-02 9.08443575021269e-05
9.69509803921569e-01 3.29603047357062e-02 9.35199605174229e-05
1.03637254901961e+00 3.27378884975822e-02 9.60439073084086e-05
1.10323529411765e+00 3.25169731260411e-02 9.84295116159506e-05
1.17009803921569e+00 3.22975484911270e-02 1.00688170105442e-04
1.23696078431373e+00 3.20796045352957e-02 1.02829738352864e-04
1.30382352941176e+00 3.18631312650875e-02 1.04862816096721e-04
1.37068627450980e+00 3.16481187580252e-02 1.06794967190168e-04
1.43754901960784e+00 3.14345571552559e-02 1.08632891945878e-04
1.50441176470588e+00 3.12224366675963e-02 1.10382563745823e-04
1.57127450980392e+00 3.10117475689517e-02 1.12049338822034e-04
1.63813725490196e+00 3.08024802016723e-02 1.13638045227277e-04
1.70500000000000e+00 3.05946249706077e-02 1.15153055829010e-04
1.77186274509804e+00 3.03881723478962e-02 1.16598348550347e-04
1.83872549019608e+00 3.01831128675493e-02 1.17977556658350e-04
1.90558823529412e+00 2.99794371297663e-02 1.19294010897164e-04
1.97245098039216e+00 2.97771357959669e-02 1.20550775184595e-04
2.03931372549020e+00 2.95761995927029e-02 1.21750676901803e-04
2.10617647058824e+00 2.93766193070760e-02 1.22896332887141e-04
2.17303921568627e+00 2.91783857903024e-02 1.23990171731654e-04
2.23990196078431e+00 2.89814899534646e-02 1.25034453129648e-04
2.30676470588235e+00 2.87859227707759e-02 1.26031284629597e-04
2.37362745098039e+00 2.85916752756238e-02 1.26982636319475e-04
2.44049019607843e+00 2.83987385635716e-02 1.27890353640038e-04
2.50735294117647e+00 2.82071037886600e-02 1.28756168720406e-04
2.57421568627451e+00 2.80167621661763e-02 1.29581710336161e-04
2.64107843137255e+00 2.78277049691856e-02 1.30368512792182e-04
2.70794117647059e+00 2.76399235310943e-02 1.31118023771889e-04
2.77480392156863e+00 2.74534092423862e-02 1.31831611392539e-04
2.84166666666667e+00 2.72681535530024e-02 1.32510570471050e-04
2.90852941176471e+00 2.70841479692618e-02 1.33156128196156e-04
2.97539215686275e+00 2.69013840560766e-02 1.33769449187635e-04
3.04225490196078e+00 2.67198534340395e-02 1.34351640106800e-04
3.10911764705882e+00 2.65395477814904e-02 1.34903753783917e-04
3.17598039215686e+00 2.63604588317557e-02 1.35426793003377e-04
3.24284313725490e+00 2.61825783750802e-02 1.35921713902709e-04
3.30970588235294e+00 2.60058982560052e-02 1.36389429108695e-04
3.37656862745098e+00 2.58304103751775e-02 1.36830810560665e-04
3.44343137254902e+00 2.56561066868551e-02 1.37246692227979e-04
3.51029411764706e+00 2.54829792001092e-02 1.37637872083867e-04
3.57715686274510e+00 2.53110199784296e-02 1.38005114892648e-04
3.64401960784314e+00 2.51402211378708e-02 1.38349153830080e-04
3.71088235294118e+00 2.49705748486533e-02 1.38670692420370e-04
3.77774509803922e+00 2.48020733328929e-02 1.38970406263923e-04
3.84460784313726e+00 2.46347088661067e-02 1.39248944599457e-04
3.91147058823529e+00 2.44684737750434e-02 1.39506931783450e-04
3.97833333333333e+00 2.43033604391021e-02 1.39744968628476e-04
4.04519607843137e+00 2.41393612882558e-02 1.39963633677574e-04
4.11205882352941e+00 2.39764688043896e-02 1.40163484357215e-04
4.17892156862745e+00 2.38146755193110e-02 1.40345058081103e-04
4.24578431372549e+00 2.36539740160137e-02 1.40508873248678e-04
4.31264705882353e+00 2.34943569267690e-02 1.40655430206096e-04
4.37950980392157e+00 2.33358169343203e-02 1.40785212115134e-04
4.44637254901961e+00 2.31783467700504e-02 1.40898685793963e-04
4.51323529411765e+00 2.30219392151117e-02 1.40996302476667e-04
4.58009803921569e+00 2.28665870986645e-02 1.41078498552176e-04
4.64696078431373e+00 2.27122832989473e-02 1.41145696231080e-04
4.71382352941176e+00 2.25590207415820e-02 1.41198304197837e-04
4.78068627450980e+00 2.24067924005883e-02 1.41236718198485e-04
4.84754901960784e+00 2.22555912967512e-02 1.41261321618658e-04
4.91441176470588e+00 2.21054104985839e-02 1.41272486003556e-04
4.98127450980392e+00 2.19562431207543e-02 1.41270571572163e-04
5.04813725490196e+00 2.18080823249986e-02 1.41255927678935e-04
5.11500000000000e+00 2.16609213186040e-02 1.41228893272916e-04
5.18186274509804e+00 2.15147533552765e-02 1.41189797308996e-04
5.24872549019608e+00 2.13695717336763e-02 1.41138959159285e-04
5.31558823529412e+00 2.12253697982428e-02 1.41076688980633e-04
5.38245098039216e+00 2.10821409377795e-02 1.41003288084376e-04
5.44931372549020e+00 2.09398785862394e-02 1.40919049265804e-04
5.51617647058824e+00 2.07985762213563e-02 1.40824257137503e-04
5.58303921568627e+00 2.06582273653931e-02 1.40719188425511e-04
5.64990196078431e+00 2.05188255838177e-02 1.40604112270787e-04
5.71676470588235e+00 2.03803644860153e-02 1.40479290496123e-04
5.78362745098039e+00 2.02428377240073e-02 1.40344977879517e-04
5.85049019607843e+00 2.01062389931298e-02 1.40201422395386e-04
5.91735294117647e+00 1.99705620307932e-02 1.40048865463132e-04
5.98421568627451e+00 1.98358006171289e-02 1.39887542165609e-04
6.05107843137255e+00 1.97019485737874e-02 1.39717681475738e-04
6.11794117647059e+00 1.95689997645549e-02 1.39539506454876e-04
6.18480392156863e+00 1.94369480941888e-02 1.39353234459843e-04
6.25166666666667e+00 1.93057875090055e-02 1.39159077323491e-04
6.31852941176471e+00 1.91755119957508e-02 1.38957241544296e-04
6.38539215686275e+00 1.90461155821614e-02 1.38747928450977e-04
6.45225490196078e+00 1.89175923358689e-02 1.38531334376581e-04
6.51911764705882e+00 1.87899363649352e-02 1.38307650808878e-04
6.58598039215686e+00 1.86631418167893e-02 1.38077064550513e-04
6.65284313725490e+00 1.85372028787385e-02 1.37839757856698e-04
6.71970588235294e+00 1.84121137769354e-02 1.37595908582794e-04
6.78656862745098e+00 1.82878687768670e-02 1.37345690310609e-04
6.85343137254902e+00 1.81644621823506e-02 1.37089272533680e-04
6.92029411764706e+00 1.80418883358246e-02 1.36826820577189e-04
6.98715686274510e+00 1.79201416180811e-02 1.36558496016931e-04
7.05401960784314e+00 1.77992164474773e-02 1.36284456596608e-04
7.12088235294118e+00 1.76791072803828e-02 1.36004856381347e-04
7.18774509803922e+00 1.75598086102339e-02 1.35719845870501e-04
7.25460784313726e+00 1.74413149679613e-02 1.35429572092050e-04
7.32147058823529e+00 1.73236209210704e-02 1.35134178707436e-04
7.38833333333333e+00 1.72067210740504e-02 1.34833806098796e-04
7.45519607843137e+00 1.70906100674794e-02 1.34528591466561e-04
7.52205882352941e+00 1.69752825784157e-02 1.34218668910135e-04
7.58892156862745e+00 1.68607333195270e-02 1.33904169518883e-04
7.65578431372549e+00 1.67469570394650e-02 1.33585221446900e-04
7.72264705882353e+00 1.66339485220171e-02 1.33261949997978e-04
7.78950980392157e+00 1.65217025864656e-02 1.32934477694971e-04
7.85637254901961e+00 1.64102140867609e-02 1.32602924359217e-04
7.92323529411765e+00 1.62994779118658e-02 1.32267407174990e-04
7.99009803921569e+00 1.61894889849502e-02 1.31928040763874e-04
8.05696078431373e+00 1.60802422637201e-02 1.31584937244691e-04
8.12382352941176e+00 1.59717327396336e-02 1.31238206303267e-04
8.19068627450980e+00 1.58639554382157e-02 1.30887955248210e-04
8.25754901960784e+00 1.57569054182939e-02 1.30534289076401e-04
8.32441176470588e+00 1.56505777723001e-02 1.30177310525007e-04
8.39127450980392e+00 1.55449676255251e-02 1.29817120133047e-04
8.45813725490196e+00 1.54400701364075e-02 1.29453816289929e-04
8.52500000000000e+00 1.53358804958076e-02 1.29087495293381e-04
8.59186274509804e+00 1.52323939272833e-02 1.28718251394807e-04
8.65872549019608e+00 1.51296056863819e-02 1.28346176853862e-04
8.72558823529412e+00 1.50275110609048e-02 1.27971361980866e-04
8.79245098039216e+00 1.49261053702162e-02 1.27593895188299e-04
8.85931372549020e+00 1.48253839654971e-02 1.27213863030490e-04
8.92617647058823e+00 1.47253422290704e-02 1.26831350252245e-04
8.99303921568628e+00 1.46259755746438e-02 1.26446439826025e-04
9.05990196078431e+00 1.45272794466521e-02 1.26059212997919e-04
9.12676470588235e+00 1.44292493204890e-02 1.25669749322525e-04
9.19362745098039e+00 1.43318807018654e-02 1.25278126706426e-04
9.26049019607843e+00 1.42351691270317e-02 1.24884421440933e-04
9.32735294117647e+00 1.41391101621504e-02 1.24488708243276e-04
9.39421568627451e+00 1.40436994035100e-02 1.24091060287347e-04
9.46107843137255e+00 1.39489324769118e-02 1.23691549242762e-04
9.52794117647059e+00 1.38548050378748e-02 1.23290245303765e-04
9.59480392156863e+00 1.37613127710367e-02 1.22887217226270e-04
9.66166666666667e+00 1.36684513903504e-02 1.22482532355075e-04
9.72852941176471e+00 1.35762166384987e-02 1.22076256659041e-04
9.79539215686274e+00 1.34846042870824e-02 1.21668454756696e-04
9.86225490196079e+00 1.33936101360486e-02 1.21259189949699e-04
9.92911764705882e+00 1.33032300138708e-02 1.20848524246956e-04
9.99598039215686e+00 1.32134597769900e-02 1.20436518514929e-04
1.00628431372549e+01 1.31242953096327e-02 1.20023231996543e-04
1.01297058823529e+01 1.30357325247728e-02 1.19608723196423e-04
1.01965686274510e+01 1.29477673613813e-02 1.19193049179932e-04
1.02634313725490e+01 1.28603957875717e-02 1.18776265611072e-04
1.03302941176471e+01 1.27736137977858e-02 1.18358427890099e-04
1.03971568627451e+01 1.26874174126753e-02 1.17939589440897e-04
1.04640196078431e+01 1.26018026814035e-02 1.17519802875684e-04
1.05308823529412e+01 1.25167656781554e-02 1.17099119758189e-04
1.05977450980392e+01 1.24323025052259e-02 1.16677590590096e-04
1.06646078431373e+01 1.23484092896125e-02 1.16255264867475e-04
1.07314705882353e+01 1.22650821860278e-02 1.15832191066821e-04
1.07983333333333e+01 1.21823173735713e-02 1.15408416699794e-04
1.08651960784314e+01 1.21001110586679e-02 1.14983988298909e-04
1.09320588235294e+01 1.20184594718185e-02 1.14558951470748e-04
1.09989215686275e+01 1.19373588704649e-02 1.14133350626580e-04
1.10657843137255e+01 1.18568055365441e-02 1.13707230054035e-04
1.11326470588235e+01 1.17767957763710e-02 1.13280632377585e-04
1.11995098039216e+01 1.16973259226243e-02 1.12853599600239e-04
1.12663725490196e+01 1.16183923313081e-02 1.12426172887947e-04
1.13332352941176e+01 1.15399913844211e-02 1.11998392554824e-04
1.14000980392157e+01 1.14621194869876e-02 1.11570298110731e-04
1.14669607843137e+01 1.13847730696633e-02 1.11141928246317e-04
1.15338235294118e+01 1.13079485858335e-02 1.10713320879302e-04
1.16006862745098e+01 1.12316425141564e-02 1.10284512906376e-04
1.16675490196078e+01 1.11558513563753e-02 1.09855541181799e-04
1.17344117647059e+01 1.10805716372052e-02 1.09426441106460e-04
1.18012745098039e+01 1.10057999060953e-02 1.08997247579575e-04
1.18681372549020e+01 1.09315327345111e-02 1.08567994799535e-04
1.19350000000000e+01 1.08577667183071e-02 1.08138716248813e-04
1.20018627450980e+01 1.07844984750703e-02 1.07709444735703e-04
1.20687254901961e+01 1.07117246464366e-02 1.07280212379206e-04
1.21355882352941e+01 1.06394418954936e-02 1.06851050649656e-04
1.22024509803922e+01 1.05676469090434e-02 1.06421990353560e-04
1.22693137254902e+01 1.04963363950620e-02 1.05993061673233e-04
1.23361764705882e+01 1.04255070849098e-02 1.05564293941670e-04
1.24030392156863e+01 1.03551557314137e-02 1.05135716522026e-04
1.24699019607843e+01 1.02852791087575e-02 1.04707357535324e-04
1.25367647058824e+01 1.02158740140142e-02 1.04279244716009e-04
1.26036274509804e+01 1.01469372647615e-02 1.03851405230742e-04
1.26704901960784e+01 1.00784657011482e-02 1.03423865663496e-04
1.27373529411765e+01 1.00104561835621e-02 1.02996652051483e-04
1.28042156862745e+01 9.94290559464840e-03 1.02569789870245e-04
1.28710784313725e+01 9.87581083702894e-03 1.02143304068695e-04
1.29379411764706e+01 9.80916883527420e-03 1.01717218861592e-04
1.30048039215686e+01 9.74297653417904e-03 1.01291558535714e-04
1.30716666666667e+01 9.67723089865711e-03 1.00866346280922e-04
1.31385294117647e+01 9.61192891510813e-03 1.00441604974431e-04
1.32053921568627e+01 9.54706758927358e-03 1.00017357013588e-04
1.32722549019608e+01 9.48264394808321e-03 9.95936243012973e-05
1.33391176470588e+01 9.41865503755686e-03 9.91704282779497e-05
1.34059803921569e+01 9.35509792460932e-03 9.87477899069971e-05
1.34728431372549e+01 9.29196969499691e-03 9.83257297061059e-05
1.35397058823529e+01 9.22926745508175e-03 9.79042677327989e-05
1.36065686274510e+01 9.16698832982205e-03 9.74834236148967e-05
1.36734313725490e+01 9.10512946449680e-03 9.70632163622101e-05
1.37402941176471e+01 9.04368802318443e-03 9.66436650936229e-05
1.38071568627451e+01 8.98266118866266e-03 9.62247879802224e-05
1.38740196078431e+01 8.92204616360358e-03 9.58066029530268e-05
1.39408823529412e+01 8.86184016868147e-03 9.53891275507498e-05
1.40077450980392e+01 8.80204044419020e-03 9.49723789059288e-05
1.40746078431373e+01 8.74264424819080e-03 9.45563737727980e-05
1.41414705882353e+01 8.68364885809300e-03 9.41411285135103e-05
1.42083333333333e+01 8.62505156884158e-03 9.37266591253709e-05
1.42751960784314e+01 8.56684969446302e-03 9.33129812271725e-05
1.43420588235294e+01 8.50904056628966e-03 9.29001100858751e-05
1.44089215686275e+01 8.45162153447219e-03 9.24880604454547e-05
1.44757843137255e+01 8.39458996663397e-03 9.20768471839545e-05
1.45426470588235e+01 8.33794324777569e-03 9.16664843567721e-05
1.46095098039216e+01 8.28167878132316e-03 9.12569858360900e-05
1.46763725490196e+01 8.22579398745304e-03 9.08483651724400e-05
1.47432352941176e+01 8.17028630451331e-03 9.04406355815759e-05
1.48100980392157e+01 8.11515318738339e-03 9.00338099689514e-05
1.48769607843137e+01 8.06039210886375e-03 8.96279009167049e-05
1.49438235294118e+01 8.00600055806974e-03 8.92229207076041e-05
1.50106862745098e+01 7.95197604179102e-03 8.88188811671250e-05
1.50775490196078e+01 7.89831608327289e-03 8.84157942680548e-05
1.51444117647059e+01 7.84501822212532e-03 8.80136712487636e-05
1.52112745098039e+01 7.79208001526432e-03 8.76125232018162e-05
1.52781372549020e+01 7.73949903539592e-03 8.72123609459717e-05
1.53450000000000e+01 7.68727287229417e-03 8.68131950137279e-05
1.54118627450980e+01 7.63539913131589e-03 8.64150356733796e-05
1.54787254901961e+01 7.58387543465127e-03 8.60178929166950e-05
1.55455882352941e+01 7.53269941986865e-03 8.56217764805011e-05
1.56124509803922e+01 7.48186874113844e-03 8.52266958344866e-05
1.56793137254902e+01 7.43138106780720e-03 8.48326602023637e-05
1.57461764705882e+01 7.38123408559542e-03 8.44396784182395e-05
1.58130392156863e+01 7.33142549551434e-03 8.40477594743098e-05
1.58799019607843e+01 7.28195301378014e-03 8.36569117209980e-05
1.59467647058824e+01 7.23281437264282e-03 8.32671434002396e-05
1.60136274509804e+01 7.18400731903870e-03 8.28784625289072e-05
1.60804901960784e+01 7.13552961571791e-03 8.24908768871759e-05
1.61473529411765e+01 7.08737903992369e-03 8.21043940380527e-05
1.62142156862745e+01 7.03955338449608e-03 8.17190213158579e-05
1.62810784313725e+01 6.99205045657753e-03 8.13347658453664e-05
1.63479411764706e+01 6.94486807869333e-03 8.09516344090476e-05
1.64148039215686e+01 6.89800408776733e-03 8.05696339521370e-05
1.64816666666667e+01 6.85145633504007e-03 8.01887708442469e-05
1.65485294117647e+01 6.80522268681616e-03 7.98090513711408e-05
1.66153921568627e+01 6.75930102323996e-03 7.94304816269160e-05
1.66822549019608e+01 6.71368923931338e-03 7.90530675030208e-05
1.67491176470588e+01 6.66838524369570e-03 7.86768147059647e-05
1.68159803921569e+01 6.62338695970019e-03 7.83017287464705e-05
1.68828431372549e+01 6.57869232411745e-03 7.79278149568354e-05
1.69497058823529e+01 6.53429928819135e-03 7.75550784802115e-05
1.70165686274510e+01 6.49020581646540e-03 7.71835242876124e-05
1.70834313725490e+01 6.44640988773844e-03 7.68131570570906e-05
1.71502941176471e+01 6.40290949418626e-03 7.64439816321636e-05
1.72171568627451e+01 6.35970264128483e-03 7.60760023507979e-05
1.72840196078431e+01 6.31678734847070e-03 7.57092234919259e-05
1.73508823529412e+01 6.27416164804878e-03 7.53436491771290e-05
1.74177450980392e+01 6.23182358609350e-03 7.49792833604493e-05
1.74846078431373e+01 6.18977122137778e-03 7.46161298441478e-05
1.75514705882353e+01 6.14800262625567e-03 7.42541922686618e-05
1.76183333333333e+01 6.10651588561208e-03 7.38934741280647e-05
1.76851960784314e+01 6.06530909772724e-03 7.35339787601068e-05
1.77520588235294e+01 6.02438037324677e-03 7.31757093614197e-05
1.78189215686275e+01 5.98372783602839e-03 7.28186688774008e-05
1.78857843137255e+01 5.94334962235691e-03 7.24628604187864e-05
1.79526470588235e+01 5.90324388087202e-03 7.21082866513551e-05
1.80195098039216e+01 5.86340877315299e-03 7.17549502016679e-05
1.80863725490196e+01 5.82384247274257e-03 7.14028535674209e-05
1.81532352941176e+01 5.78454316594628e-03 7.10519991079986e-05
1.82200980392157e+01 5.74550905087493e-03 7.07023890585602e-05
1.82869607843137e+01 5.70673833822771e-03 7.03540255207197e-05
1.83538235294118e+01 5.66822925035302e-03 7.00069104763661e-05
1.84206862745098e+01 5.62998002201568e-03 6.96610456857526e-05
1.84875490196078e+01 5.59198889968030e-03 6.93164330725412e-05
1.85544117647059e+01 5.55425414144282e-03 6.89730741592181e-05
1.86212745098039e+01 5.51677401755990e-03 6.86309704421985e-05
1.86881372549020e+01 5.47954680955816e-03 6.82901233087528e-05
1.87550000000000e+01 5.44257081095888e-03 6.79505340281553e-05
1.88218627450980e+01 5.40584432640417e-03 6.76122037645306e-05
1.88887254901961e+01 5.36936567236703e-03 6.72751335681217e-05
1.89555882352941e+01 5.33313317629412e-03 6.69393243878997e-05
1.90224509803922e+01 5.29714517730151e-03 6.66047770629439e-05
1.90893137254902e+01 5.26140002533361e-03 6.62714923348282e-05
1.91561764705882e+01 5.22589608184501e-03 6.59394707546634e-05
1.92230392156863e+01 5.19063171915804e-03 6.56087130335337e-05
1.92899019607843e+01 5.15560532039856e-03 6.52792195282668e-05
1.93567647058824e+01 5.12081527996601e-03 6.49509905828424e-05
1.94236274509804e+01 5.08626000273505e-03 6.46240264525542e-05
1.94904901960784e+01 5.05193790470013e-03 6.42983272958294e-05
1.95573529411765e+01 5.01784741219212e-03 6.39738931857558e-05
1.96242156862745e+01 4.98398696251008e-03 6.36507241020136e-05
1.96910784313725e+01 4.95035500315246e-03 6.33288199421864e-05
1.97579411764706e+01 4.91694999243639e-03 6.30081804356199e-05
1.98248039215686e+01 4.88377039890984e-03 6.26888054677818e-05
1.98916666666667e+01 4.85081470129081e-03 6.23706946040067e-05
1.99585294117647e+01 4.81808138889386e-03 6.20538474054755e-05
2.00253921568627e+01 4.78556896089991e-03 6.17382633589230e-05
2.00922549019608e+01 4.75327592694202e-03 6.14239418689696e-05
2.01591176470588e+01 4.72120080638874e-03 6.11108822686687e-05
2.02259803921569e+01 4.68934212891835e-03 6.07990838119526e-05
2.02928431372549e+01 4.65769843381550e-03 6.04885456839912e-05
2.03597058823529e+01 4.62626827053408e-03 6.01792669937382e-05
2.04265686274510e+01 4.59505019800692e-03 5.98712467840940e-05
2.04934313725490e+01 4.56404278519757e-03 5.95644839532986e-05
2.05602941176471e+01 4.53324461057193e-03 5.92589775504856e-05
2.06271568627451e+01 4.50265426204137e-03 5.89547263413742e-05
2.06940196078431e+01 4.47227033734236e-03 5.86517290962939e-05
2.07608823529412e+01 4.44209144338037e-03 5.83499845259220e-05
2.08277450980392e+01 4.41211619675214e-03 5.80494912742201e-05
2.08946078431373e+01 4.38234322310170e-03 5.77502479279247e-05
2.09614705882353e+01 4.35277115763245e-03 5.74522530095775e-05
2.10283333333333e+01 4.32339864447491e-03 5.71555049868401e-05
2.10951960784314e+01 4.29422433718885e-03 5.68600022656225e-05
