Energy (eV)          EEDF (eV^-(3/2))     First Anisotropy
1.27173913043478e-02 1.81110315357048e-01 1.00050723939458e-04
3.81521739130435e-02 1.79751484130937e-01 1.65147601025787e-04
6.35869565217391e-02 1.78402847919676e-01 2.17842527889059e-04
8.90217391304348e-02 1.77064330232080e-01 2.57771339350920e-04
1.14456521739130e-01 1.75735855155387e-01 2.90986558260537e-04
1.39891304347826e-01 1.74417347333335e-01 3.19778664605916e-04
1.65326086956522e-01 1.73108731984365e-01 3.45334014578648e-04
1.90760869565217e-01 1.71809934896251e-01 3.68369622661553e-04
2.16195652173913e-01 1.70520882397037e-01 3.89361423283607e-04
2.41630434782609e-01 1.69241501381142e-01 4.08646076048989e-04
2.67065217391304e-01 1.67971719280149e-01 4.26472999936035e-04
2.92500000000000e-01 1.66711464075677e-01 4.43033617400345e-04
3.17934782608696e-01 1.65460664293970e-01 4.58478995183246e-04
3.43369565217391e-01 1.64219248988930e-01 4.72931077787578e-04
3.68804347826087e-01 1.62987147750992e-01 4.86490161290552e-04
3.94239130434783e-01 1.61764290702249e-01 4.99240049931767e-04
4.19673913043478e-01 1.60550608482240e-01 5.11251716878047e-04
4.45108695652174e-01 1.59346032257151e-01 5.22585973052321e-04
4.70543478260870e-01 1.58150493703925e-01 5.33295455121782e-04
4.95978260869565e-01 1.56963925014935e-01 5.43426132928888e-04
5.21413043478261e-01 1.55786258893707e-01 5.53018475612368e-04
5.46847826086956e-01 1.54617428543863e-01 5.62108362582203e-04
5.72282608695652e-01 1.53457367674669e-01 5.70727807578937e-04
5.97717391304348e-01 1.52306010488584e-01 5.78905540370969e-04
6.23152173913043e-01 1.51163291683799e-01 5.86667477637044e-04
6.48586956521739e-01 1.50029146450290e-01 5.94037111221229e-04
6.74021739130435e-01 1.48903510460625e-01 6.01035827064838e-04
6.99456521739130e-01 1.47786319873458e-01 6.07683172020613e-04
7.24891304347826e-01 1.46677511323178e-01 6.13997078089704e-04
7.50326086956522e-01 1.45577021921211e-01 6.19994050931926e-04
7.75760869565217e-01 1.44484789252281e-01 6.25689332317507e-04
8.01195652173913e-01 1.43400751366489e-01 6.31097037313244e-04
8.26630434782609e-01 1.42324846781497e-01 6.36230273224290e-04
8.52065217391304e-01 1.41257014473628e-01 6.41101242619280e-04
8.77500000000000e-01 1.40197193878363e-01 6.45721331917980e-04
9.02934782608696e-01 1.39145324886779e-01 6.50101190554212e-04
9.28369565217391e-01 1.38101347838552e-01 6.54250798875770e-04
9.53804347826087e-01 1.37065203522169e-01 6.58179527876094e-04
9.79239130434783e-01 1.36036833171447e-01 6.61896193526252e-04
1.00467391304348e+00 1.35016178458944e-01 6.65409102717387e-04
1.03010869565217e+00 1.34003181500785e-01 6.68726098438887e-04
1.05554347826087e+00 1.32997784830881e-01 6.71854592469410e-04
1.08097826086957e+00 1.31999931435627e-01 6.74801600412325e-04
1.10641304347826e+00 1.31009564719253e-01 6.77573776525333e-04
1.13184782608696e+00 1.30026628510689e-01 6.80177437170462e-04
1.15728260869565e+00 1.29051067051962e-01 6.82618582664399e-04
1.18271739130435e+00 1.28082825020489e-01 6.84902922460911e-04
1.20815217391304e+00 1.27121847500005e-01 6.87035899597965e-04
1.23358695652174e+00 1.26168079978635e-01 6.89022700392490e-04
1.25902173913043e+00 1.25221468369214e-01 6.90868275502669e-04
1.28445652173913e+00 1.24281958982370e-01 6.92577357981910e-04
1.30989130434783e+00 1.23349498531523e-01 6.94154474230367e-04
1.33532608695652e+00 1.22424034123041e-01 6.95603954368793e-04
1.36076086956522e+00 1.21505513274188e-01 6.96929946630884e-04
1.38619565217391e+00 1.20593883888839e-01 6.98136430781380e-04
1.41163043478261e+00 1.19689094261725e-01 6.99227225294305e-04
1.43706521739130e+00 1.18791093069332e-01 7.00205994287848e-04
1.46250000000000e+00 1.17899829385850e-01 7.01076258488380e-04
1.48793478260870e+00 1.17015252661114e-01 7.01841405538466e-04
1.51336956521739e+00 1.16137312724237e-01 7.02504694706839e-04
1.53880434782609e+00 1.15265959775150e-01 7.03069261548791e-04
1.56423913043478e+00 1.14401144398845e-01 7.03538126509771e-04
1.58967391304348e+00 1.13542817545246e-01 7.03914203074950e-04
1.61510869565217e+00 1.12690930532305e-01 7.04200300823160e-04
1.64054347826087e+00 1.11845435038127e-01 7.04399128544813e-04
1.66597826086957e+00 1.11006283113740e-01 7.04513301169725e-04
1.69141304347826e+00 1.10173427164637e-01 7.04545346372840e-04
1.71684782608696e+00 1.09346819953426e-01 7.04497706494191e-04
1.74228260869565e+00 1.08526414592471e-01 7.04372740588963e-04
1.76771739130435e+00 1.07712164555381e-01 7.04172730132186e-04
1.79315217391304e+00 1.06904023660025e-01 7.03899885438651e-04
1.81858695652174e+00 1.06101946066405e-01 7.03556342993421e-04
1.84402173913043e+00 1.05305886287348e-01 7.03144171499278e-04
1.86945652173913e+00 1.04515799172450e-01 7.02665376706347e-04
1.89489130434783e+00 1.03731639910048e-01 7.02121902086826e-04
1.92032608695652e+00 1.02953364020684e-01 7.01515629696822e-04
1.94576086956522e+00 1.02180927366783e-01 7.00848384444640e-04
1.97119565217391e+00 1.01414286137784e-01 7.00121938218877e-04
1.99663043478261e+00 1.00653396851821e-01 6.99338010134319e-04
2.02206521739130e+00 9.98982163495732e-02 6.98498266976486e-04
2.04750000000000e+00 9.91487018030425e-02 6.97604326887623e-04
2.07293478260870e+00 9.84048107017506e-02 6.96657762946867e-04
2.09836956521739e+00 9.76665008541681e-02 6.95660103110274e-04
2.12380434782609e+00 9.69337303819077e-02 6.94612830352729e-04
2.14923913043478e+00 9.62064577277143e-02 6.93517385893002e-04
2.17467391304348e+00 9.54846416426122e-02 6.92375172338231e-04
2.20010869565217e+00 9.47682411871149e-02 6.91187553404702e-04
2.22554347826087e+00 9.40572157257363e-02 6.89955853839775e-04
2.25097826086957e+00 9.33515249342764e-02 6.88681362275591e-04
2.27641304347826e+00 9.26511287878269e-02 6.87365334020825e-04
2.30184782608696e+00 9.19559875617886e-02 6.86008990625176e-04
2.32728260869565e+00 9.12660618266752e-02 6.84613519640842e-04
2.35271739130435e+00 9.05813124547692e-02 6.83180077172435e-04
2.37815217391304e+00 8.99017006089055e-02 6.81709791071962e-04
2.40358695652174e+00 8.92271877405310e-02 6.80203757615097e-04
2.42902173913043e+00 8.85577355959532e-02 6.78663044617109e-04
2.45445652173913e+00 8.78933062056359e-02 6.77088693760414e-04
2.47989130434783e+00 8.72338618849145e-02 6.75481719976180e-04
2.50532608695652e+00 8.65793652292807e-02 6.73843111013589e-04
2.53076086956522e+00 8.59297791201075e-02 6.72173829586198e-04
2.55619565217391e+00 8.52850667146077e-02 6.70474815486149e-04
2.58163043478261e+00 8.46451914464156e-02 6.68746984908892e-04
2.60706521739130e+00 8.40101170211059e-02 6.66991229958181e-04
2.63250000000000e+00 8.33798074214464e-02 6.65208420603655e-04
2.65793478260870e+00 8.27542268979626e-02 6.63399406613479e-04
2.68336956521739e+00 8.21333399694015e-02 6.61565016841897e-04
2.70880434782609e+00 8.15171114184683e-02 6.59706058689515e-04
2.73423913043478e+00 8.09055062966526e-02 6.57823319898969e-04
2.75967391304348e+00 8.02984899153484e-02 6.55917570331159e-04
2.78510869565217e+00 7.96960278462138e-02 6.53989561230504e-04
2.81054347826087e+00 7.90980859171118e-02 6.52040024655277e-04
2.83597826086957e+00 7.85046302165486e-02 6.50069675133038e-04
2.86141304347826e+00 7.79156270853048e-02 6.48079211300631e-04
2.88684782608696e+00 7.73310431167050e-02 6.46069315158442e-04
2.91228260869565e+00 7.67508451527459e-02 6.44040651482239e-04
2.93771739130435e+00 7.61750002881851e-02 6.41993869355489e-04
2.96315217391304e+00 7.56034758626433e-02 6.39929604212541e-04
2.98858695652174e+00 7.50362394589082e-02 6.37848474996689e-04
3.01402173913043e+00 7.44732589067916e-02 6.35751086177987e-04
3.03945652173913e+00 7.39145022755495e-02 6.33638029200225e-04
3.06489130434783e+00 7.33599378740041e-02 6.31509881727825e-04
3.09032608695652e+00 7.28095342469881e-02 6.29367207037982e-04
3.11576086956522e+00 7.22632601789030e-02 6.27210555378139e-04
3.14119565217391e+00 7.17210846865516e-02 6.25040465315832e-04
3.16663043478261e+00 7.11829770191960e-02 6.22857462993190e-04
3.19206521739130e+00 7.06489066551596e-02 6.20662061520018e-04
3.21750000000000e+00 7.01188433051117e-02 6.18454762242157e-04
3.24293478260870e+00 6.95927569052836e-02 6.16236056004281e-04
3.26836956521739e+00 6.90706176174695e-02 6.14006422415970e-04
3.29380434782609e+00 6.85523958257768e-02 6.11766329249540e-04
3.31923913043478e+00 6.80380621396608e-02 6.09516233628413e-04
3.34467391304348e+00 6.75275873874973e-02 6.07256583211430e-04
3.37010869565217e+00 6.70209426165326e-02 6.04987815473125e-04
3.39554347826087e+00 6.65180990897745e-02 6.02710357109494e-04
3.42097826086957e+00 6.60190282887974e-02 6.00424625153965e-04
3.44641304347826e+00 6.55237019076473e-02 5.98131028090837e-04
3.47184782608696e+00 6.50320918527463e-02 5.95829965151477e-04
3.49728260869565e+00 6.45441702399173e-02 5.93521825730421e-04
3.52271739130435e+00 6.40599093969778e-02 5.91206990435634e-04
3.54815217391304e+00 6.35792818579547e-02 5.88885832538680e-04
3.57358695652174e+00 6.31022603616262e-02 5.86558715679235e-04
3.59902173913043e+00 6.26288178539770e-02 5.84225995304173e-04
3.62445652173913e+00 6.21589274826243e-02 5.81888019675639e-04
3.64989130434783e+00 6.16925625966510e-02 5.79545129194284e-04
3.67532608695652e+00 6.12296967438505e-02 5.77197655832863e-04
3.70076086956522e+00 6.07703036730001e-02 5.74845924089069e-04
3.72619565217391e+00 6.03143573285632e-02 5.72490251937734e-04
3.75163043478261e+00 5.98618318504915e-02 5.70130950173457e-04
3.77706521739130e+00 5.94127015715831e-02 5.67768321858318e-04
3.80250000000000e+00 5.89669410195880e-02 5.65402663222470e-04
3.82793478260870e+00 5.85245249121693e-02 5.63034264565288e-04
3.85336956521739e+00 5.80854281566785e-02 5.60663409617639e-04
3.87880434782609e+00 5.76496258476204e-02 5.58290375004011e-04
3.90423913043478e+00 5.72170932686044e-02 5.55915431095456e-04
3.92967391304348e+00 5.67878058875489e-02 5.53538842863219e-04
3.95510869565217e+00 5.63617393564319e-02 5.51160869260615e-04
3.98054347826087e+00 5.59388695088589e-02 5.48781762700469e-04
4.00597826086956e+00 5.55191723618714e-02 5.46401769863607e-04
4.03141304347826e+00 5.51026241113785e-02 5.44021132508449e-04
4.05684782608696e+00 5.46892011318884e-02 5.41640086872684e-04
4.08228260869565e+00 5.42788799741722e-02 5.39258863166016e-04
4.10771739130435e+00 5.38716373669406e-02 5.36877686337386e-04
4.13315217391304e+00 5.34674502124909e-02 5.34496777156846e-04
4.15858695652174e+00 5.30662955854635e-02 5.32116350382272e-04
4.18402173913043e+00 5.26681507344309e-02 5.29736615834977e-04
4.20945652173913e+00 5.22729930776928e-02 5.27357779142564e-04
4.23489130434783e+00 5.18808002029728e-02 5.24980041171640e-04
4.26032608695652e+00 5.14915498652457e-02 5.22603597544613e-04
4.28576086956522e+00 5.11052199882112e-02 5.20228639344381e-04
4.31119565217391e+00 5.07217886602822e-02 5.17855353820971e-04
4.33663043478261e+00 5.03412341342690e-02 5.15483923843418e-04
4.36206521739130e+00 4.99635348252898e-02 5.13114527431862e-04
4.38750000000000e+00 4.95886693121389e-02 5.10747338428138e-04
4.41293478260870e+00 4.92166163334567e-02 5.08382527168426e-04
4.43836956521739e+00 4.88473547874034e-02 5.06020259953827e-04
4.46380434782609e+00 4.84808637296497e-02 5.03660698597734e-04
4.48923913043478e+00 4.81171223746458e-02 5.01304001064366e-04
4.51467391304348e+00 4.77561100919642e-02 4.98950322109591e-04
4.54010869565217e+00 4.73978064059642e-02 4.96599812769817e-04
4.56554347826087e+00 4.70421909938589e-02 4.94252619924278e-04
4.59097826086956e+00 4.66892436868927e-02 4.91908886903527e-04
4.61641304347826e+00 4.63389444668475e-02 4.89568754100327e-04
4.64184782608696e+00 4.59912734656990e-02 4.87232358476500e-04
4.66728260869565e+00 4.56462109637572e-02 4.84899833139726e-04
4.69271739130435e+00 4.53037373907585e-02 4.82571307923785e-04
4.71815217391304e+00 4.49638333225270e-02 4.80246910217880e-04
4.74358695652174e+00 4.46264794799186e-02 4.77926763503181e-04
4.76902173913043e+00 4.42916567298572e-02 4.75610988177897e-04
4.79445652173913e+00 4.39593460821018e-02 4.73299702122085e-04
4.81989130434783e+00 4.36295286888906e-02 4.70993020232323e-04
4.84532608695652e+00 4.33021858432043e-02 4.68691054021401e-04
4.87076086956522e+00 4.29772989797268e-02 4.66393912155100e-04
4.89619565217391e+00 4.26548496717542e-02 4.64101700991581e-04
4.92163043478261e+00 4.23348196308334e-02 4.61814524132671e-04
4.94706521739130e+00 4.20171907050908e-02 4.59532482037137e-04
4.97250000000000e+00 4.17019448801237e-02 4.57255672533508e-04
4.99793478260870e+00 4.13890642760414e-02 4.54984191335343e-04
5.02336956521739e+00 4.10785311471023e-02 4.52718131608587e-04
5.04880434782609e+00 4.07703278801039e-02 4.50457583598260e-04
5.07423913043478e+00 4.04644369952089e-02 4.48202635118350e-04
5.09967391304348e+00 4.01608411431136e-02 4.45953372044563e-04
5.12510869565217e+00 3.98595231046829e-02 4.43709877897088e-04
5.15054347826087e+00 3.95604657893989e-02 4.41472233480162e-04
5.17597826086957e+00 3.92636522361276e-02 4.39240517350585e-04
5.20141304347826e+00 3.89690656104072e-02 4.37014806288924e-04
5.22684782608696e+00 3.86766892040818e-02 4.34795174897223e-04
5.25228260869565e+00 3.83865064338067e-02 4.32581695251130e-04
5.27771739130435e+00 3.80985008417596e-02 4.30374437348024e-04
5.30315217391304e+00 3.78126560930423e-02 4.28173469753426e-04
5.32858695652174e+00 3.75289559747872e-02 4.25978858429673e-04
5.35402173913043e+00 3.72473843968310e-02 4.23790667379133e-04
5.37945652173913e+00 3.69679253891963e-02 4.21608959081930e-04
5.40489130434783e+00 3.66905631017241e-02 4.19433794117158e-04
5.43032608695652e+00 3.64152818026747e-02 4.17265230834628e-04
5.45576086956522e+00 3.61420658793515e-02 4.15103325771367e-04
5.48119565217391e+00 3.58708998356871e-02 4.12948134070636e-04
5.50663043478261e+00 3.56017682918773e-02 4.10799709116778e-04
5.53206521739130e+00 3.53346559830322e-02 4.08658102218644e-04
5.55750000000000e+00 3.50695477597534e-02 4.06523363008252e-04
5.58293478260870e+00 3.48064285858204e-02 4.04395539842217e-04
5.60836956521739e+00 3.45452835378260e-02 4.02274679449798e-04
5.63380434782609e+00 3.42860978038752e-02 4.00160826627299e-04
5.65923913043478e+00 3.40288566841207e-02 3.98054024620122e-04
5.68467391304348e+00 3.37735455885426e-02 3.95954315507320e-04
5.71010869565217e+00 3.35201500365870e-02 3.93861739862340e-04
5.73554347826087e+00 3.32686556559110e-02 3.91776336458226e-04
5.76097826086957e+00 3.30190481828781e-02 3.89698142633673e-04
5.78641304347826e+00 3.27713134604279e-02 3.87627194661593e-04
5.81184782608696e+00 3.25254374377184e-02 3.85563527422107e-04
5.83728260869565e+00 3.22814061689142e-02 3.83507174118149e-04
5.86271739130435e+00 3.20392058136457e-02 3.81458166626318e-04
5.88815217391304e+00 3.17988226349641e-02 3.79416536006333e-04
5.91358695652174e+00 3.15602429985876e-02 3.77382311560430e-04
5.93902173913043e+00 3.13234533733338e-02 3.75355521340381e-04
5.96445652173913e+00 3.10884403291368e-02 3.73336192490975e-04
5.98989130434783e+00 3.08551905366932e-02 3.71324350942290e-04
6.01532608695652e+00 3.06236907663260e-02 3.69320021141586e-04
6.04076086956522e+00 3.03939278883846e-02 3.67323226380448e-04
6.06619565217391e+00 3.01658888713414e-02 3.65333989124182e-04
6.09163043478261e+00 2.99395607814408e-02 3.63352330715172e-04
6.11706521739130e+00 2.97149307816038e-02 3.61378271114345e-04
6.14250000000000e+00 2.94919861317968e-02 3.59411829214843e-04
6.16793478260870e+00 2.92707141872034e-02 3.57453023158181e-04
6.19336956521739e+00 2.90511023978783e-02 3.55501870048234e-04
6.21880434782609e+00 2.88331383076896e-02 3.53558385701831e-04
6.24423913043478e+00 2.86168095546589e-02 3.51622584949749e-04
6.26967391304348e+00 2.84021038692055e-02 3.49694481940115e-04
6.29510869565217e+00 2.81890090738050e-02 3.47774089862704e-04
6.32054347826087e+00 2.79775130819672e-02 3.45861420708297e-04
6.34597826086957e+00 2.77676038985509e-02 3.43956485557610e-04
6.37141304347826e+00 2.75592696180759e-02 3.42059294872517e-04
6.39684782608696e+00 2.73524984243867e-02 3.40169858230228e-04
6.42228260869565e+00 2.71472785896657e-02 3.38288184091186e-04
6.44771739130435e+00 2.69435984747231e-02 3.36414280076417e-04
6.47315217391304e+00 2.67414465273745e-02 3.34548153372289e-04
6.49858695652174e+00 2.65408112818039e-02 3.32689809972654e-04
6.52402173913043e+00 2.63416813588364e-02 3.30839255081711e-04
6.54945652173913e+00 2.61440454643626e-02 3.28996493385961e-04
6.57489130434783e+00 2.59478923890101e-02 3.27161528804093e-04
6.60032608695652e+00 2.57532110072165e-02 3.25334364268294e-04
6.62576086956522e+00 2.55599902774799e-02 3.23515001983357e-04
6.65119565217391e+00 2.53682192408442e-02 3.21703443687941e-04
6.67663043478261e+00 2.51778870205761e-02 3.19899690413372e-04
6.70206521739130e+00 2.49889828212694e-02 3.18103742272691e-04
6.72750000000000e+00 2.48014959290748e-02 3.16315598709518e-04
6.75293478260870e+00 2.46154157102442e-02 3.14535258748996e-04
6.77836956521739e+00 2.44307316108121e-02 3.12762720765312e-04
6.80380434782609e+00 2.42474331557307e-02 3.10997982278128e-04
6.82923913043478e+00 2.40655099490809e-02 3.09241040191685e-04
6.85467391304348e+00 2.38849516726716e-02 3.07491891035936e-04
6.88010869565217e+00 2.37057480857270e-02 3.05750530742324e-04
6.90554347826087e+00 2.35278890240509e-02 3.04016954447407e-04
6.93097826086957e+00 2.33513644002200e-02 3.02291156722583e-04
6.95641304347826e+00 2.31761642022360e-02 3.00573131805901e-04
6.98184782608696e+00 2.30022784932190e-02 2.98862873385796e-04
7.00728260869565e+00 2.28296974105996e-02 2.97160374411587e-04
7.03271739130435e+00 2.26584111662957e-02 2.95465627314342e-04
7.05815217391304e+00 2.24884100454157e-02 2.93778624330424e-04
7.08358695652174e+00 2.23196844057215e-02 2.92099356888942e-04
7.10902173913043e+00 2.21522246777932e-02 2.90427815933787e-04
7.13445652173913e+00 2.19860213637692e-02 2.88763992140420e-04
7.15989130434783e+00 2.18210650370482e-02 2.87107875712394e-04
7.18532608695652e+00 2.16573463415293e-02 2.85459456202833e-04
7.21076086956522e+00 2.14948559917626e-02 2.83818722721020e-04
7.23619565217391e+00 2.13335847717360e-02 2.82185664140898e-04
7.26163043478261e+00 2.11735235345834e-02 2.80560268904824e-04
7.28706521739130e+00 2.10146632018499e-02 2.78942524851260e-04
7.31250000000000e+00 2.08569947636286e-02 2.77332419413438e-04
7.33793478260870e+00 2.07005092773934e-02 2.75729939819885e-04
7.36336956521739e+00 2.05451978677119e-02 2.74135072905058e-04
7.38880434782609e+00 2.03910517255361e-02 2.72547804943165e-04
7.41423913043478e+00 2.02380621083255e-02 2.70968121839171e-04
7.43967391304348e+00 2.00862203389241e-02 2.69396009321651e-04
7.46510869565217e+00 1.99355178052787e-02 2.67831452760161e-04
7.49054347826087e+00 1.97859459597530e-02 2.66274437004826e-04
7.51597826086957e+00 1.96374963192393e-02 2.64724946570122e-04
7.54141304347826e+00 1.94901604640766e-02 2.63182965820305e-04
7.56684782608696e+00 1.93439300377750e-02 2.61648478793276e-04
7.59228260869565e+00 1.91987967463526e-02 2.60121469045793e-04
7.61771739130435e+00 1.90547523584358e-02 2.58601919830218e-04
7.64315217391304e+00 1.89117887042175e-02 2.57089814354426e-04
7.66858695652174e+00 1.87698976750042e-02 2.55585135285334e-04
7.69402173913044e+00 1.86290712233085e-02 2.54087865007555e-04
7.71945652173913e+00 1.84893013618363e-02 2.52597985797110e-04
7.74489130434783e+00 1.83505801632201e-02 2.51115479655574e-04
7.77032608695652e+00 1.82128997593948e-02 2.49640328164252e-04
7.79576086956522e+00 1.80762523416804e-02 2.48172512649783e-04
7.82119565217391e+00 1.79406301598061e-02 2.46712014351333e-04
7.84663043478261e+00 1.78060255216498e-02 2.45258814260568e-04
7.87206521739130e+00 1.76724307926338e-02 2.43812892980904e-04
7.89750000000000e+00 1.75398383957989e-02 2.42374230886865e-04
7.92293478260870e+00 1.74082408108642e-02 2.40942808284981e-04
7.94836956521739e+00 1.72776305739718e-02 2.39518605259414e-04
7.97380434782609e+00 1.71480002771027e-02 2.38101601536105e-04
7.99923913043478e+00 1.70193425681425e-02 2.36691776636115e-04
8.02467391304348e+00 1.68916501499749e-02 2.35289110030508e-04
