Energy (eV)          EEDF (eV^-(3/2))     First Anisotropy
2.59523809523810e-02 3.86188533524095e-02 1.82649959630066e-05
7.78571428571429e-02 3.84077405243480e-02 3.01797202830480e-05
1.29761904761905e-01 3.81977817595280e-02 3.98910708889883e-05
1.81666666666667e-01 3.79889707499860e-02 4.72996298072288e-05
2.33571428571429e-01 3.77813012213648e-02 5.35039847228903e-05
2.85476190476190e-01 3.75747669336562e-02 5.89186475442892e-05
3.37380952380952e-01 3.73693616816536e-02 6.37577126361230e-05
3.89285714285714e-01 3.71650792926234e-02 6.81502206184457e-05
4.41190476190476e-01 3.69619136283715e-02 7.21815932363034e-05
4.93095238095238e-01 3.67598585842523e-02 7.59120924123781e-05
5.45000000000000e-01 3.65589080889883e-02 7.93862442780781e-05
5.96904761904762e-01 3.63590561044861e-02 8.26381303624648e-05
6.48809523809524e-01 3.61602966256593e-02 8.56945753546087e-05
7.00714285714286e-01 3.59626236802501e-02 8.85771753832775e-05
7.52619047619048e-01 3.57660313286470e-02 9.13036461168750e-05
8.04523809523810e-01 3.55705136637070e-02 9.38887513662296e-05
8.56428571428571e-01 3.53760648108124e-02 9.63449622480399e-05
9.08333333333333e-01 3.51826789269777e-02 9.86829369044215e-05
9.60238095238095e-01 3.49903502014066e-02 1.00911877401830e-04
1.01214285714286e+00 3.47990728550677e-02 1.03039800533545e-04
1.06404761904762e+00 3.46088411401431e-02 1.05073746263908e-04
1.11595238095238e+00 3.44196493413679e-02 1.07019941220962e-04
1.16785714285714e+00 3.42314917739044e-02 1.08883928243514e-04
1.21976190476190e+00 3.40443627840218e-02 1.10670670191628e-04
1.27166666666667e+00 3.38582567474186e-02 1.12384633600462e-04
1.32357142857143e+00 3.36731680735864e-02 1.14029858079761e-04
1.37547619047619e+00 3.34890912010088e-02 1.15610013712449e-04
1.42738095238095e+00 3.33060205985645e-02 1.17128447788348e-04
1.47928571428571e+00 3.31239507653799e-02 1.18588225016736e-04
1.53119047619048e+00 3.29428762294622e-02 1.19992160543757e-04
1.58309523809524e+00 3.27627915511824e-02 1.21342848924495e-04
1.63500000000000e+00 3.25836913193914e-02 1.22642688950136e-04
1.68690476190476e+00 3.24055701525176e-02 1.23893904044992e-04
1.73880952380952e+00 3.22284226984108e-02 1.25098560624040e-04
1.79071428571429e+00 3.20522436341852e-02 1.26258584030287e-04
1.84261904761905e+00 3.18770276651008e-02 1.27375771768044e-04
1.89452380952381e+00 3.17027695273074e-02 1.28451805899818e-04
1.94642857142857e+00 3.15294639847350e-02 1.29488263987851e-04
1.99833333333333e+00 3.13571058299350e-02 1.30486627913803e-04
2.05023809523810e+00 3.11856898839318e-02 1.31448292499101e-04
2.10214285714286e+00 3.10152109952488e-02 1.32374572397579e-04
2.15404761904762e+00 3.08456640422271e-02 1.33266708980719e-04
2.20595238095238e+00 3.06770439303618e-02 1.34125876528352e-04
2.25785714285714e+00 3.05093455929928e-02 1.34953187010926e-04
2.30976190476190e+00 3.03425639911639e-02 1.35749695133032e-04
2.36166666666667e+00 3.01766941127601e-02 1.36516402172785e-04
2.41357142857143e+00 3.00117309744990e-02 1.37254260135473e-04
2.46547619047619e+00 2.98476696196108e-02 1.37964175544215e-04
2.51738095238095e+00 2.96845051184198e-02 1.38647012172698e-04
2.56928571428571e+00 2.95222325682014e-02 1.39303594218091e-04
2.62119047619048e+00 2.93608470924154e-02 1.39934708537855e-04
2.67309523809524e+00 2.92003438424350e-02 1.40541107329854e-04
2.72500000000000e+00 2.90407179955012e-02 1.41123510607905e-04
2.77690476190476e+00 2.88819647552179e-02 1.41682607815259e-04
2.82880952380952e+00 2.87240793514094e-02 1.42219059820584e-04
2.88071428571429e+00 2.85670570399782e-02 1.42733500750340e-04
2.93261904761905e+00 2.84108931022291e-02 1.43226539200921e-04
2.98452380952381e+00 2.82555828463413e-02 1.43698759940899e-04
3.03642857142857e+00 2.81011216055941e-02 1.44150725503170e-04
3.08833333333333e+00 2.79475047387769e-02 1.44582977058503e-04
3.14023809523810e+00 2.77947276300528e-02 1.44996035810126e-04
3.19214285714286e+00 2.76427856883422e-02 1.45390403727241e-04
3.24404761904762e+00 2.74916743486272e-02 1.45766564772635e-04
3.29595238095238e+00 2.73413890703563e-02 1.46124986061843e-04
3.34785714285714e+00 2.71919253377976e-02 1.46466118381041e-04
3.39976190476190e+00 2.70432786599070e-02 1.46790397218050e-04
3.45166666666667e+00 2.68954445697625e-02 1.47098243199514e-04
3.50357142857143e+00 2.67484186257290e-02 1.47390063011977e-04
3.55547619047619e+00 2.66021964100123e-02 1.47666250278552e-04
3.60738095238095e+00 2.64567735289673e-02 1.47927185853317e-04
3.65928571428571e+00 2.63121456129685e-02 1.48173238611566e-04
3.71119047619048e+00 2.61683083158894e-02 1.48404765697323e-04
3.76309523809524e+00 2.60252573161473e-02 1.48622113238796e-04
3.81500000000000e+00 2.58829883153866e-02 1.48825617033659e-04
3.86690476190476e+00 2.57414970387484e-02 1.49015602699040e-04
3.91880952380952e+00 2.56007792347425e-02 1.49192386203076e-04
3.97071428571429e+00 2.54608306751211e-02 1.49356274362353e-04
4.02261904761905e+00 2.53216471544049e-02 1.49507564946962e-04
4.07452380952381e+00 2.51832244908025e-02 1.49646547228676e-04
4.12642857142857e+00 2.50455585250293e-02 1.49773502509848e-04
4.17833333333333e+00 2.49086451205373e-02 1.49888704163875e-04
4.23023809523810e+00 2.47724801633920e-02 1.49992418123675e-04
4.28214285714286e+00 2.46370595618328e-02 1.50084902910750e-04
4.33404761904762e+00 2.45023792471049e-02 1.50166410086804e-04
4.38595238095238e+00 2.43684351723733e-02 1.50237184692120e-04
4.43785714285714e+00 2.42352233129242e-02 1.50297465226929e-04
4.48976190476191e+00 2.41027396660466e-02 1.50347484059332e-04
4.54166666666667e+00 2.39709802506208e-02 1.50387467403051e-04
4.59357142857143e+00 2.38399411078756e-02 1.50417635697558e-04
4.64547619047619e+00 2.37096183003850e-02 1.50438203978808e-04
4.69738095238095e+00 2.35800079122467e-02 1.50449381821056e-04
4.74928571428571e+00 2.34511060489656e-02 1.50451373684202e-04
4.80119047619048e+00 2.33229088370694e-02 1.50444378856395e-04
4.85309523809524e+00 2.31954124247993e-02 1.50428591780132e-04
4.90500000000000e+00 2.30686129811806e-02 1.50404202371339e-04
4.95690476190476e+00 2.29425066961805e-02 1.50371395934597e-04
5.00880952380952e+00 2.28170897805938e-02 1.50330353390191e-04
5.06071428571429e+00 2.26923584659302e-02 1.50281251487867e-04
5.11261904761905e+00 2.25683090040579e-02 1.50224262722419e-04
5.16452380952381e+00 2.24449376678230e-02 1.50159555609979e-04
5.21642857142857e+00 2.23222407501998e-02 1.50087294959494e-04
5.26833333333333e+00 2.22002145644270e-02 1.50007641767810e-04
5.32023809523810e+00 2.20788554438979e-02 1.49920753477361e-04
5.37214285714286e+00 2.19581597418252e-02 1.49826783877198e-04
5.42404761904762e+00 2.18381238318098e-02 1.49725883347390e-04
5.47595238095238e+00 2.17187441070480e-02 1.49618199100063e-04
5.52785714285714e+00 2.16000169804526e-02 1.49503875063724e-04
5.57976190476190e+00 2.14819388845462e-02 1.49383052112807e-04
5.63166666666667e+00 2.13645062711449e-02 1.49255867959274e-04
5.68357142857143e+00 2.12477156118814e-02 1.49122457371225e-04
5.73547619047619e+00 2.11315633974645e-02 1.48982952389026e-04
5.78738095238095e+00 2.10160461377866e-02 1.48837482203212e-04
5.83928571428571e+00 2.09011603618192e-02 1.48686173361067e-04
5.89119047619048e+00 2.07869026173151e-02 1.48529149652151e-04
5.94309523809524e+00 2.06732694712896e-02 1.48366532305882e-04
5.99500000000000e+00 2.05602575093275e-02 1.48198440187103e-04
6.04690476190476e+00 2.04478633356790e-02 1.48024989670429e-04
6.09880952380952e+00 2.03360835731570e-02 1.47846294768219e-04
6.15071428571429e+00 2.02249148630367e-02 1.47662467251073e-04
6.20261904761905e+00 2.01143538647761e-02 1.47473616529966e-04
6.25452380952381e+00 2.00043972564529e-02 1.47279849832628e-04
6.30642857142857e+00 1.98950417341235e-02 1.47081272378577e-04
6.35833333333333e+00 1.97862840119055e-02 1.46877987252084e-04
6.41023809523810e+00 1.96781208218795e-02 1.46670095570654e-04
6.46214285714286e+00 1.95705489138242e-02 1.46457696366089e-04
6.51404761904762e+00 1.94635650556206e-02 1.46240886746336e-04
6.56595238095238e+00 1.93571660326497e-02 1.46019762056519e-04
6.61785714285714e+00 1.92513486478650e-02 1.45794415751999e-04
6.66976190476190e+00 1.91461097216976e-02 1.45564939553576e-04
6.72166666666667e+00 1.90414460918042e-02 1.45331423328776e-04
6.77357142857143e+00 1.89373546134421e-02 1.45093955241205e-04
6.82547619047619e+00 1.88338321589016e-02 1.44852621899432e-04
6.87738095238095e+00 1.87308756175709e-02 1.44607508231359e-04
6.92928571428571e+00 1.86284818958425e-02 1.44358697627858e-04
6.98119047619048e+00 1.85266479168749e-02 1.44106271825079e-04
7.03309523809524e+00 1.84253706209401e-02 1.43850311043157e-04
7.08500000000000e+00 1.83246469648880e-02 1.43590894124416e-04
7.13690476190476e+00 1.82244739222043e-02 1.43328098409735e-04
7.18880952380952e+00 1.81248484829194e-02 1.43061999823262e-04
7.24071428571429e+00 1.80257676535179e-02 1.42792672952169e-04
7.29261904761905e+00 1.79272284567143e-02 1.42520190931363e-04
7.34452380952381e+00 1.78292279317698e-02 1.42244625570719e-04
7.39642857142857e+00 1.77317631339938e-02 1.41966047482064e-04
7.44833333333333e+00 1.76348311347933e-02 1.41684525958717e-04
7.50023809523810e+00 1.75384290215847e-02 1.41400129098583e-04
7.55214285714286e+00 1.74425538975797e-02 1.41112923691213e-04
7.60404761904762e+00 1.73472028820806e-02 1.40822975336799e-04
7.65595238095238e+00 1.72523731100086e-02 1.40530348565218e-04
7.70785714285714e+00 1.71580617319471e-02 1.40235106718355e-04
7.75976190476190e+00 1.70642659140562e-02 1.39937312065465e-04
7.81166666666667e+00 1.69709828378684e-02 1.39637025692917e-04
7.86357142857143e+00 1.68782097005632e-02 1.39334307615880e-04
7.91547619047619e+00 1.67859437145213e-02 1.39029216890115e-04
7.96738095238095e+00 1.66941821073620e-02 1.38721811497446e-04
8.01928571428572e+00 1.66029221218602e-02 1.38412148454227e-04
8.07119047619048e+00 1.65121610157511e-02 1.38100283703796e-04
8.12309523809524e+00 1.64218960619868e-02 1.37786272221686e-04
8.17500000000000e+00 1.63321245483131e-02 1.37470168120932e-04
8.22690476190476e+00 1.62428437773024e-02 1.37152024540741e-04
8.27880952380952e+00 1.61540510662732e-02 1.36831893708138e-04
8.33071428571429e+00 1.60657437472087e-02 1.36509826995910e-04
8.38261904761905e+00 1.59779191665730e-02 1.36185874818783e-04
8.43452380952381e+00 1.58905746855459e-02 1.35860086731442e-04
8.48642857142857e+00 1.58037076796267e-02 1.35532511526617e-04
8.53833333333333e+00 1.57173155386617e-02 1.35203197127916e-04
8.59023809523810e+00 1.56313956667661e-02 1.34872190685290e-04
8.64214285714286e+00 1.55459454821469e-02 1.34539538474259e-04
8.69404761904762e+00 1.54609624173231e-02 1.34205285988590e-04
8.74595238095238e+00 1.53764439187493e-02 1.33869478033228e-04
8.79785714285714e+00 1.52923874468391e-02 1.33532158620337e-04
8.84976190476191e+00 1.52087904758889e-02 1.33193371059718e-04
8.90166666666667e+00 1.51256504939092e-02 1.32853157861095e-04
8.95357142857143e+00 1.50429650028297e-02 1.32511560821935e-04
9.00547619047619e+00 1.49607315181418e-02 1.32168621115557e-04
9.05738095238095e+00 1.48789475689186e-02 1.31824379190487e-04
9.10928571428571e+00 1.47976106977406e-02 1.31478874856221e-04
9.16119047619048e+00 1.47167184605341e-02 1.31132147188522e-04
9.21309523809524e+00 1.46362684267632e-02 1.30784234612802e-04
9.26500000000000e+00 1.45562581790897e-02 1.30435174987769e-04
9.31690476190476e+00 1.44766853133899e-02 1.30085005508100e-04
9.36880952380952e+00 1.43975474386822e-02 1.29733762751847e-04
9.42071428571429e+00 1.43188421770559e-02 1.29381482724986e-04
9.47261904761905e+00 1.42405671635166e-02 1.29028200770484e-04
9.52452380952381e+00 1.41627200461644e-02 1.28673951646634e-04
9.57642857142857e+00 1.40852984858725e-02 1.28318769605708e-04
9.62833333333333e+00 1.40083001563013e-02 1.27962688300593e-04
9.68023809523810e+00 1.39317227438283e-02 1.27605740861447e-04
9.73214285714286e+00 1.38555639474007e-02 1.27247959807748e-04
9.78404761904762e+00 1.37798214787014e-02 1.26889377122868e-04
9.83595238095238e+00 1.37044930618436e-02 1.26530024328996e-04
9.88785714285714e+00 1.36295764333819e-02 1.26169932396876e-04
9.93976190476191e+00 1.35550693422439e-02 1.25809131818813e-04
9.99166666666667e+00 1.34809695495895e-02 1.25447652369999e-04
1.00435714285714e+01 1.34072748293302e-02 1.25085523764530e-04
1.00954761904762e+01 1.33339829664505e-02 1.24722775171212e-04
1.01473809523810e+01 1.32610917587048e-02 1.24359434512853e-04
1.01992857142857e+01 1.31885990165971e-02 1.23995530132501e-04
1.02511904761905e+01 1.31165025611757e-02 1.23631089913778e-04
1.03030952380952e+01 1.30448002261139e-02 1.23266140379411e-04
1.03550000000000e+01 1.29734898576173e-02 1.22900708506437e-04
1.04069047619048e+01 1.29025693122826e-02 1.22534820545058e-04
1.04588095238095e+01 1.28320364597897e-02 1.22168502296459e-04
1.05107142857143e+01 1.27618891801144e-02 1.21801779439416e-04
1.05626190476190e+01 1.26921253654979e-02 1.21434676364122e-04
1.06145238095238e+01 1.26227429203578e-02 1.21067217913868e-04
1.06664285714286e+01 1.25537397592564e-02 1.20699428529066e-04
1.07183333333333e+01 1.24851138088133e-02 1.20331331400494e-04
1.07702380952381e+01 1.24168630076167e-02 1.19962950172697e-04
1.08221428571429e+01 1.23489853042511e-02 1.19594307834117e-04
1.08740476190476e+01 1.22814786597731e-02 1.19225426977818e-04
1.09259523809524e+01 1.22143410451427e-02 1.18856330107575e-04
1.09778571428571e+01 1.21475704430338e-02 1.18487038541894e-04
1.10297619047619e+01 1.20811648477513e-02 1.18117574049303e-04
1.10816666666667e+01 1.20151222633565e-02 1.17747957782821e-04
1.11335714285714e+01 1.19494407060153e-02 1.17378210529749e-04
1.11854761904762e+01 1.18841182015583e-02 1.17008353004798e-04
1.12373809523810e+01 1.18191527871998e-02 1.16638404797793e-04
1.12892857142857e+01 1.17545425114553e-02 1.16268385944093e-04
1.13411904761905e+01 1.16902854323621e-02 1.15898316151373e-04
1.13930952380952e+01 1.16263796191475e-02 1.15528214034760e-04
1.14450000000000e+01 1.15628231521494e-02 1.15158098653347e-04
1.14969047619048e+01 1.14996141210856e-02 1.14787988507876e-04
1.15488095238095e+01 1.14367506272180e-02 1.14417901775520e-04
1.16007142857143e+01 1.13742307810991e-02 1.14047856585050e-04
1.16526190476190e+01 1.13120527041559e-02 1.13677870026831e-04
1.17045238095238e+01 1.12502145286130e-02 1.13307959629099e-04
1.17564285714286e+01 1.11887143958466e-02 1.12938142630541e-04
1.18083333333333e+01 1.11275504579237e-02 1.12568435260710e-04
1.18602380952381e+01 1.10667208775265e-02 1.12198854184735e-04
1.19121428571429e+01 1.10062238263517e-02 1.11829415559932e-04
1.19640476190476e+01 1.09460574871085e-02 1.11460135256640e-04
1.20159523809524e+01 1.08862200514339e-02 1.11091029116733e-04
1.20678571428571e+01 1.08267097213549e-02 1.10722112021705e-04
1.21197619047619e+01 1.07675247092154e-02 1.10353399281350e-04
1.21716666666667e+01 1.07086632361529e-02 1.09984905727025e-04
1.22235714285714e+01 1.06501235339973e-02 1.09616645923591e-04
1.22754761904762e+01 1.05919038432867e-02 1.09248634417375e-04
1.23273809523810e+01 1.05340024146574e-02 1.08880884840346e-04
1.23792857142857e+01 1.04764175087734e-02 1.08513411245354e-04
1.24311904761905e+01 1.04191473948755e-02 1.08146227447351e-04
1.24830952380952e+01 1.03621903521321e-02 1.07779346371710e-04
1.25350000000000e+01 1.03055446695714e-02 1.07412781361274e-04
1.25869047619048e+01 1.02492086446678e-02 1.07046545322160e-04
1.26388095238095e+01 1.01931805850997e-02 1.06680650923353e-04
1.26907142857143e+01 1.01374588069096e-02 1.06315110829940e-04
1.27426190476190e+01 1.00820416357901e-02 1.05949936859116e-04
1.27945238095238e+01 1.00269274070167e-02 1.05585141237423e-04
1.28464285714286e+01 9.97211446410259e-03 1.05220735980107e-04
1.28983333333333e+01 9.91760116004863e-03 1.04856732277163e-04
1.29502380952381e+01 9.86338585727788e-03 1.04493141724260e-04
1.30021428571429e+01 9.80946692632551e-03 1.04129975517639e-04
1.30540476190476e+01 9.75584274746524e-03 1.03767244642179e-04
1.31059523809524e+01 9.70251170900325e-03 1.03404960090933e-04
1.31578571428571e+01 9.64947220846777e-03 1.03043132069588e-04
1.32097619047619e+01 9.59672265254654e-03 1.02681771180870e-04
1.32616666666667e+01 9.54426145583690e-03 1.02320887650000e-04
1.33135714285714e+01 9.49208704239466e-03 1.01960491505378e-04
1.33654761904762e+01 9.44019784410723e-03 1.01600592789426e-04
1.34173809523810e+01 9.38859230182692e-03 1.01241200793175e-04
1.34692857142857e+01 9.33726886530969e-03 1.00882325196199e-04
1.35211904761905e+01 9.28622599202326e-03 1.00523975503279e-04
1.35730952380952e+01 9.23546214824987e-03 1.00166160487202e-04
1.36250000000000e+01 9.18497580902648e-03 9.98088893051283e-05
1.36769047619048e+01 9.13476545698357e-03 9.94521707679806e-05
1.37288095238095e+01 9.08482958378150e-03 9.90960135108822e-05
1.37807142857143e+01 9.03516668859871e-03 9.87404261918206e-05
1.38326190476190e+01 8.98577527918247e-03 9.83854167695943e-05
1.38845238095238e+01 8.93665387179102e-03 9.80309935786106e-05
1.39364285714286e+01 8.88780099008510e-03 9.76771647975534e-05
1.39883333333333e+01 8.83921516615100e-03 9.73239379237920e-05
1.40402380952381e+01 8.79089494044361e-03 9.69713208260787e-05
1.40921428571429e+01 8.74283886070643e-03 9.66193210551765e-05
1.41440476190476e+01 8.69504548330490e-03 9.62679460046587e-05
1.41959523809524e+01 8.64751337182028e-03 9.59172030981782e-05
1.42478571428571e+01 8.60024109802466e-03 9.55670991080748e-05
1.42997619047619e+01 8.55322724182638e-03 9.52176411692024e-05
1.43516666666667e+01 8.50647039023812e-03 9.48688361151302e-05
1.44035714285714e+01 8.45996913864864e-03 9.45206906328033e-05
1.44554761904762e+01 8.41372208947983e-03 9.41732114426114e-05
1.45073809523810e+01 8.36772785311701e-03 9.38264046422245e-05
1.45592857142857e+01 8.32198504785554e-03 9.34802766831857e-05
1.46111904761905e+01 8.27649229891521e-03 9.31348338877347e-05
1.46630952380952e+01 8.23124823934616e-03 9.27900819708730e-05
1.47150000000000e+01 8.18625150997676e-03 9.24460269970849e-05
1.47669047619048e+01 8.14150075845259e-03 9.21026747535411e-05
1.48188095238095e+01 8.09699464041861e-03 9.17600308961545e-05
1.48707142857143e+01 8.05273181826832e-03 9.14181011194687e-05
1.49226190476190e+01 8.00871096200821e-03 9.10768905370169e-05
1.49745238095238e+01 7.96493074920732e-03 9.07364046031640e-05
1.50264285714286e+01 7.92138986407852e-03 9.03966486569025e-05
1.50783333333333e+01 7.87808699832088e-03 9.00576274705506e-05
1.51302380952381e+01 7.83502085106985e-03 8.97193461529432e-05
1.51821428571429e+01 7.79219012800167e-03 8.93818095573882e-05
1.52340476190476e+01 7.74959354243299e-03 8.90450224196320e-05
1.52859523809524e+01 7.70722981415502e-03 8.87089895182011e-05
1.53378571428571e+01 7.66509767023741e-03 8.83737150890771e-05
1.53897619047619e+01 7.62319584498054e-03 8.80392036961667e-05
1.54416666666667e+01 7.58152307905848e-03 8.77054596608220e-05
1.54935714285714e+01 7.54007812056938e-03 8.73724871946468e-05
1.55454761904762e+01 7.49885972392044e-03 8.70402905538034e-05
1.55973809523810e+01 7.45786665059595e-03 8.67088734749687e-05
1.56492857142857e+01 7.41709766911059e-03 8.63782400144408e-05
1.57011904761905e+01 7.37655155418984e-03 8.60483941325878e-05
1.57530952380952e+01 7.33622708751837e-03 8.57193392828063e-05
1.58050000000000e+01 7.29612305769446e-03 8.53910792337984e-05
1.58569047619048e+01 7.25623825943024e-03 8.50636175303959e-05
1.59088095238095e+01 7.21657149453004e-03 8.47369576190983e-05
1.59607142857143e+01 7.17712157084975e-03 8.44111029938093e-05
1.60126190476190e+01 7.13788730301200e-03 8.40860566627170e-05
1.60645238095238e+01 7.09886751236189e-03 8.37618219411208e-05
1.61164285714286e+01 7.06006102620157e-03 8.34384020587097e-05
1.61683333333333e+01 7.02146667848748e-03 8.31157997711146e-05
1.62202380952381e+01 6.98308330978675e-03 8.27940181368793e-05
1.62721428571429e+01 6.94490976653049e-03 8.24730600077415e-05
1.63240476190476e+01 6.90694490192551e-03 8.21529281473388e-05
1.63759523809524e+01 6.86918757498262e-03 8.18336253688962e-05
