Energy (eV)          EEDF (eV^-(3/2))     First Anisotropy
2.62647058823529e-04 2.68681711777603e+02 0.00000000000000e+00
7.87941176470588e-04 2.63277197943822e+02 0.00000000000000e+00
1.31323529411765e-03 2.57981395527673e+02 0.00000000000000e+00
1.83852941176471e-03 2.52792117806598e+02 0.00000000000000e+00
2.36382352941176e-03 2.47707222043808e+02 0.00000000000000e+00
2.88911764705882e-03 2.42724608603517e+02 0.00000000000000e+00
3.41441176470588e-03 2.37842220083962e+02 0.00000000000000e+00
3.93970588235294e-03 2.33058040467876e+02 0.00000000000000e+00
4.46500000000000e-03 2.28370094290038e+02 0.00000000000000e+00
4.99029411764706e-03 2.23776445821569e+02 0.00000000000000e+00
5.51558823529412e-03 2.19275198270643e+02 0.00000000000000e+00
6.04088235294118e-03 2.14864492999270e+02 0.00000000000000e+00
6.56617647058824e-03 2.10542508755829e+02 0.00000000000000e+00
7.09147058823529e-03 2.06307460923054e+02 0.00000000000000e+00
7.61676470588235e-03 2.02157600781124e+02 0.00000000000000e+00
8.14205882352941e-03 1.98091214785600e+02 0.00000000000000e+00
8.66735294117647e-03 1.94106623859866e+02 0.00000000000000e+00
9.19264705882353e-03 1.90202182701817e+02 0.00000000000000e+00
9.71794117647059e-03 1.86376279104484e+02 0.00000000000000e+00
1.02432352941176e-02 1.82627333290327e+02 0.00000000000000e+00
1.07685294117647e-02 1.78953797258922e+02 0.00000000000000e+00
1.12938235294118e-02 1.75354154147766e+02 0.00000000000000e+00
1.18191176470588e-02 1.71826917605938e+02 0.00000000000000e+00
1.23444117647059e-02 1.68370631180362e+02 0.00000000000000e+00
1.28697058823529e-02 1.64983867714413e+02 0.00000000000000e+00
1.33950000000000e-02 1.61665228758622e+02 0.00000000000000e+00
1.39202941176471e-02 1.58413343993236e+02 0.00000000000000e+00
1.44455882352941e-02 1.55226870662383e+02 0.00000000000000e+00
1.49708823529412e-02 1.52104493019635e+02 0.00000000000000e+00
1.54961764705882e-02 1.49044921784710e+02 0.00000000000000e+00
1.60214705882353e-02 1.46046893611109e+02 0.00000000000000e+00
1.65467647058824e-02 1.43109170564459e+02 0.00000000000000e+00
1.70720588235294e-02 1.40230539611352e+02 0.00000000000000e+00
1.75973529411765e-02 1.37409812118460e+02 0.00000000000000e+00
1.81226470588235e-02 1.34645823361732e+02 0.00000000000000e+00
1.86479411764706e-02 1.31937432045460e+02 0.00000000000000e+00
1.91732352941176e-02 1.29283519831020e+02 0.00000000000000e+00
1.96985294117647e-02 1.26682990875088e+02 0.00000000000000e+00
2.02238235294118e-02 1.24134771377156e+02 0.00000000000000e+00
2.07491176470588e-02 1.21637809136136e+02 0.00000000000000e+00
2.12744117647059e-02 1.19191073115892e+02 0.00000000000000e+00
2.17997058823529e-02 1.16793553019506e+02 0.00000000000000e+00
2.23250000000000e-02 1.14444258872113e+02 0.00000000000000e+00
2.28502941176471e-02 1.12142220612124e+02 0.00000000000000e+00
2.33755882352941e-02 1.09886487690670e+02 0.00000000000000e+00
2.39008823529412e-02 1.07676128679106e+02 0.00000000000000e+00
2.44261764705882e-02 1.05510230884410e+02 0.00000000000000e+00
2.49514705882353e-02 1.03387899972314e+02 0.00000000000000e+00
2.54767647058824e-02 1.01308259598024e+02 0.00000000000000e+00
2.60020588235294e-02 9.92704510443581e+01 0.00000000000000e+00
2.65273529411765e-02 9.72736328671716e+01 0.00000000000000e+00
2.70526470588235e-02 9.53169805479095e+01 0.00000000000000e+00
2.75779411764706e-02 9.33996861531500e+01 0.00000000000000e+00
2.81032352941176e-02 9.15209580009953e+01 0.00000000000000e+00
2.86285294117647e-02 8.96800203341739e+01 0.00000000000000e+00
2.91538235294118e-02 8.78761129997173e+01 0.00000000000000e+00
2.96791176470588e-02 8.61084911350808e+01 0.00000000000000e+00
3.02044117647059e-02 8.43764248605778e+01 0.00000000000000e+00
3.07297058823529e-02 8.26791989780004e+01 0.00000000000000e+00
3.12550000000000e-02 8.10161126753027e+01 0.00000000000000e+00
3.17802941176471e-02 7.93864792372240e+01 0.00000000000000e+00
3.23055882352941e-02 7.77896257617330e+01 0.00000000000000e+00
3.28308823529412e-02 7.62248928821759e+01 0.00000000000000e+00
3.33561764705882e-02 7.46916344950128e+01 0.00000000000000e+00
3.38814705882353e-02 7.31892174930313e+01 0.00000000000000e+00
3.44067647058824e-02 7.17170215039263e+01 0.00000000000000e+00
3.49320588235294e-02 7.02744386341382e+01 0.00000000000000e+00
3.54573529411765e-02 6.88608732178441e+01 0.00000000000000e+00
3.59826470588235e-02 6.74757415709969e+01 0.00000000000000e+00
3.65079411764706e-02 6.61184717503138e+01 0.00000000000000e+00
3.70332352941176e-02 6.47885033171108e+01 0.00000000000000e+00
3.75585294117647e-02 6.34852871058888e+01 0.00000000000000e+00
3.80838235294118e-02 6.22082849975746e+01 0.00000000000000e+00
3.86091176470588e-02 6.09569696973223e+01 0.00000000000000e+00
3.91344117647059e-02 5.97308245167848e+01 0.00000000000000e+00
3.96597058823529e-02 5.85293431607651e+01 0.00000000000000e+00
4.01850000000000e-02 5.73520295181588e+01 0.00000000000000e+00
4.07102941176471e-02 5.61983974571015e+01 0.00000000000000e+00
4.12355882352941e-02 5.50679706242371e+01 0.00000000000000e+00
4.17608823529412e-02 5.39602822480242e+01 0.00000000000000e+00
4.22861764705882e-02 5.28748749459981e+01 0.00000000000000e+00
4.28114705882353e-02 5.18113005359105e+01 0.00000000000000e+00
4.33367647058824e-02 5.07691198506676e+01 0.00000000000000e+00
4.38620588235294e-02 4.97479025569910e+01 0.00000000000000e+00
4.43873529411765e-02 4.87472269777260e+01 0.00000000000000e+00
4.49126470588235e-02 4.77666799177246e+01 0.00000000000000e+00
4.54379411764706e-02 4.68058564932300e+01 0.00000000000000e+00
4.59632352941176e-02 4.58643599646940e+01 0.00000000000000e+00
4.64885294117647e-02 4.49418015729566e+01 0.00000000000000e+00
4.70138235294118e-02 4.40378003787211e+01 0.00000000000000e+00
4.75391176470588e-02 4.31519831052582e+01 0.00000000000000e+00
4.80644117647059e-02 4.22839839842738e+01 0.00000000000000e+00
4.85897058823529e-02 4.14334446048775e+01 0.00000000000000e+00
4.91150000000000e-02 4.06000137655887e+01 0.00000000000000e+00
4.96402941176471e-02 3.97833473293203e+01 0.00000000000000e+00
5.01655882352941e-02 3.89831080812784e+01 0.00000000000000e+00
5.06908823529412e-02 3.81989655897213e+01 0.00000000000000e+00
5.12161764705882e-02 3.74305960695184e+01 0.00000000000000e+00
5.17414705882353e-02 3.66776822484545e+01 0.00000000000000e+00
5.22667647058824e-02 3.59399132362228e+01 0.00000000000000e+00
5.27920588235294e-02 3.52169843960534e+01 0.00000000000000e+00
5.33173529411765e-02 3.45085972189233e+01 0.00000000000000e+00
5.38426470588235e-02 3.38144592002982e+01 0.00000000000000e+00
5.43679411764706e-02 3.31342837193515e+01 0.00000000000000e+00
5.48932352941176e-02 3.24677899206148e+01 0.00000000000000e+00
5.54185294117647e-02 3.18147025980077e+01 0.00000000000000e+00
5.59438235294118e-02 3.11747520812009e+01 0.00000000000000e+00
5.64691176470588e-02 3.05476741242647e+01 0.00000000000000e+00
5.69944117647059e-02 2.99332097965581e+01 0.00000000000000e+00
5.75197058823529e-02 2.93311053758116e+01 0.00000000000000e+00
5.80450000000000e-02 2.87411122433615e+01 0.00000000000000e+00
5.85702941176471e-02 2.81629867814911e+01 0.00000000000000e+00
5.90955882352941e-02 2.75964902728370e+01 0.00000000000000e+00
5.96208823529412e-02 2.70413888018189e+01 0.00000000000000e+00
6.01461764705882e-02 2.64974531580521e+01 0.00000000000000e+00
6.06714705882353e-02 2.59644587417025e+01 0.00000000000000e+00
6.11967647058824e-02 2.54421854707462e+01 0.00000000000000e+00
6.17220588235294e-02 2.49304176900938e+01 0.00000000000000e+00
6.22473529411765e-02 2.44289440825427e+01 0.00000000000000e+00
6.27726470588235e-02 2.39375575815214e+01 0.00000000000000e+00
6.32979411764706e-02 2.34560552855877e+01 0.00000000000000e+00
6.38232352941176e-02 2.29842383746479e+01 0.00000000000000e+00
6.43485294117647e-02 2.25219120278603e+01 0.00000000000000e+00
6.48738235294118e-02 2.20688853431913e+01 0.00000000000000e+00
6.53991176470588e-02 2.16249712585878e+01 0.00000000000000e+00
6.59244117647059e-02 2.11899864747372e+01 0.00000000000000e+00
6.64497058823529e-02 2.07637513793795e+01 0.00000000000000e+00
6.69750000000000e-02 2.03460899731429e+01 0.00000000000000e+00
6.75002941176471e-02 1.99368297968707e+01 0.00000000000000e+00
6.80255882352941e-02 1.95358018604097e+01 0.00000000000000e+00
6.85508823529412e-02 1.91428405728323e+01 0.00000000000000e+00
6.90761764705882e-02 1.87577836740606e+01 0.00000000000000e+00
6.96014705882353e-02 1.83804721678666e+01 0.00000000000000e+00
7.01267647058823e-02 1.80107502562208e+01 0.00000000000000e+00
7.06520588235294e-02 1.76484652749597e+01 0.00000000000000e+00
7.11773529411765e-02 1.72934676307489e+01 0.00000000000000e+00
7.17026470588235e-02 1.69456107393137e+01 0.00000000000000e+00
7.22279411764706e-02 1.66047509649115e+01 0.00000000000000e+00
7.27532352941176e-02 1.62707475610227e+01 0.00000000000000e+00
7.32785294117647e-02 1.59434626122342e+01 0.00000000000000e+00
7.38038235294118e-02 1.56227609772918e+01 0.00000000000000e+00
7.43291176470588e-02 1.53085102332979e+01 0.00000000000000e+00
7.48544117647059e-02 1.50005806210326e+01 0.00000000000000e+00
7.53797058823529e-02 1.46988449913733e+01 0.00000000000000e+00
7.59050000000000e-02 1.44031787527934e+01 0.00000000000000e+00
7.64302941176471e-02 1.41134598199158e+01 0.00000000000000e+00
7.69555882352941e-02 1.38295685631026e+01 0.00000000000000e+00
7.74808823529412e-02 1.35513877590574e+01 0.00000000000000e+00
7.80061764705882e-02 1.32788025424223e+01 0.00000000000000e+00
7.85314705882353e-02 1.30117003583482e+01 0.00000000000000e+00
7.90567647058824e-02 1.27499709160185e+01 0.00000000000000e+00
7.95820588235294e-02 1.24935061431091e+01 0.00000000000000e+00
8.01073529411765e-02 1.22422001411629e+01 0.00000000000000e+00
8.06326470588235e-02 1.19959491418630e+01 0.00000000000000e+00
8.11579411764706e-02 1.17546514641847e+01 0.00000000000000e+00
8.16832352941176e-02 1.15182074724103e+01 0.00000000000000e+00
8.22085294117647e-02 1.12865195349873e+01 0.00000000000000e+00
8.27338235294118e-02 1.10594919842153e+01 0.00000000000000e+00
8.32591176470588e-02 1.08370310767429e+01 0.00000000000000e+00
8.37844117647059e-02 1.06190449548595e+01 0.00000000000000e+00
8.43097058823529e-02 1.04054436085661e+01 0.00000000000000e+00
8.48350000000000e-02 1.01961388384086e+01 0.00000000000000e+00
8.53602941176471e-02 9.99104421905853e+00 0.00000000000000e+00
8.58855882352941e-02 9.79007506362702e+00 0.00000000000000e+00
8.64108823529412e-02 9.59314838869597e+00 0.00000000000000e+00
8.69361764705882e-02 9.40018288005296e+00 0.00000000000000e+00
8.74614705882353e-02 9.21109885911524e+00 0.00000000000000e+00
8.79867647058823e-02 9.02581825002921e+00 0.00000000000000e+00
8.85120588235294e-02 8.84426454743158e+00 0.00000000000000e+00
8.90373529411765e-02 8.66636278485908e+00 0.00000000000000e+00
8.95626470588235e-02 8.49203950379363e+00 0.00000000000000e+00
9.00879411764706e-02 8.32122272333008e+00 0.00000000000000e+00
9.06132352941176e-02 8.15384191045417e+00 0.00000000000000e+00
9.11385294117647e-02 7.98982795091826e+00 0.00000000000000e+00
9.16638235294118e-02 7.82911312070299e+00 0.00000000000000e+00
9.21891176470588e-02 7.67163105805291e+00 0.00000000000000e+00
9.27144117647059e-02 7.51731673607462e+00 0.00000000000000e+00
9.32397058823529e-02 7.36610643588615e+00 0.00000000000000e+00
9.37650000000000e-02 7.21793772030637e+00 0.00000000000000e+00
9.42902941176471e-02 7.07274940807368e+00 0.00000000000000e+00
9.48155882352941e-02 6.93048154858328e+00 0.00000000000000e+00
9.53408823529412e-02 6.79107539713260e+00 0.00000000000000e+00
9.58661764705882e-02 6.65447339066464e+00 0.00000000000000e+00
9.63914705882353e-02 6.52061912399927e+00 0.00000000000000e+00
9.69167647058824e-02 6.38945732654260e+00 0.00000000000000e+00
9.74420588235294e-02 6.26093383946489e+00 0.00000000000000e+00
9.79673529411765e-02 6.13499559333745e+00 0.00000000000000e+00
9.84926470588235e-02 6.01159058621945e+00 0.00000000000000e+00
9.90179411764706e-02 5.89066786218546e+00 0.00000000000000e+00
9.95432352941176e-02 5.77217749028492e+00 0.00000000000000e+00
1.00068529411765e-01 5.65607054392484e+00 0.00000000000000e+00
1.00593823529412e-01 5.54229908066724e+00 0.00000000000000e+00
1.01119117647059e-01 5.43081612243291e+00 0.00000000000000e+00
1.01644411764706e-01 5.32157563610343e+00 0.00000000000000e+00
1.02169705882353e-01 5.21453251451334e+00 0.00000000000000e+00
1.02695000000000e-01 5.10964255782463e+00 0.00000000000000e+00
1.03220294117647e-01 5.00686245527598e+00 0.00000000000000e+00
1.03745588235294e-01 4.90614976729896e+00 0.00000000000000e+00
1.04270882352941e-01 4.80746290799412e+00 0.00000000000000e+00
1.04796176470588e-01 4.71076112795946e+00 0.00000000000000e+00
1.05321470588235e-01 4.61600449746434e+00 0.00000000000000e+00
1.05846764705882e-01 4.52315388996188e+00 0.00000000000000e+00
1.06372058823529e-01 4.43217096593293e+00 0.00000000000000e+00
1.06897352941176e-01 4.34301815705510e+00 0.00000000000000e+00
1.07422647058824e-01 4.25565865069017e+00 0.00000000000000e+00
1.07947941176471e-01 4.17005637468356e+00 0.00000000000000e+00
1.08473235294118e-01 4.08617598246956e+00 0.00000000000000e+00
1.08998529411765e-01 4.00398283847617e+00 0.00000000000000e+00
1.09523823529412e-01 3.92344300382346e+00 0.00000000000000e+00
1.10049117647059e-01 3.84452322230972e+00 0.00000000000000e+00
1.10574411764706e-01 3.76719090667943e+00 0.00000000000000e+00
1.11099705882353e-01 3.69141412516739e+00 0.00000000000000e+00
1.11625000000000e-01 3.61716158831366e+00 0.00000000000000e+00
1.12150294117647e-01 3.54440263604358e+00 0.00000000000000e+00
1.12675588235294e-01 3.47310722500774e+00 0.00000000000000e+00
1.13200882352941e-01 3.40324591617663e+00 0.00000000000000e+00
1.13726176470588e-01 3.33478986268473e+00 0.00000000000000e+00
1.14251470588235e-01 3.26771079791921e+00 0.00000000000000e+00
1.14776764705882e-01 3.20198102384819e+00 0.00000000000000e+00
1.15302058823529e-01 3.13757339958374e+00 0.00000000000000e+00
1.15827352941176e-01 3.07446133017503e+00 0.00000000000000e+00
1.16352647058824e-01 3.01261875562676e+00 0.00000000000000e+00
1.16877941176471e-01 2.95202014013864e+00 0.00000000000000e+00
1.17403235294118e-01 2.89264046156122e+00 0.00000000000000e+00
1.17928529411765e-01 2.83445520106382e+00 0.00000000000000e+00
1.18453823529412e-01 2.77744033301032e+00 0.00000000000000e+00
1.18979117647059e-01 2.72157231503860e+00 0.00000000000000e+00
1.19504411764706e-01 2.66682807833952e+00 0.00000000000000e+00
1.20029705882353e-01 2.61318501813140e+00 0.00000000000000e+00
1.20555000000000e-01 2.56062098432617e+00 0.00000000000000e+00
1.21080294117647e-01 2.50911427238322e+00 0.00000000000000e+00
1.21605588235294e-01 2.45864361434729e+00 0.00000000000000e+00
1.22130882352941e-01 2.40918817006651e+00 0.00000000000000e+00
1.22656176470588e-01 2.36072751858722e+00 0.00000000000000e+00
1.23181470588235e-01 2.31324164972184e+00 0.00000000000000e+00
1.23706764705882e-01 2.26671095578629e+00 0.00000000000000e+00
1.24232058823529e-01 2.22111622350367e+00 0.00000000000000e+00
1.24757352941176e-01 2.17643862607084e+00 0.00000000000000e+00
1.25282647058824e-01 2.13265971538444e+00 0.00000000000000e+00
1.25807941176471e-01 2.08976141442346e+00 0.00000000000000e+00
1.26333235294118e-01 2.04772600978488e+00 0.00000000000000e+00
1.26858529411765e-01 2.00653614436955e+00 0.00000000000000e+00
1.27383823529412e-01 1.96617481021516e+00 0.00000000000000e+00
1.27909117647059e-01 1.92662534147335e+00 0.00000000000000e+00
1.28434411764706e-01 1.88787140752816e+00 0.00000000000000e+00
1.28959705882353e-01 1.84989700625282e+00 0.00000000000000e+00
1.29485000000000e-01 1.81268645740221e+00 0.00000000000000e+00
1.30010294117647e-01 1.77622439613825e+00 0.00000000000000e+00
1.30535588235294e-01 1.74049576668550e+00 0.00000000000000e+00
1.31060882352941e-01 1.70548581611440e+00 0.00000000000000e+00
1.31586176470588e-01 1.67118008824952e+00 0.00000000000000e+00
1.32111470588235e-01 1.63756441770041e+00 0.00000000000000e+00
1.32636764705882e-01 1.60462492401244e+00 0.00000000000000e+00
1.33162058823529e-01 1.57234800593535e+00 0.00000000000000e+00
1.33687352941176e-01 1.54072033580708e+00 0.00000000000000e+00
1.34212647058824e-01 1.50972885405058e+00 0.00000000000000e+00
1.34737941176471e-01 1.47936076378126e+00 0.00000000000000e+00
1.35263235294118e-01 1.44960352552297e+00 0.00000000000000e+00
1.35788529411765e-01 1.42044485203024e+00 0.00000000000000e+00
1.36313823529412e-01 1.39187270321471e+00 0.00000000000000e+00
1.36839117647059e-01 1.36387528117351e+00 0.00000000000000e+00
1.37364411764706e-01 1.33644102531780e+00 0.00000000000000e+00
1.37889705882353e-01 1.30955860759915e+00 0.00000000000000e+00
1.38415000000000e-01 1.28321692783206e+00 0.00000000000000e+00
1.38940294117647e-01 1.25740510911046e+00 0.00000000000000e+00
1.39465588235294e-01 1.23211249331649e+00 0.00000000000000e+00
1.39990882352941e-01 1.20732863671959e+00 0.00000000000000e+00
1.40516176470588e-01 1.18304330566411e+00 0.00000000000000e+00
1.41041470588235e-01 1.15924647234365e+00 0.00000000000000e+00
1.41566764705882e-01 1.13592831066047e+00 0.00000000000000e+00
1.42092058823529e-01 1.11307919216806e+00 0.00000000000000e+00
1.42617352941176e-01 1.09068968209545e+00 0.00000000000000e+00
1.43142647058824e-01 1.06875053545146e+00 0.00000000000000e+00
1.43667941176471e-01 1.04725269320720e+00 0.00000000000000e+00
1.44193235294118e-01 1.02618727855557e+00 0.00000000000000e+00
1.44718529411765e-01 1.00554559324580e+00 0.00000000000000e+00
1.45243823529412e-01 9.85319113991805e-01 0.00000000000000e+00
1.45769117647059e-01 9.65499488952839e-01 0.00000000000000e+00
1.46294411764706e-01 9.46078534284828e-01 0.00000000000000e+00
1.46819705882353e-01 9.27048230761156e-01 0.00000000000000e+00
1.47345000000000e-01 9.08400720461385e-01 0.00000000000000e+00
1.47870294117647e-01 8.90128303526600e-01 0.00000000000000e+00
1.48395588235294e-01 8.72223434980007e-01 0.00000000000000e+00
1.48920882352941e-01 8.54678721611494e-01 0.00000000000000e+00
1.49446176470588e-01 8.37486918924853e-01 0.00000000000000e+00
1.49971470588235e-01 8.20640928146410e-01 0.00000000000000e+00
1.50496764705882e-01 8.04133793293827e-01 0.00000000000000e+00
1.51022058823529e-01 7.87958698303862e-01 0.00000000000000e+00
1.51547352941176e-01 7.72108964217912e-01 0.00000000000000e+00
1.52072647058824e-01 7.56578046424157e-01 0.00000000000000e+00
1.52597941176471e-01 7.41359531955184e-01 0.00000000000000e+00
1.53123235294118e-01 7.26447136839974e-01 0.00000000000000e+00
1.53648529411765e-01 7.11834703509143e-01 0.00000000000000e+00
1.54173823529412e-01 6.97516198252386e-01 0.00000000000000e+00
1.54699117647059e-01 6.83485708727058e-01 0.00000000000000e+00
1.55224411764706e-01 6.69737441516874e-01 0.00000000000000e+00
1.55749705882353e-01 6.56265719739708e-01 0.00000000000000e+00
1.56275000000000e-01 6.43064980703526e-01 0.00000000000000e+00
1.56800294117647e-01 6.30129773609452e-01 0.00000000000000e+00
1.57325588235294e-01 6.17454757301049e-01 0.00000000000000e+00
1.57850882352941e-01 6.05034698058867e-01 0.00000000000000e+00
1.58376176470588e-01 5.92864467439358e-01 0.00000000000000e+00
1.58901470588235e-01 5.80939040157257e-01 0.00000000000000e+00
1.59426764705882e-01 5.69253492010558e-01 0.00000000000000e+00
1.59952058823529e-01 5.57802997847238e-01 0.00000000000000e+00
1.60477352941176e-01 5.46582829572866e-01 0.00000000000000e+00
1.61002647058824e-01 5.35588354198301e-01 0.00000000000000e+00
1.61527941176471e-01 5.24815031926654e-01 0.00000000000000e+00
1.62053235294118e-01 5.14258414278733e-01 0.00000000000000e+00
1.62578529411765e-01 5.03914142256195e-01 0.00000000000000e+00
1.63103823529412e-01 4.93777944541640e-01 0.00000000000000e+00
1.63629117647059e-01 4.83845635734924e-01 0.00000000000000e+00
1.64154411764706e-01 4.74113114624929e-01 0.00000000000000e+00
1.64679705882353e-01 4.64576362496115e-01 0.00000000000000e+00
1.65205000000000e-01 4.55231441469122e-01 0.00000000000000e+00
1.65730294117647e-01 4.46074492874760e-01 0.00000000000000e+00
