Energy (eV)          EEDF (eV^-(3/2))     First Anisotropy
3.58333333333333e-03 9.48642323219345e-01 4.79517617331357e-04
1.07500000000000e-02 9.42592642050468e-01 7.91957488156324e-04
1.79166666666667e-02 9.36581540918446e-01 1.04583824362022e-03
2.50833333333333e-02 9.30608773766340e-01 1.23893559423624e-03
3.22500000000000e-02 9.24674096132426e-01 1.40016520344434e-03
3.94166666666667e-02 9.18777265133556e-01 1.54045170463878e-03
4.65833333333333e-02 9.12918039396574e-01 1.66544467744238e-03
5.37500000000000e-02 9.07096179105662e-01 1.77855341774182e-03
6.09166666666667e-02 9.01311445985372e-01 1.88203751344403e-03
6.80833333333333e-02 8.95563603258119e-01 1.97749292701522e-03
7.52500000000000e-02 8.89852415666714e-01 2.06610028293367e-03
8.24166666666667e-02 8.84177649461836e-01 2.14876434224830e-03
8.95833333333333e-02 8.78539072369867e-01 2.22619806627491e-03
9.67500000000000e-02 8.72936453605738e-01 2.29897612657269e-03
1.03916666666667e-01 8.67369563877271e-01 2.36757049929884e-03
1.11083333333333e-01 8.61838175297014e-01 2.43237498066755e-03
1.18250000000000e-01 8.56342061467841e-01 2.49372259046140e-03
1.25416666666667e-01 8.50880997482226e-01 2.55189827863908e-03
1.32583333333333e-01 8.45454759776129e-01 2.60714835151441e-03
1.39750000000000e-01 8.40063126255978e-01 2.65968761766011e-03
1.46916666666667e-01 8.34705876282446e-01 2.70970494035864e-03
1.54083333333333e-01 8.29382790548028e-01 2.75736754780043e-03
1.61250000000000e-01 8.24093651180983e-01 2.80282444927907e-03
1.68416666666667e-01 8.18838241731133e-01 2.84620921415082e-03
1.75583333333333e-01 8.13616347064754e-01 2.88764219245323e-03
1.82750000000000e-01 8.08427753451721e-01 2.92723233182601e-03
1.89916666666667e-01 8.03272248552695e-01 2.96507871323020e-03
1.97083333333333e-01 7.98149621327200e-01 3.00127179885628e-03
2.04250000000000e-01 7.93059662108027e-01 3.03589447787176e-03
2.11416666666667e-01 7.88002162589412e-01 3.06902298199818e-03
2.18583333333333e-01 7.82976915745514e-01 3.10072763465566e-03
2.25750000000000e-01 7.77983715894821e-01 3.13107349050190e-03
2.32916666666667e-01 7.73022358689086e-01 3.16012091529884e-03
2.40083333333333e-01 7.68092641040215e-01 3.18792605948907e-03
2.47250000000000e-01 7.63194361176637e-01 3.21454126848771e-03
2.54416666666667e-01 7.58327318632842e-01 3.24001546863155e-03
2.61583333333333e-01 7.53491314183211e-01 3.26439447918250e-03
2.68750000000000e-01 7.48686149891791e-01 3.28772128587579e-03
2.75916666666667e-01 7.43911629102339e-01 3.31003630877590e-03
2.83083333333333e-01 7.39167556377967e-01 3.33137761484479e-03
2.90250000000000e-01 7.34453737545438e-01 3.35178110613534e-03
2.97416666666667e-01 7.29769979685615e-01 3.37128071249077e-03
3.04583333333333e-01 7.25116091078080e-01 3.38990854041024e-03
3.11750000000000e-01 7.20491881240783e-01 3.40769500590733e-03
3.18916666666667e-01 7.15897160920857e-01 3.42466897755707e-03
3.26083333333333e-01 7.11331742043512e-01 3.44085788314674e-03
3.33250000000000e-01 7.06795437747720e-01 3.45628780549200e-03
3.40416666666667e-01 7.02288062377349e-01 3.47098359160691e-03
3.47583333333333e-01 6.97809431433782e-01 3.48496893056035e-03
3.54750000000000e-01 6.93359361608181e-01 3.49826642380777e-03
3.61916666666667e-01 6.88937670772904e-01 3.51089767058632e-03
3.69083333333333e-01 6.84544177937405e-01 3.52288332563747e-03
3.76250000000000e-01 6.80178703277506e-01 3.53424315158482e-03
3.83416666666667e-01 6.75841068127089e-01 3.54499608722437e-03
3.90583333333333e-01 6.71531094936885e-01 3.55516029086259e-03
3.97750000000000e-01 6.67248607301140e-01 3.56475317978301e-03
4.04916666666667e-01 6.62993429949544e-01 3.57379148595300e-03
4.12083333333333e-01 6.58765388708602e-01 3.58229128888862e-03
4.19250000000000e-01 6.54564310526001e-01 3.59026804566777e-03
4.26416666666667e-01 6.50390023462755e-01 3.59773663719208e-03
4.33583333333333e-01 6.46242356656906e-01 3.60471139330081e-03
4.40750000000000e-01 6.42121140345832e-01 3.61120611575142e-03
4.47916666666667e-01 6.38026205858608e-01 3.61723411726122e-03
4.55083333333333e-01 6.33957385581795e-01 3.62280824079988e-03
4.62250000000000e-01 6.29914512979931e-01 3.62794087726552e-03
4.69416666666667e-01 6.25897422588077e-01 3.63264399891442e-03
4.76583333333333e-01 6.21905949979512e-01 3.63692917422537e-03
4.83750000000000e-01 6.17939931784583e-01 3.64080758152360e-03
4.90916666666667e-01 6.13999205683439e-01 3.64429003798143e-03
4.98083333333333e-01 6.10083610375454e-01 3.64738701107509e-03
5.05250000000000e-01 6.06192985596602e-01 3.65010862908036e-03
5.12416666666667e-01 6.02327172112372e-01 3.65246470652762e-03
5.19583333333333e-01 5.98486011688768e-01 3.65446475300930e-03
5.26750000000000e-01 5.94669347108357e-01 3.65611798123791e-03
5.33916666666667e-01 5.90877022163347e-01 3.65743332962305e-03
5.41083333333333e-01 5.87108881628044e-01 3.65841946900270e-03
5.48250000000000e-01 5.83364771273692e-01 3.65908480878444e-03
5.55416666666667e-01 5.79644537861712e-01 3.65943751715836e-03
5.62583333333333e-01 5.75948029117495e-01 3.65948552618771e-03
5.69750000000000e-01 5.72275093744148e-01 3.65923653643210e-03
5.76916666666667e-01 5.68625581415886e-01 3.65869803519577e-03
5.84083333333333e-01 5.64999342753061e-01 3.65787730031311e-03
5.91250000000000e-01 5.61396229334910e-01 3.65678140356145e-03
5.98416666666667e-01 5.57816093693090e-01 3.65541722725964e-03
6.05583333333333e-01 5.54258789287863e-01 3.65379146700902e-03
6.12750000000000e-01 5.50724170519918e-01 3.65191063413601e-03
6.19916666666667e-01 5.47212092724058e-01 3.64978107089084e-03
6.27083333333333e-01 5.43722412146445e-01 3.64740895234802e-03
6.34250000000000e-01 5.40254985955587e-01 3.64480028806777e-03
6.41416666666667e-01 5.36809672236164e-01 3.64196093609622e-03
6.48583333333333e-01 5.33386329967260e-01 3.63889660418737e-03
6.55750000000000e-01 5.29984819032589e-01 3.63561285083256e-03
6.62916666666667e-01 5.26605000214445e-01 3.63211509822468e-03
6.70083333333333e-01 5.23246735172870e-01 3.62840863293093e-03
6.77250000000000e-01 5.19909886455165e-01 3.62449860640939e-03
6.84416666666667e-01 5.16594317489973e-01 3.62039004707143e-03
6.91583333333333e-01 5.13299892567315e-01 3.61608786050760e-03
6.98750000000000e-01 5.10026476847445e-01 3.61159682958747e-03
7.05916666666667e-01 5.06773936355062e-01 3.60692162573114e-03
7.13083333333333e-01 5.03542137960156e-01 3.60206680877107e-03
7.20250000000000e-01 5.00330949386264e-01 3.59703682671353e-03
7.27416666666667e-01 4.97140239204801e-01 3.59183602630894e-03
7.34583333333333e-01 4.93969876816670e-01 3.58646865261876e-03
7.41750000000000e-01 4.90819732459963e-01 3.58093884850137e-03
7.48916666666667e-01 4.87689677204408e-01 3.57525066455844e-03
7.56083333333333e-01 4.84579582933702e-01 3.56940805846185e-03
7.63250000000000e-01 4.81489322352688e-01 3.56341489421529e-03
7.70416666666667e-01 4.78418768981926e-01 3.55727495154188e-03
7.77583333333333e-01 4.75367797140696e-01 3.55099192501570e-03
7.84750000000000e-01 4.72336281953704e-01 3.54456942314193e-03
7.91916666666667e-01 4.69324099345758e-01 3.53801097724145e-03
7.99083333333333e-01 4.66331126025414e-01 3.53132004042377e-03
8.06250000000000e-01 4.63357239491239e-01 3.52449998652040e-03
8.13416666666667e-01 4.60402318026591e-01 3.51755411851351e-03
8.20583333333333e-01 4.57466240683879e-01 3.51048566738169e-03
8.27750000000000e-01 4.54548887290401e-01 3.50329779091562e-03
8.34916666666667e-01 4.51650138443238e-01 3.49599358173088e-03
8.42083333333333e-01 4.48769875494085e-01 3.48857606601177e-03
8.49250000000000e-01 4.45907980554705e-01 3.48104820223329e-03
8.56416666666667e-01 4.43064336491926e-01 3.47341288879428e-03
8.63583333333333e-01 4.40238826913013e-01 3.46567296268068e-03
8.70750000000000e-01 4.37431336170767e-01 3.45783119811303e-03
8.77916666666667e-01 4.34641749358618e-01 3.44989031383063e-03
8.85083333333333e-01 4.31869952296522e-01 3.44185297169208e-03
8.92250000000000e-01 4.29115831535712e-01 3.43372177526498e-03
8.99416666666667e-01 4.26379274353903e-01 3.42549927678839e-03
9.06583333333333e-01 4.23660168741667e-01 3.41718797572548e-03
9.13750000000000e-01 4.20958403406883e-01 3.40879031730925e-03
9.20916666666667e-01 4.18273867770030e-01 3.40030869920723e-03
9.28083333333333e-01 4.15606451951031e-01 3.39174547003787e-03
9.35250000000000e-01 4.12956046773411e-01 3.38310292788470e-03
9.42416666666667e-01 4.10322543759682e-01 3.37438332668383e-03
9.49583333333333e-01 4.07705835118639e-01 3.36558887471550e-03
9.56750000000000e-01 4.05105813749233e-01 3.35672173309556e-03
9.63916666666667e-01 4.02522373236056e-01 3.34778402190499e-03
9.71083333333333e-01 3.99955407837058e-01 3.33877781866496e-03
9.78250000000000e-01 3.97404812487164e-01 3.32970515681375e-03
9.85416666666667e-01 3.94870482793852e-01 3.32056803159602e-03
9.92583333333333e-01 3.92352315025267e-01 3.31136839852760e-03
9.99750000000000e-01 3.89850206113606e-01 3.30210816954990e-03
1.00691666666667e+00 3.87364053657978e-01 3.29278922797097e-03
1.01408333333333e+00 3.84893755884064e-01 3.28341341762809e-03
1.02125000000000e+00 3.82439211683526e-01 3.27398252982407e-03
1.02841666666667e+00 3.80000320616115e-01 3.26449834106417e-03
1.03558333333333e+00 3.77576982835440e-01 3.25496259315219e-03
1.04275000000000e+00 3.75169099155216e-01 3.24537697114447e-03
1.04991666666667e+00 3.72776571044070e-01 3.23574314928878e-03
1.05708333333333e+00 3.70399300554148e-01 3.22606276932208e-03
1.06425000000000e+00 3.68037190384677e-01 3.21633741903038e-03
1.07141666666667e+00 3.65690143876902e-01 3.20656867681591e-03
1.07858333333333e+00 3.63358064945388e-01 3.19675809058882e-03
1.08575000000000e+00 3.61040858139030e-01 3.18690715691533e-03
1.09291666666667e+00 3.58738428636121e-01 3.17701736426597e-03
1.10008333333333e+00 3.56450682178212e-01 3.16709017248379e-03
1.10725000000000e+00 3.54177525128706e-01 3.15712699250250e-03
1.11441666666667e+00 3.51918864468044e-01 3.14712922832529e-03
1.12158333333333e+00 3.49674607730010e-01 3.13709825705254e-03
1.12875000000000e+00 3.47444663058022e-01 3.12703540915303e-03
1.13591666666667e+00 3.45228939200434e-01 3.11694200922017e-03
1.14308333333333e+00 3.43027345449169e-01 3.10681935654261e-03
1.15025000000000e+00 3.40839791693824e-01 3.09666870591108e-03
1.15741666666667e+00 3.38666188417076e-01 3.08649130719771e-03
1.16458333333333e+00 3.36506446635549e-01 3.07628838645222e-03
1.17175000000000e+00 3.34360477951820e-01 3.06606112722894e-03
1.17891666666667e+00 3.32228194549942e-01 3.05581070903100e-03
1.18608333333333e+00 3.30109509138432e-01 3.04553828891639e-03
1.19325000000000e+00 3.28004335000286e-01 3.03524498332975e-03
1.20041666666667e+00 3.25912585988610e-01 3.02493190545166e-03
1.20758333333333e+00 3.23834176471630e-01 3.01460014729931e-03
1.21475000000000e+00 3.21769021380819e-01 3.00425076204701e-03
1.22191666666667e+00 3.19717036206621e-01 2.99388480031993e-03
1.22908333333333e+00 3.17678136945407e-01 2.98350329277400e-03
1.23625000000000e+00 3.15652240145787e-01 2.97310723289037e-03
1.24341666666667e+00 3.13639262904436e-01 2.96269761225017e-03
1.25058333333333e+00 3.11639122814903e-01 2.95227540357944e-03
1.25775000000000e+00 3.09651738012194e-01 2.94184154400344e-03
1.26491666666667e+00 3.07677027168695e-01 2.93139696933671e-03
1.27208333333333e+00 3.05714909444754e-01 2.92094259757919e-03
1.27925000000000e+00 3.03765304531618e-01 2.91047931261687e-03
1.28641666666667e+00 3.01828132647444e-01 2.90000799756015e-03
1.29358333333333e+00 2.99903314489582e-01 2.88952951867817e-03
1.30075000000000e+00 2.97990771275933e-01 2.87904470953168e-03
1.30791666666667e+00 2.96090424741054e-01 2.86855440339198e-03
1.31508333333333e+00 2.94202197090067e-01 2.85805941760026e-03
1.32225000000000e+00 2.92326011038507e-01 2.84756053811985e-03
1.32941666666667e+00 2.90461789808515e-01 2.83705855106633e-03
1.33658333333333e+00 2.88609457084310e-01 2.82655422747892e-03
1.34375000000000e+00 2.86768937050591e-01 2.81604830827969e-03
1.35091666666667e+00 2.84940154388817e-01 2.80554153494401e-03
1.35808333333333e+00 2.83123034234175e-01 2.79503463467183e-03
1.36525000000000e+00 2.81317502212600e-01 2.78452830574165e-03
1.37241666666667e+00 2.79523484437137e-01 2.77402324734914e-03
1.37958333333333e+00 2.77740907466349e-01 2.76352014516678e-03
1.38675000000000e+00 2.75969698340007e-01 2.75301965708099e-03
1.39391666666667e+00 2.74209784575541e-01 2.74252244222536e-03
1.40108333333333e+00 2.72461094127819e-01 2.73202914691675e-03
1.40825000000000e+00 2.70723555423575e-01 2.72154039076504e-03
1.41541666666667e+00 2.68997097357933e-01 2.71105679492640e-03
1.42258333333333e+00 2.67281649255514e-01 2.70057896840520e-03
1.42975000000000e+00 2.65577140903648e-01 2.69010749452497e-03
1.43691666666667e+00 2.63883502548974e-01 2.67964295842620e-03
1.44408333333333e+00 2.62200664859819e-01 2.66918593372369e-03
1.45125000000000e+00 2.60528558958243e-01 2.65873696932760e-03
1.45841666666667e+00 2.58867116416717e-01 2.64829661621065e-03
1.46558333333333e+00 2.57216269221719e-01 2.63786541440950e-03
1.47275000000000e+00 2.55575949804670e-01 2.62744388018625e-03
1.47991666666667e+00 2.53946091038675e-01 2.61703253208693e-03
1.48708333333333e+00 2.52326626203300e-01 2.60663187827772e-03
1.49425000000000e+00 2.50717489014432e-01 2.59624240403733e-03
1.50141666666667e+00 2.49118613621096e-01 2.58586459712787e-03
1.50858333333333e+00 2.47529934571355e-01 2.57549893545623e-03
1.51575000000000e+00 2.45951386841146e-01 2.56514587488782e-03
1.52291666666667e+00 2.44382905831165e-01 2.55480587395153e-03
1.53008333333333e+00 2.42824427333853e-01 2.54447938181640e-03
1.53725000000000e+00 2.41275887561242e-01 2.53416682641747e-03
1.54441666666667e+00 2.39737223141913e-01 2.52386863851501e-03
1.55158333333333e+00 2.38208371089019e-01 2.51358523997774e-03
1.55875000000000e+00 2.36689268827194e-01 2.50331703221159e-03
1.56591666666667e+00 2.35179854189565e-01 2.49306441959266e-03
1.57308333333333e+00 2.33680065386789e-01 2.48282779804844e-03
1.58025000000000e+00 2.32189841033045e-01 2.47260754378053e-03
1.58741666666667e+00 2.30709120143119e-01 2.46240403609025e-03
1.59458333333333e+00 2.29237842102398e-01 2.45221764624955e-03
1.60175000000000e+00 2.27775946691998e-01 2.44204872650955e-03
1.60891666666667e+00 2.26323374085900e-01 2.43189763233612e-03
1.61608333333333e+00 2.24880064821889e-01 2.42176471156259e-03
1.62325000000000e+00 2.23445959825830e-01 2.41165029367604e-03
1.63041666666667e+00 2.22021000408873e-01 2.40155471148095e-03
1.63758333333333e+00 2.20605128239287e-01 2.39147829052504e-03
1.64475000000000e+00 2.19198285365925e-01 2.38142133865541e-03
1.65191666666667e+00 2.17800414215494e-01 2.37138416712706e-03
1.65908333333333e+00 2.16411457565248e-01 2.36136708029437e-03
1.66625000000000e+00 2.15031358565685e-01 2.35137036543004e-03
1.67341666666667e+00 2.13660060737862e-01 2.34139431329382e-03
1.68058333333333e+00 2.12297507946938e-01 2.33143920808282e-03
1.68775000000000e+00 2.10943644424108e-01 2.32150531750545e-03
1.69491666666667e+00 2.09598414763987e-01 2.31159291282644e-03
1.70208333333333e+00 2.08261763898946e-01 2.30170225906836e-03
1.70925000000000e+00 2.06933637120337e-01 2.29183360533359e-03
1.71641666666667e+00 2.05613980075928e-01 2.28198720434096e-03
1.72358333333333e+00 2.04302738745012e-01 2.27216330287120e-03
1.73075000000000e+00 2.02999859458944e-01 2.26236213233062e-03
1.73791666666667e+00 2.01705288898627e-01 2.25258392779327e-03
1.74508333333333e+00 2.00418974070372e-01 2.24282891868387e-03
1.75225000000000e+00 1.99140862325766e-01 2.23309731957631e-03
1.75941666666667e+00 1.97870901359211e-01 2.22338934875568e-03
1.76658333333333e+00 1.96609039184509e-01 2.21370521913230e-03
1.77375000000000e+00 1.95355224154084e-01 2.20404512926843e-03
1.78091666666667e+00 1.94109404956576e-01 2.19440928147369e-03
1.78808333333333e+00 1.92871530594120e-01 2.18479787294395e-03
1.79525000000000e+00 1.91641550400953e-01 2.17521108700972e-03
1.80241666666667e+00 1.90419414041054e-01 2.16564911077825e-03
1.80958333333333e+00 1.89205071486101e-01 2.15611212649131e-03
1.81675000000000e+00 1.87998473033480e-01 2.14660030298940e-03
1.82391666666667e+00 1.86799569303970e-01 2.13711381291315e-03
1.83108333333333e+00 1.85608311220361e-01 2.12765282427362e-03
1.83825000000000e+00 1.84424650024874e-01 2.11821749212655e-03
1.84541666666667e+00 1.83248537276907e-01 2.10880797534557e-03
1.85258333333333e+00 1.82079924832274e-01 2.09942442839919e-03
1.85975000000000e+00 1.80918764860074e-01 2.09006699322986e-03
1.86691666666667e+00 1.79765009840483e-01 2.08073581561039e-03
1.87408333333333e+00 1.78618612544597e-01 2.07143103712198e-03
1.88125000000000e+00 1.77479526050775e-01 2.06215278723235e-03
1.88841666666667e+00 1.76347703742469e-01 2.05290119924737e-03
1.89558333333333e+00 1.75223099288658e-01 2.04367640248515e-03
1.90275000000000e+00 1.74105666659673e-01 2.03447851454729e-03
1.90991666666667e+00 1.72995360125074e-01 2.02530765687650e-03
1.91708333333333e+00 1.71892134234651e-01 2.01616394712172e-03
1.92425000000000e+00 1.70795943833753e-01 2.00704749159790e-03
1.93141666666667e+00 1.69706744061204e-01 1.99795840046013e-03
1.93858333333333e+00 1.68624490330860e-01 1.98889678025444e-03
1.94575000000000e+00 1.67549138346450e-01 1.97986272656102e-03
1.95291666666667e+00 1.66480644099545e-01 1.97085633879562e-03
1.96008333333333e+00 1.65418963851635e-01 1.96187771294116e-03
1.96725000000000e+00 1.64364054148516e-01 1.95292693436909e-03
1.97441666666667e+00 1.63315871818293e-01 1.94400409227846e-03
1.98158333333333e+00 1.62274373953976e-01 1.93510927260359e-03
1.98875000000000e+00 1.61239517927420e-01 1.92624255100905e-03
1.99591666666667e+00 1.60211261387365e-01 1.91740400697538e-03
2.00308333333333e+00 1.59189562242532e-01 1.90859371687859e-03
2.01025000000000e+00 1.58174378675129e-01 1.89981174715459e-03
2.01741666666667e+00 1.57165669138935e-01 1.89105816804123e-03
2.02458333333333e+00 1.56163392342873e-01 1.88233304682427e-03
2.03175000000000e+00 1.55167507264101e-01 1.87363644116678e-03
2.03891666666667e+00 1.54177973146133e-01 1.86496841251718e-03
2.04608333333333e+00 1.53194749482881e-01 1.85632901951772e-03
2.05325000000000e+00 1.52217796031340e-01 1.84771831149388e-03
2.06041666666667e+00 1.51247072809751e-01 1.83913634153731e-03
2.06758333333333e+00 1.50282540082089e-01 1.83058316007257e-03
2.07475000000000e+00 1.49324158370361e-01 1.82205880850278e-03
2.08191666666667e+00 1.48371888452809e-01 1.81356333197609e-03
2.08908333333333e+00 1.47425691348831e-01 1.80509677310598e-03
2.09625000000000e+00 1.46485528330904e-01 1.79665916576948e-03
2.10341666666667e+00 1.45551360922825e-01 1.78825054756517e-03
2.11058333333333e+00 1.44623150885051e-01 1.77987095368383e-03
2.11775000000000e+00 1.43700860226266e-01 1.77152041085502e-03
2.12491666666667e+00 1.42784451201648e-01 1.76319894950406e-03
2.13208333333333e+00 1.41873886298626e-01 1.75490659776974e-03
2.13925000000000e+00 1.40969128248093e-01 1.74664337559508e-03
2.14641666666667e+00 1.40070140022708e-01 1.73840930659193e-03
2.15358333333333e+00 1.39176884823051e-01 1.73020441220095e-03
2.16075000000000e+00 1.38289326088494e-01 1.72202870592329e-03
2.16791666666667e+00 1.37407427495541e-01 1.71388220490077e-03
2.17508333333333e+00 1.36531152944362e-01 1.70576492421433e-03
2.18225000000000e+00 1.35660466569343e-01 1.69767687125274e-03
2.18941666666667e+00 1.34795332737451e-01 1.68961805701566e-03
2.19658333333333e+00 1.33935716035150e-01 1.68158849054736e-03
2.20375000000000e+00 1.33081581278622e-01 1.67358817343882e-03
2.21091666666667e+00 1.32232893512178e-01 1.66561711086097e-03
2.21808333333333e+00 1.31389617995524e-01 1.65767530612990e-03
2.22525000000000e+00 1.30551720213682e-01 1.64976275533951e-03
2.23241666666667e+00 1.29719165875429e-01 1.64187945813139e-03
2.23958333333333e+00 1.28891920900914e-01 1.63402541238870e-03
2.24675000000000e+00 1.28069951431284e-01 1.62620060899536e-03
2.25391666666667e+00 1.27253223827152e-01 1.61840504234979e-03
2.26108333333333e+00 1.26441704656554e-01 1.61063870518402e-03
