Energy (eV)          EEDF (eV^-(3/2))     First Anisotropy
8.22916666666667e-03 3.25018683420770e-01 1.75213478661359e-04
2.46875000000000e-02 3.22688329402632e-01 2.89262473434057e-04
4.11458333333333e-02 3.20374683801790e-01 3.81687667551913e-04
5.76041666666667e-02 3.18077626830653e-01 4.51799475172348e-04
7.40625000000000e-02 3.15797039547385e-01 5.10187314160124e-04
9.05208333333333e-02 3.13532803862841e-01 5.60856613894486e-04
1.06979166666667e-01 3.11284802540656e-01 6.05881025968541e-04
1.23437500000000e-01 3.09052919186629e-01 6.46513262378559e-04
1.39895833333333e-01 3.06837038218803e-01 6.83584464286220e-04
1.56354166666667e-01 3.04637044919504e-01 7.17682290503835e-04
1.72812500000000e-01 3.02452825373564e-01 7.49241925947738e-04
1.89270833333333e-01 3.00284266472287e-01 7.78597215611460e-04
2.05729166666667e-01 2.98131255942797e-01 8.06011506428841e-04
2.22187500000000e-01 2.95993682303579e-01 8.31697288628431e-04
2.38645833333333e-01 2.93871434864150e-01 8.55829254045109e-04
2.55104166666667e-01 2.91764403746565e-01 8.78553306332189e-04
2.71562500000000e-01 2.89672479850493e-01 8.99992961572798e-04
2.88020833333333e-01 2.87595554851013e-01 9.20254004732313e-04
3.04479166666667e-01 2.85533521215011e-01 9.39427963671447e-04
3.20937500000000e-01 2.83486272172301e-01 9.57594745798847e-04
3.37395833333333e-01 2.81453701712467e-01 9.74824666377763e-04
3.53854166666667e-01 2.79435704597703e-01 9.91180043003393e-04
3.70312500000000e-01 2.77432176338119e-01 1.00671646098279e-03
3.86770833333333e-01 2.75443013188058e-01 1.02148378359183e-03
4.03229166666667e-01 2.73468112156331e-01 1.03552697754061e-03
4.19687500000000e-01 2.71507370984602e-01 1.04888678952704e-03
4.36145833333333e-01 2.69560688143399e-01 1.06160030023196e-03
4.52604166666667e-01 2.67627962840384e-01 1.07370139122692e-03
4.69062500000000e-01 2.65709095001089e-01 1.08522113711662e-03
4.85520833333333e-01 2.63803985264764e-01 1.09618813211712e-03
5.01979166666667e-01 2.61912534991103e-01 1.10662877275373e-03
5.18437500000000e-01 2.60034646242850e-01 1.11656749988798e-03
5.34895833333333e-01 2.58170221781568e-01 1.12602700236697e-03
5.51354166666667e-01 2.56319165073119e-01 1.13502839770408e-03
5.67812500000000e-01 2.54481380271812e-01 1.14359138917792e-03
5.84270833333333e-01 2.52656772216122e-01 1.15173439864223e-03
6.00729166666667e-01 2.50845246433178e-01 1.15947468721894e-03
6.17187500000000e-01 2.49046709124178e-01 1.16682846158634e-03
6.33645833333333e-01 2.47261067160100e-01 1.17381096379715e-03
6.50104166666667e-01 2.45488228085375e-01 1.18043655492523e-03
6.66562500000000e-01 2.43728100104370e-01 1.18671878952154e-03
6.83020833333333e-01 2.41980592077124e-01 1.19267047820156e-03
6.99479166666667e-01 2.40245613522325e-01 1.19830374745809e-03
7.15937500000000e-01 2.38523074604730e-01 1.20363009338895e-03
7.32395833333333e-01 2.36812886130925e-01 1.20866042640700e-03
7.48854166666667e-01 2.35114959551730e-01 1.21340511517756e-03
7.65312500000000e-01 2.33429206950420e-01 1.21787402639725e-03
7.81770833333333e-01 2.31755541038534e-01 1.22207655740346e-03
7.98229166666667e-01 2.30093875157787e-01 1.22602166921738e-03
8.14687500000000e-01 2.28444123268999e-01 1.22971791666504e-03
8.31145833333333e-01 2.26806199947960e-01 1.23317347257910e-03
8.47604166666667e-01 2.25180020386916e-01 1.23639615316955e-03
8.64062500000000e-01 2.23565500384138e-01 1.23939344128977e-03
8.80520833333333e-01 2.21962556339834e-01 1.24217250466233e-03
8.96979166666667e-01 2.20371105257281e-01 1.24474021572136e-03
9.13437500000000e-01 2.18791064732957e-01 1.24710316990570e-03
9.29895833333333e-01 2.17222352952513e-01 1.24926769955223e-03
9.46354166666667e-01 2.15664888691598e-01 1.25123988967331e-03
9.62812500000000e-01 2.14118591306489e-01 1.25302559257121e-03
9.79270833333333e-01 2.12583380730142e-01 1.25463043853520e-03
9.95729166666667e-01 2.11059177472735e-01 1.25605984767906e-03
1.01218750000000e+00 2.09545902617169e-01 1.25731904628466e-03
1.02864583333333e+00 2.08043477793136e-01 1.25841306698786e-03
1.04510416666667e+00 2.06551825221587e-01 1.25934676283211e-03
1.06156250000000e+00 2.05070867666134e-01 1.26012482591008e-03
1.07802083333333e+00 2.03600528430804e-01 1.26075177781534e-03
1.09447916666667e+00 2.02140731396914e-01 1.26123198635161e-03
1.11093750000000e+00 2.00691400977555e-01 1.26156968121846e-03
1.12739583333333e+00 1.99252462115257e-01 1.26176894376883e-03
1.14385416666667e+00 1.97823840316322e-01 1.26183372195959e-03
1.16031250000000e+00 1.96405461608085e-01 1.26176784442428e-03
1.17677083333333e+00 1.94997252536531e-01 1.26157500980188e-03
1.19322916666667e+00 1.93599140198300e-01 1.26125880024326e-03
1.20968750000000e+00 1.92211052200501e-01 1.26082269415487e-03
1.22614583333333e+00 1.90832916658270e-01 1.26027005529139e-03
1.24260416666667e+00 1.89464662224683e-01 1.25960414505935e-03
1.25906250000000e+00 1.88106218052877e-01 1.25882813415165e-03
1.27552083333333e+00 1.86757513793587e-01 1.25794509154413e-03
1.29197916666667e+00 1.85418479623127e-01 1.25695799578471e-03
1.30843750000000e+00 1.84089046207649e-01 1.25586974568980e-03
1.32489583333333e+00 1.82769144700647e-01 1.25468314934710e-03
1.34135416666667e+00 1.81458706769190e-01 1.25340093453966e-03
1.35781250000000e+00 1.80157664560125e-01 1.25202575863947e-03
1.37427083333333e+00 1.78865950697581e-01 1.25056019769166e-03
1.39072916666667e+00 1.77583498307577e-01 1.24900675609215e-03
1.40718750000000e+00 1.76310240986037e-01 1.24736787578714e-03
1.42364583333333e+00 1.75046112796283e-01 1.24564592549347e-03
1.44010416666667e+00 1.73791048292162e-01 1.24384320972594e-03
1.45656250000000e+00 1.72544982487724e-01 1.24196197739069e-03
1.47302083333333e+00 1.71307850854723e-01 1.24000441118121e-03
1.48947916666667e+00 1.70079589344367e-01 1.23797263603385e-03
1.50593750000000e+00 1.68860134358549e-01 1.23586872718758e-03
1.52239583333333e+00 1.67649422747348e-01 1.23369469978373e-03
1.53885416666667e+00 1.66447391829521e-01 1.23145251681421e-03
1.55531250000000e+00 1.65253979365160e-01 1.22914409670756e-03
1.57177083333333e+00 1.64069123553215e-01 1.22677130315178e-03
1.58822916666667e+00 1.62892763050805e-01 1.22433595258985e-03
1.60468750000000e+00 1.61724836947219e-01 1.22183982138178e-03
1.62114583333333e+00 1.60565284761448e-01 1.21928463586361e-03
1.63760416666667e+00 1.59414046460413e-01 1.21667207943580e-03
1.65406250000000e+00 1.58271062434213e-01 1.21400379934318e-03
1.67052083333333e+00 1.57136273493671e-01 1.21128139697846e-03
1.68697916666667e+00 1.56009620887558e-01 1.20850643460214e-03
1.70343750000000e+00 1.54891046278999e-01 1.20568044177610e-03
1.71989583333333e+00 1.53780491743047e-01 1.20280490591622e-03
1.73635416666667e+00 1.52677899782963e-01 1.19988127867682e-03
1.75281250000000e+00 1.51583213307713e-01 1.19691098206850e-03
1.76927083333333e+00 1.50496375629564e-01 1.19389539926156e-03
1.78572916666667e+00 1.49417330479493e-01 1.19083588066341e-03
1.80218750000000e+00 1.48346021985698e-01 1.18773374974729e-03
1.81864583333333e+00 1.47282394671228e-01 1.18459029410603e-03
1.83510416666667e+00 1.46226393468568e-01 1.18140677124725e-03
1.85156250000000e+00 1.45177963699111e-01 1.17818441415556e-03
1.86802083333333e+00 1.44137051070817e-01 1.17492442259491e-03
1.88447916666667e+00 1.43103601692034e-01 1.17162796864313e-03
1.90093750000000e+00 1.42077562051868e-01 1.16829620200797e-03
1.91739583333333e+00 1.41058879017874e-01 1.16493024157463e-03
1.93385416666667e+00 1.40047499849160e-01 1.16153118069867e-03
1.95031250000000e+00 1.39043372177608e-01 1.15810009229361e-03
1.96677083333333e+00 1.38046444005595e-01 1.15463802061937e-03
1.98322916666667e+00 1.37056663718424e-01 1.15114598635065e-03
1.99968750000000e+00 1.36073980066348e-01 1.14762499145164e-03
2.01614583333333e+00 1.35098342162320e-01 1.14407601120082e-03
2.03260416666667e+00 1.34129699493796e-01 1.14049999904945e-03
2.04906250000000e+00 1.33168001905517e-01 1.13689789129742e-03
2.06552083333333e+00 1.32213199597285e-01 1.13327059934934e-03
2.08197916666667e+00 1.31265243135184e-01 1.12961901437647e-03
2.09843750000000e+00 1.30324083435064e-01 1.12594401180651e-03
2.11489583333333e+00 1.29389671760362e-01 1.12224644380494e-03
2.13135416666667e+00 1.28461959732758e-01 1.11852714375285e-03
2.14781250000000e+00 1.27540899316341e-01 1.11478693056161e-03
2.16427083333333e+00 1.26626442815457e-01 1.11102660137388e-03
2.18072916666667e+00 1.25718542884850e-01 1.10724693586816e-03
2.19718750000000e+00 1.24817152514457e-01 1.10344870040864e-03
2.21364583333333e+00 1.23922225027302e-01 1.09963264095989e-03
2.23010416666667e+00 1.23033714089132e-01 1.09579948722804e-03
2.24656250000000e+00 1.22151573693830e-01 1.09194995665522e-03
2.26302083333333e+00 1.21275758161333e-01 1.08808474754177e-03
2.27947916666667e+00 1.20406222146810e-01 1.08420454303319e-03
2.29593750000000e+00 1.19542920626644e-01 1.08031001496724e-03
2.31239583333333e+00 1.18685808896393e-01 1.07640181719825e-03
2.32885416666667e+00 1.17834842579522e-01 1.07248058943778e-03
2.34531250000000e+00 1.16989977613936e-01 1.06854696096251e-03
2.36177083333333e+00 1.16151170249970e-01 1.06460154413428e-03
2.37822916666667e+00 1.15318377058712e-01 1.06064493810215e-03
2.39468750000000e+00 1.14491554919053e-01 1.05667773237816e-03
2.41114583333333e+00 1.13670661015712e-01 1.05270050054728e-03
2.42760416666667e+00 1.12855652847168e-01 1.04871380383790e-03
2.44406250000000e+00 1.12046488213202e-01 1.04471819457196e-03
2.46052083333333e+00 1.11243125212957e-01 1.04071421005920e-03
2.47697916666667e+00 1.10445522252503e-01 1.03670237604236e-03
2.49343750000000e+00 1.09653638032844e-01 1.03268321002775e-03
2.50989583333333e+00 1.08867431548015e-01 1.02865721535819e-03
2.52635416666667e+00 1.08086862092298e-01 1.02462488453893e-03
2.54281250000000e+00 1.07311889248674e-01 1.02058670245426e-03
2.55927083333333e+00 1.06542472886957e-01 1.01654314061345e-03
2.57572916666667e+00 1.05778573170673e-01 1.01249466036321e-03
2.59218750000000e+00 1.05020150545945e-01 1.00844171599552e-03
2.60864583333333e+00 1.04267165739660e-01 1.00438474916116e-03
2.62510416666667e+00 1.03519579766028e-01 1.00032419197371e-03
2.64156250000000e+00 1.02777353915884e-01 9.96260470013441e-04
2.65802083333333e+00 1.02040449754875e-01 9.92193996903680e-04
2.67447916666667e+00 1.01308829129737e-01 9.88125177310841e-04
2.69093750000000e+00 1.00582454157972e-01 9.84054409849047e-04
2.70739583333333e+00 9.98612872260774e-02 9.79982081813734e-04
2.72385416666667e+00 9.91452909955343e-02 9.75908572082755e-04
2.74031250000000e+00 9.84344283928598e-02 9.71834253925984e-04
2.75677083333333e+00 9.77286626078667e-02 9.67759489891280e-04
2.77322916666667e+00 9.70279570993863e-02 9.63684634610596e-04
2.78968750000000e+00 9.63322755856729e-02 9.59610037518466e-04
2.80614583333333e+00 9.56415820426972e-02 9.55536037885912e-04
2.82260416666667e+00 9.49558407096147e-02 9.51462967535576e-04
2.83906250000000e+00 9.42750160795086e-02 9.47391153472670e-04
2.85552083333333e+00 9.35990728977159e-02 9.43320913061931e-04
2.87197916666667e+00 9.29279761670542e-02 9.39252556655749e-04
2.88843750000000e+00 9.22616911388887e-02 9.35186390141223e-04
2.90489583333333e+00 9.16001833114898e-02 9.31122710255758e-04
2.92135416666667e+00 9.09434184350306e-02 9.27061807131361e-04
2.93781250000000e+00 9.02913625029648e-02 9.23003966761406e-04
2.95427083333333e+00 8.96439817504142e-02 9.18949466450345e-04
2.97072916666667e+00 8.90012426589496e-02 9.14898577277644e-04
2.98718750000000e+00 8.83631119482646e-02 9.10851566487354e-04
3.00364583333333e+00 8.77295565745948e-02 9.06808693067841e-04
3.02010416666667e+00 8.71005437352908e-02 9.02770210138329e-04
3.03656250000000e+00 8.64760408607766e-02 8.98736367264253e-04
3.05302083333333e+00 8.58560156129999e-02 8.94707406163077e-04
3.06947916666667e+00 8.52404358898066e-02 8.90683563016480e-04
3.08593750000000e+00 8.46292698171732e-02 8.86665070714264e-04
3.10239583333333e+00 8.40224857476860e-02 8.82652154682079e-04
3.11885416666667e+00 8.34200522647287e-02 8.78645035122321e-04
3.13531250000000e+00 8.28219381749759e-02 8.74643929189139e-04
3.15177083333333e+00 8.22281125069020e-02 8.70649046934569e-04
3.16822916666667e+00 8.16385445147899e-02 8.66660593480550e-04
3.18468750000000e+00 8.10532036714751e-02 8.62678771127730e-04
3.20114583333333e+00 8.04720596668845e-02 8.58703775416082e-04
3.21760416666667e+00 7.98950824118740e-02 8.54735797230731e-04
3.23406250000000e+00 7.93222420312137e-02 8.50775024847059e-04
3.25052083333333e+00 7.87535088621555e-02 8.46821640102262e-04
3.26697916666667e+00 7.81888534581081e-02 8.42875820437427e-04
3.28343750000000e+00 7.76282465818536e-02 8.38937740880956e-04
3.29989583333333e+00 7.70716592041433e-02 8.35007570327843e-04
3.31635416666667e+00 7.65190625072178e-02 8.31085473520302e-04
3.33281250000000e+00 7.59704278782459e-02 8.27171612971891e-04
3.34927083333333e+00 7.54257269079481e-02 8.23266145350966e-04
3.36572916666667e+00 7.48849313939689e-02 8.19369223402047e-04
3.38218750000000e+00 7.43480133345293e-02 8.15480997812685e-04
3.39864583333333e+00 7.38149449270781e-02 8.11601613698092e-04
3.41510416666667e+00 7.32856985715221e-02 8.07731212465247e-04
3.43156250000000e+00 7.27602468640854e-02 8.03869933624592e-04
3.44802083333333e+00 7.22385625959863e-02 8.00017911372669e-04
3.46447916666667e+00 7.17206187565335e-02 7.96175276400910e-04
3.48093750000000e+00 7.12063885271830e-02 7.92342157654065e-04
3.49739583333333e+00 7.06958452802412e-02 7.88518679007894e-04
3.51385416666667e+00 7.01889625818327e-02 7.84704961024686e-04
3.53031250000000e+00 6.96857141861471e-02 7.80901122660102e-04
3.54677083333333e+00 6.91860740341682e-02 7.77107278033061e-04
3.56322916666667e+00 6.86900162565193e-02 7.73323538129810e-04
3.57968750000000e+00 6.81975151678923e-02 7.69550012461020e-04
3.59614583333333e+00 6.77085452658030e-02 7.65786805920976e-04
3.61260416666667e+00 6.72230812333185e-02 7.62034020441914e-04
3.62906250000000e+00 6.67410979336634e-02 7.58291756603120e-04
3.64552083333333e+00 6.62625704089990e-02 7.54560110576679e-04
3.66197916666667e+00 6.57874738830396e-02 7.50839175733801e-04
3.67843750000000e+00 6.53157837558279e-02 7.47129044207502e-04
3.69489583333333e+00 6.48474756025386e-02 7.43429803922480e-04
3.71135416666667e+00 6.43825251759881e-02 7.39741540154797e-04
3.72781250000000e+00 6.39209084015726e-02 7.36064337049657e-04
3.74427083333333e+00 6.34626013760968e-02 7.32398274732903e-04
3.76072916666667e+00 6.30075803701802e-02 7.28743430825719e-04
3.77718750000000e+00 6.25558218233534e-02 7.25099881919097e-04
3.79364583333333e+00 6.21073023429103e-02 7.21467700764219e-04
3.81010416666667e+00 6.16619987062163e-02 7.17846957743941e-04
3.82656250000000e+00 6.12198878559566e-02 7.14237722305050e-04
3.84302083333333e+00 6.07809468990115e-02 7.10640060225384e-04
3.85947916666667e+00 6.03451531086710e-02 7.07054035043452e-04
3.87593750000000e+00 5.99124839200298e-02 7.03479709449908e-04
3.89239583333333e+00 5.94829169288846e-02 6.99917142629170e-04
3.90885416666667e+00 5.90564298938600e-02 6.96366391648269e-04
3.92531250000000e+00 5.86330007319440e-02 6.92827512809101e-04
3.94177083333333e+00 5.82126075174082e-02 6.89300559062285e-04
3.95822916666667e+00 5.77952284838475e-02 6.85785581356640e-04
3.97468750000000e+00 5.73808420198520e-02 6.82282629953270e-04
3.99114583333333e+00 5.69694266679493e-02 6.78791751909568e-04
4.00760416666667e+00 5.65609611265619e-02 6.75312992390624e-04
4.02406250000000e+00 5.61554242458104e-02 6.71846395946404e-04
4.04052083333333e+00 5.57527950264778e-02 6.68392004063892e-04
4.05697916666667e+00 5.53530526218880e-02 6.64949856441494e-04
4.07343750000000e+00 5.49561763338358e-02 6.61519992230499e-04
4.08989583333333e+00 5.45621456115725e-02 6.58102447653279e-04
4.10635416666667e+00 5.41709400536092e-02 6.54697257242037e-04
4.12281250000000e+00 5.37825394037690e-02 6.51304455045714e-04
4.13927083333333e+00 5.33969235501935e-02 6.47924072312145e-04
4.15572916666667e+00 5.30140725270741e-02 6.44556138692282e-04
4.17218750000000e+00 5.26339665108225e-02 6.41200683413527e-04
4.18864583333333e+00 5.22565858190972e-02 6.37857733024307e-04
4.20510416666667e+00 5.18819109124659e-02 6.34527312564688e-04
4.22156250000000e+00 5.15099223906905e-02 6.31209446707059e-04
4.23802083333333e+00 5.11406009917732e-02 6.27904157561319e-04
4.25447916666667e+00 5.07739275935532e-02 6.24611465812962e-04
4.27093750000000e+00 5.04098832101015e-02 6.21331391832341e-04
4.28739583333333e+00 5.00484489907867e-02 6.18063953538494e-04
4.30385416666667e+00 4.96896062218086e-02 6.14809167505755e-04
4.32031250000000e+00 4.93333363226993e-02 6.11567050042458e-04
4.33677083333333e+00 4.89796208454087e-02 6.08337615111838e-04
4.35322916666667e+00 4.86284414757763e-02 6.05120875408091e-04
4.36968750000000e+00 4.82797800301365e-02 6.01916843405375e-04
4.38614583333333e+00 4.79336184544224e-02 5.98725529334164e-04
4.40260416666667e+00 4.75899388255793e-02 5.95546942227836e-04
4.41906250000000e+00 4.72487233482698e-02 5.92381090942902e-04
4.43552083333333e+00 4.69099543539958e-02 5.89227982189073e-04
4.45197916666667e+00 4.65736143024564e-02 5.86087621547099e-04
4.46843750000000e+00 4.62396857783494e-02 5.82960014461279e-04
4.48489583333333e+00 4.59081514905108e-02 5.79845164321809e-04
4.50135416666667e+00 4.55789942732201e-02 5.76743073454732e-04
4.51781250000000e+00 4.52521970830939e-02 5.73653744087458e-04
4.53427083333333e+00 4.49277429982441e-02 5.70577176481815e-04
4.55072916666667e+00 4.46056152195312e-02 5.67513369897032e-04
4.56718750000000e+00 4.42857970675481e-02 5.64462323529098e-04
4.58364583333333e+00 4.39682719817960e-02 5.61424034693143e-04
4.60010416666667e+00 4.36530235218879e-02 5.58398499760207e-04
4.61656250000000e+00 4.33400353646202e-02 5.55385715071150e-04
4.63302083333333e+00 4.30292913031651e-02 5.52385675166976e-04
4.64947916666667e+00 4.27207752482272e-02 5.49398373700255e-04
4.66593750000000e+00 4.24144712251993e-02 5.46423804324265e-04
4.68239583333333e+00 4.21103633733711e-02 5.43461958969973e-04
4.69885416666667e+00 4.18084359470415e-02 5.40512828732733e-04
4.71531250000000e+00 4.15086733127547e-02 5.37576404737451e-04
4.73177083333333e+00 4.12110599485267e-02 5.34652676460970e-04
4.74822916666667e+00 4.09155804449125e-02 5.31741632594780e-04
4.76468750000000e+00 4.06222195023227e-02 5.28843261886856e-04
4.78114583333333e+00 4.03309619302650e-02 5.25957551508110e-04
4.79760416666667e+00 4.00417926483702e-02 5.23084487891853e-04
4.81406250000000e+00 3.97546966837851e-02 5.20224057553111e-04
4.83052083333333e+00 3.94696591704295e-02 5.17376245497808e-04
4.84697916666667e+00 3.91866653499826e-02 5.14541036039641e-04
4.86343750000000e+00 3.89057005693495e-02 5.11718413597517e-04
4.87989583333333e+00 3.86267502799340e-02 5.08908361146279e-04
4.89635416666667e+00 3.83498000385862e-02 5.06110861011784e-04
4.91281250000000e+00 3.80748355051408e-02 5.03325895646989e-04
4.92927083333333e+00 3.78018424417052e-02 5.00553446123069e-04
4.94572916666667e+00 3.75308067135699e-02 4.97793492903283e-04
4.96218750000000e+00 3.72617142868164e-02 4.95046016598340e-04
4.97864583333333e+00 3.69945512276200e-02 4.92310996496868e-04
4.99510416666667e+00 3.67293037031249e-02 4.89588411318681e-04
5.01156250000000e+00 3.64659579791191e-02 4.86878239949955e-04
5.02802083333333e+00 3.62045004193521e-02 4.84180460011957e-04
5.04447916666667e+00 3.59449174863756e-02 4.81495048594224e-04
5.06093750000000e+00 3.56871957392837e-02 4.78821982970309e-04
5.07739583333333e+00 3.54313218330449e-02 4.76161239203711e-04
5.09385416666667e+00 3.51772825193097e-02 4.73512792861436e-04
5.11031250000000e+00 3.49250646442147e-02 4.70876619710854e-04
5.12677083333333e+00 3.46746551477278e-02 4.68252694361785e-04
5.14322916666667e+00 3.44260410644249e-02 4.65640990961127e-04
5.15968750000000e+00 3.41792095213549e-02 4.63041483871315e-04
5.17614583333333e+00 3.39341477373983e-02 4.60454146347508e-04
5.19260416666667e+00 3.36908430240145e-02 4.57878951213869e-04
