Energy (eV)          EEDF (eV^-(3/2))     First Anisotropy
7.03225806451613e-03 7.92113018779888e-01 5.28058889588686e-04
2.10967741935484e-02 7.83329164271016e-01 8.70065578723747e-04
3.51612903225806e-02 7.74642715149181e-01 1.14353703180119e-03
4.92258064516129e-02 7.66052591321009e-01 1.34824879327812e-03
6.32903225806452e-02 7.57557724609589e-01 1.51647825292146e-03
7.73548387096774e-02 7.49157058692268e-01 1.66050653738463e-03
9.14193548387097e-02 7.40849548952989e-01 1.78672745006779e-03
1.05483870967742e-01 7.32634162380063e-01 1.89902467787792e-03
1.19548387096774e-01 7.24509877405294e-01 1.99998881480922e-03
1.33612903225806e-01 7.16475683795332e-01 2.09146126630342e-03
1.47677419354839e-01 7.08530582512676e-01 2.17481279991433e-03
1.61741935483871e-01 7.00673585598674e-01 2.25110041717086e-03
1.75806451612903e-01 6.92903716005782e-01 2.32116213727095e-03
1.89870967741935e-01 6.85220007615314e-01 2.38567749844782e-03
2.03935483870968e-01 6.77621504972115e-01 2.44520789237444e-03
2.18000000000000e-01 6.70107263216473e-01 2.50022441654296e-03
2.32064516129032e-01 6.62676347966367e-01 2.55112771206265e-03
2.46129032258065e-01 6.55327835201490e-01 2.59826244560535e-03
2.60193548387097e-01 6.48060811148444e-01 2.64192811679862e-03
2.74258064516129e-01 6.40874372166866e-01 2.68238728027200e-03
2.88322580645161e-01 6.33767624612547e-01 2.71987189569121e-03
3.02387096774194e-01 6.26739684801707e-01 2.75458832198928e-03
3.16451612903226e-01 6.19789678823592e-01 2.78672129024425e-03
3.30516129032258e-01 6.12916742458427e-01 2.81643709013444e-03
3.44580645161290e-01 6.06120021069822e-01 2.84388617024348e-03
3.58645161290323e-01 5.99398669498715e-01 2.86920527197730e-03
3.72709677419355e-01 5.92751851958206e-01 2.89251919803059e-03
3.86774193548387e-01 5.86178741929582e-01 2.91394229163443e-03
4.00838709677419e-01 5.79678522043537e-01 2.93357967495289e-03
4.14903225806452e-01 5.73250384027523e-01 2.95152830684204e-03
4.28967741935484e-01 5.66893528555172e-01 2.96787788564842e-03
4.43032258064516e-01 5.60607165163985e-01 2.98271161530697e-03
4.57096774193548e-01 5.54390512156947e-01 2.99610687295648e-03
4.71161290322581e-01 5.48242796505505e-01 3.00813578636442e-03
4.85225806451613e-01 5.42163253753341e-01 3.01886573862045e-03
4.99290322580645e-01 5.36151127909421e-01 3.02835980427039e-03
5.13354838709677e-01 5.30205671390321e-01 3.03667713962911e-03
5.27419354838710e-01 5.24326144890237e-01 3.04387332766749e-03
5.41483870967742e-01 5.18511817301642e-01 3.05000067638450e-03
5.55548387096774e-01 5.12761965624365e-01 3.05510848973273e-03
5.69612903225806e-01 5.07075874875672e-01 3.05924330795653e-03
5.83677419354839e-01 5.01452838001425e-01 3.06244912272867e-03
5.97741935483871e-01 4.95892155788114e-01 3.06476757150102e-03
6.11806451612903e-01 4.90393136767069e-01 3.06623810778640e-03
6.25870967741936e-01 4.84955097155448e-01 3.06689816063549e-03
6.39935483870968e-01 4.79577360743777e-01 3.06678327924924e-03
6.54000000000000e-01 4.74259258821174e-01 3.06592725822431e-03
6.68064516129032e-01 4.69000130092178e-01 3.06436225616680e-03
6.82129032258065e-01 4.63799320594532e-01 3.06211890267971e-03
6.96193548387097e-01 4.58656183617885e-01 3.05922639613064e-03
7.10258064516129e-01 4.53570079623350e-01 3.05571259417060e-03
7.24322580645161e-01 4.48540376157167e-01 3.05160409282000e-03
7.38387096774194e-01 4.43566447792811e-01 3.04692630401747e-03
7.52451612903226e-01 4.38647676032147e-01 3.04170352721587e-03
7.66516129032258e-01 4.33783449235659e-01 3.03595901037884e-03
7.80580645161290e-01 4.28973162546374e-01 3.02971501031288e-03
7.94645161290323e-01 4.24216217814683e-01 3.02299284753160e-03
8.08709677419355e-01 4.19512023523948e-01 3.01581295712638e-03
8.22774193548387e-01 4.14859994716949e-01 3.00819493684431e-03
8.36838709677419e-01 4.10259552917755e-01 3.00015758841900e-03
8.50903225806452e-01 4.05710126076178e-01 2.99171896020286e-03
8.64967741935484e-01 4.01211148480018e-01 2.98289638705420e-03
8.79032258064516e-01 3.96762060690341e-01 2.97370652326389e-03
8.93096774193548e-01 3.92362309471901e-01 2.96416537672689e-03
9.07161290322581e-01 3.88011347724372e-01 2.95428834008644e-03
9.21225806451613e-01 3.83708634414304e-01 2.94409022066828e-03
9.35290322580645e-01 3.79453634503383e-01 2.93358526559322e-03
9.49354838709677e-01 3.75245818895468e-01 2.92278718901276e-03
9.63419354838710e-01 3.71084664357045e-01 2.91170919782478e-03
9.77483870967742e-01 3.66969653456815e-01 2.90036401208314e-03
9.91548387096774e-01 3.62900274501343e-01 2.88876388721740e-03
1.00561290322581e+00 3.58876021471437e-01 2.87692063357717e-03
1.01967741935484e+00 3.54896393963019e-01 2.86484564014361e-03
1.03374193548387e+00 3.50960897098416e-01 2.85254987936511e-03
1.04780645161290e+00 3.47069041543762e-01 2.84004394239851e-03
1.06187096774194e+00 3.43220343317849e-01 2.82733804978883e-03
1.07593548387097e+00 3.39414323843308e-01 2.81444204363745e-03
1.09000000000000e+00 3.35650509884074e-01 2.80136544079684e-03
1.10406451612903e+00 3.31928433383028e-01 2.78811742157558e-03
1.11812903225806e+00 3.28247631540339e-01 2.77470684781660e-03
1.13219354838710e+00 3.24607646623157e-01 2.76114228256810e-03
1.14625806451613e+00 3.21008026007127e-01 2.74743197752340e-03
1.16032258064516e+00 3.17448322117486e-01 2.73358391960365e-03
1.17438709677419e+00 3.13928092281721e-01 2.71960581874130e-03
1.18845161290323e+00 3.10446898795509e-01 2.70550512266853e-03
1.20251612903226e+00 3.07004308750523e-01 2.69128903322967e-03
1.21658064516129e+00 3.03599894068038e-01 2.67696449336768e-03
1.23064516129032e+00 3.00233231443324e-01 2.66253822834170e-03
1.24470967741935e+00 2.96903902211536e-01 2.64801673813447e-03
1.25877419354839e+00 2.93611492377654e-01 2.63340628983582e-03
1.27283870967742e+00 2.90355592562837e-01 2.61871295627321e-03
1.28690322580645e+00 2.87135797877001e-01 2.60394260332504e-03
1.30096774193548e+00 2.83951707969577e-01 2.58910090104580e-03
1.31503225806452e+00 2.80802926881186e-01 2.57419333620901e-03
1.32909677419355e+00 2.77689063067537e-01 2.55922519924359e-03
1.34316129032258e+00 2.74609729348912e-01 2.54420161883456e-03
1.35722580645161e+00 2.71564542793567e-01 2.52912754945971e-03
1.37129032258065e+00 2.68553124760536e-01 2.51400778083673e-03
1.38535483870968e+00 2.65575100764349e-01 2.49884694869873e-03
1.39941935483871e+00 2.62630100494002e-01 2.48364952210915e-03
1.41348387096774e+00 2.59717757765231e-01 2.46841983463384e-03
1.42754838709677e+00 2.56837710413642e-01 2.45316207626241e-03
1.44161290322581e+00 2.53989600311414e-01 2.43788028542332e-03
1.45567741935484e+00 2.51173073321179e-01 2.42257837845670e-03
1.46974193548387e+00 2.48387779194192e-01 2.40726013770467e-03
1.48380645161290e+00 2.45633371603235e-01 2.39192921899340e-03
1.49787096774194e+00 2.42909508024894e-01 2.37658916029354e-03
1.51193548387097e+00 2.40215849752439e-01 2.36124336975772e-03
1.52600000000000e+00 2.37552061852347e-01 2.34589515246138e-03
1.54006451612903e+00 2.34917813070596e-01 2.33054769903136e-03
1.55412903225806e+00 2.32312775860317e-01 2.31520409216100e-03
1.56819354838710e+00 2.29736626273808e-01 2.29986731422679e-03
1.58225806451613e+00 2.27189043972253e-01 2.28454023591147e-03
1.59632258064516e+00 2.24669712184673e-01 2.26922564055230e-03
1.61038709677419e+00 2.22178317621569e-01 2.25392621333286e-03
1.62445161290323e+00 2.19714550498088e-01 2.23864454700517e-03
1.63851612903226e+00 2.17278104434768e-01 2.22338314862515e-03
1.65258064516129e+00 2.14868676464635e-01 2.20814442878407e-03
1.66664516129032e+00 2.12485966994407e-01 2.19293072384530e-03
1.68070967741935e+00 2.10129679724795e-01 2.17774428873195e-03
1.69477419354839e+00 2.07799521656391e-01 2.16258728984173e-03
1.70883870967742e+00 2.05495203052193e-01 2.14746182621112e-03
1.72290322580645e+00 2.03216437361410e-01 2.13236991956486e-03
1.73696774193548e+00 2.00962941237005e-01 2.11731351904141e-03
1.75103225806452e+00 1.98734434448442e-01 2.10229450682228e-03
1.76509677419355e+00 1.96530639885527e-01 2.08731468825440e-03
1.77916129032258e+00 1.94351283523059e-01 2.07237581125224e-03
1.79322580645161e+00 1.92196094350296e-01 2.05747955692372e-03
1.80729032258065e+00 1.90064804385499e-01 2.04262754377790e-03
1.82135483870968e+00 1.87957148595396e-01 2.02782133276957e-03
1.83541935483871e+00 1.85872864897369e-01 2.01306241800986e-03
1.84948387096774e+00 1.83811694126022e-01 1.99835224458903e-03
1.86354838709677e+00 1.81773379967874e-01 1.98369220223931e-03
1.87761290322581e+00 1.79757668962792e-01 1.96908361911981e-03
1.89167741935484e+00 1.77764310471677e-01 1.95452777882714e-03
1.90574193548387e+00 1.75793056613928e-01 1.94002591184565e-03
1.91980645161290e+00 1.73843662278181e-01 1.92557919909565e-03
1.93387096774194e+00 1.71915885051123e-01 1.91118877621859e-03
1.94793548387097e+00 1.70009485217647e-01 1.89685572512856e-03
1.96200000000000e+00 1.68124225730339e-01 1.88258108967919e-03
1.97606451612903e+00 1.66259872151432e-01 1.86836586763875e-03
1.99012903225806e+00 1.64416192661495e-01 1.85421101388167e-03
2.00419354838710e+00 1.62592957993535e-01 1.84011744426672e-03
2.01825806451613e+00 1.60789941432088e-01 1.82608602771074e-03
2.03232258064516e+00 1.59006918784400e-01 1.81211760063862e-03
2.04638709677419e+00 1.57243668326489e-01 1.79821295945291e-03
2.06045161290323e+00 1.55499970810086e-01 1.78437286341731e-03
2.07451612903226e+00 1.53775609401552e-01 1.77059803817230e-03
2.08858064516129e+00 1.52070369680111e-01 1.75688916830656e-03
2.10264516129032e+00 1.50384039610597e-01 1.74324691070211e-03
2.11670967741936e+00 1.48716409493315e-01 1.72967188937887e-03
2.13077419354839e+00 1.47067271961905e-01 1.71616469044450e-03
2.14483870967742e+00 1.45436421956995e-01 1.70272587486400e-03
2.15890322580645e+00 1.43823656678115e-01 1.68935597163462e-03
2.17296774193548e+00 1.42228775588422e-01 1.67605548025880e-03
2.18703225806452e+00 1.40651580360401e-01 1.66282487378133e-03
2.20109677419355e+00 1.39091874873074e-01 1.64966459206121e-03
2.21516129032258e+00 1.37549465187122e-01 1.63657505358438e-03
2.22922580645161e+00 1.36024159500094e-01 1.62355664907044e-03
2.24329032258065e+00 1.34515768149951e-01 1.61060974371918e-03
2.25735483870968e+00 1.33024103564617e-01 1.59773467998045e-03
2.27141935483871e+00 1.31548980258673e-01 1.58493177125407e-03
2.28548387096774e+00 1.30090214809837e-01 1.57220131282862e-03
2.29954838709677e+00 1.28647625817236e-01 1.55954357747487e-03
2.31361290322581e+00 1.27221033897899e-01 1.54695881113005e-03
2.32767741935484e+00 1.25810261664015e-01 1.53444724337823e-03
2.34174193548387e+00 1.24415133682872e-01 1.52200908166373e-03
2.35580645161290e+00 1.23035476478914e-01 1.50964451323740e-03
2.36987096774194e+00 1.21671118488747e-01 1.49735370756600e-03
2.38393548387097e+00 1.20321890057259e-01 1.48513681063640e-03
2.39800000000000e+00 1.18987623416134e-01 1.47299395467291e-03
2.41206451612903e+00 1.17668152646475e-01 1.46092525271911e-03
2.42612903225806e+00 1.16363313680069e-01 1.44893080041411e-03
2.44019354838710e+00 1.15072944257497e-01 1.43701067820115e-03
2.45425806451613e+00 1.13796883923969e-01 1.42516494599372e-03
2.46832258064516e+00 1.12534974009021e-01 1.41339365219246e-03
2.48238709677419e+00 1.11287057591625e-01 1.40169682860971e-03
2.49645161290323e+00 1.10052979500768e-01 1.39007449209530e-03
2.51051612903226e+00 1.08832586276438e-01 1.37852664656206e-03
2.52458064516129e+00 1.07625726165242e-01 1.36705327799247e-03
2.53864516129032e+00 1.06432249101209e-01 1.35565436281150e-03
2.55270967741935e+00 1.05252006673212e-01 1.34432986436240e-03
2.56677419354839e+00 1.04084852120526e-01 1.33307972945653e-03
2.58083870967742e+00 1.02930640314267e-01 1.32190389640574e-03
2.59490322580645e+00 1.01789227726079e-01 1.31080229043455e-03
2.60896774193548e+00 1.00660472427880e-01 1.29977482509945e-03
2.62303225806452e+00 9.95442340569410e-02 1.28882140406605e-03
2.63709677419355e+00 9.84403738113051e-02 1.27794191659561e-03
2.65116129032258e+00 9.73487544322537e-02 1.26713624501089e-03
2.66522580645161e+00 9.62692401750286e-02 1.25640426040020e-03
2.67929032258065e+00 9.52016968081391e-02 1.24574582391939e-03
2.69335483870968e+00 9.41459915807753e-02 1.23516078842694e-03
2.70741935483871e+00 9.31019932181544e-02 1.22464899425837e-03
2.72148387096774e+00 9.20695719049360e-02 1.21421027616916e-03
2.73554838709677e+00 9.10485992578473e-02 1.20384446033868e-03
2.74961290322581e+00 9.00389483210306e-02 1.19355136143742e-03
2.76367741935484e+00 8.90404935500050e-02 1.18333078929226e-03
2.77774193548387e+00 8.80531107853392e-02 1.17318254500258e-03
2.79180645161290e+00 8.70766772514309e-02 1.16310642208338e-03
2.80587096774194e+00 8.61110715272719e-02 1.15310220790461e-03
2.81993548387097e+00 8.51561735417650e-02 1.14316967987298e-03
2.83400000000000e+00 8.42118645585677e-02 1.13330861163540e-03
2.84806451612903e+00 8.32780271514506e-02 1.12351876944156e-03
2.86212903225806e+00 8.23545452027972e-02 1.11379991319511e-03
2.87619354838710e+00 8.14413038762928e-02 1.10415179778195e-03
2.89025806451613e+00 8.05381896122448e-02 1.09457416949330e-03
2.90432258064516e+00 7.96450901132546e-02 1.08506677180234e-03
2.91838709677419e+00 7.87618943211470e-02 1.07562934195563e-03
2.93245161290323e+00 7.78884924152402e-02 1.06626161194193e-03
2.94651612903226e+00 7.70247757868186e-02 1.05696330971795e-03
2.96058064516129e+00 7.61706370344850e-02 1.04773415585803e-03
2.97464516129032e+00 7.53259699506106e-02 1.03857386893542e-03
2.98870967741935e+00 7.44906694997299e-02 1.02948216313315e-03
3.00277419354839e+00 7.36646318139376e-02 1.02045874590522e-03
3.01683870967742e+00 7.28477541797901e-02 1.01150332314669e-03
3.03090322580645e+00 7.20399350175082e-02 1.00261559611229e-03
3.04496774193548e+00 7.12410738789946e-02 9.93795262270235e-04
3.05903225806452e+00 7.04510714248771e-02 9.85042016386848e-04
3.07309677419355e+00 6.96698294199618e-02 9.76355547497316e-04
3.08716129032258e+00 6.88972507208530e-02 9.67735543724965e-04
3.10122580645161e+00 6.81332392564609e-02 9.59181689394156e-04
3.11529032258065e+00 6.73777000258888e-02 9.50693665817784e-04
3.12935483870968e+00 6.66305390769540e-02 9.42271152300107e-04
3.14341935483871e+00 6.58916635017165e-02 9.33913823298508e-04
3.15748387096774e+00 6.51609814247718e-02 9.25621352917499e-04
3.17154838709677e+00 6.44384019849799e-02 9.17393412878575e-04
3.18561290322581e+00 6.37238353310613e-02 9.09229670532644e-04
3.19967741935484e+00 6.30171926102753e-02 9.01129793179558e-04
3.21374193548387e+00 6.23183859508273e-02 8.93093445456619e-04
3.22780645161290e+00 6.16273284596284e-02 8.85120290035177e-04
3.24187096774194e+00 6.09439342029493e-02 8.77209988509328e-04
3.25593548387097e+00 6.02681182021066e-02 8.69362198829707e-04
3.27000000000000e+00 5.95997964227612e-02 8.61576579333702e-04
3.28406451612903e+00 5.89388857584155e-02 8.53852786297478e-04
3.29812903225806e+00 5.82853040281123e-02 8.46190474579475e-04
3.31219354838710e+00 5.76389699583165e-02 8.38589298443923e-04
3.32625806451613e+00 5.69998031787030e-02 8.31048909154814e-04
3.34032258064516e+00 5.63677242120380e-02 8.23568958737337e-04
3.35438709677419e+00 5.57426544586968e-02 8.16149097682344e-04
3.36845161290323e+00 5.51245161943208e-02 8.08788975541827e-04
3.38251612903226e+00 5.45132325528445e-02 8.01488241691670e-04
3.39658064516129e+00 5.39087275223922e-02 7.94246543075954e-04
3.41064516129032e+00 5.33109259357094e-02 7.87063527718870e-04
3.42470967741935e+00 5.27197534556343e-02 7.79938843104216e-04
3.43877419354839e+00 5.21351365710725e-02 7.72872134588989e-04
3.45283870967742e+00 5.15570025877452e-02 7.65863048780600e-04
3.46690322580645e+00 5.09852796141919e-02 7.58911231459981e-04
3.48096774193548e+00 5.04198965594122e-02 7.52016328109219e-04
3.49503225806452e+00 4.98607831175522e-02 7.45177984589907e-04
3.50909677419355e+00 4.93078697639925e-02 7.38395845102102e-04
3.52316129032258e+00 4.87610877466028e-02 7.31669555338611e-04
3.53722580645161e+00 4.82203690725991e-02 7.24998760537209e-04
3.55129032258065e+00 4.76856465061851e-02 7.18383105969081e-04
3.56535483870968e+00 4.71568535541948e-02 7.11822237568027e-04
3.57941935483871e+00 4.66339244623003e-02 7.05315800016230e-04
3.59348387096774e+00 4.61167942067407e-02 6.98863439691316e-04
3.60754838709677e+00 4.56053984819822e-02 6.92464803287896e-04
3.62161290322581e+00 4.50996736970065e-02 6.86119536468100e-04
3.63567741935484e+00 4.45995569673129e-02 6.79827286696587e-04
3.64974193548387e+00 4.41049861030252e-02 6.73587701477052e-04
3.66380645161290e+00 4.36158996065674e-02 6.67400428786263e-04
3.67787096774194e+00 4.31322366596947e-02 6.61265117634159e-04
3.69193548387097e+00 4.26539371199027e-02 6.55181416331346e-04
3.70600000000000e+00 4.21809415128655e-02 6.49148975138774e-04
3.72006451612903e+00 4.17131910212640e-02 6.43167444613460e-04
3.73412903225806e+00 4.12506274824854e-02 6.37236476010433e-04
3.74819354838710e+00 4.07931933764573e-02 6.31355721803040e-04
3.76225806451613e+00 4.03408318221779e-02 6.25524834057357e-04
3.77632258064516e+00 3.98934865705664e-02 6.19743466909157e-04
3.79038709677419e+00 3.94511019939655e-02 6.14011275011440e-04
3.80445161290323e+00 3.90136230838745e-02 6.08327913907289e-04
3.81851612903226e+00 3.85809954395323e-02 6.02693040512968e-04
3.83258064516129e+00 3.81531652645705e-02 5.97106311592696e-04
3.84664516129032e+00 3.77300793602513e-02 5.91567386074841e-04
3.86070967741935e+00 3.73116851156033e-02 5.86075923949706e-04
3.87477419354839e+00 3.68979305041516e-02 5.80631585190452e-04
3.88883870967742e+00 3.64887640773810e-02 5.75234031982092e-04
3.90290322580645e+00 3.60841349552242e-02 5.69882927315531e-04
3.91696774193548e+00 3.56839928238698e-02 5.64577935319119e-04
3.93103225806452e+00 3.52882879254365e-02 5.59318721689819e-04
3.94509677419355e+00 3.48969710548231e-02 5.54104952311699e-04
3.95916129032258e+00 3.45099935535280e-02 5.48936295340786e-04
3.97322580645161e+00 3.41273073007070e-02 5.43812419885451e-04
3.98729032258065e+00 3.37488647110283e-02 5.38732996314061e-04
4.00135483870968e+00 3.33746187249768e-02 5.33697696655645e-04
4.01541935483871e+00 3.30045228058239e-02 5.28706193303244e-04
4.02948387096774e+00 3.26385309337813e-02 5.23758160964483e-04
4.04354838709677e+00 3.22765975975950e-02 5.18853275722692e-04
4.05761290322581e+00 3.19186777915893e-02 5.13991214117810e-04
4.07167741935484e+00 3.15647270100135e-02 5.09171655023936e-04
4.08574193548387e+00 3.12147012389362e-02 5.04394278453499e-04
4.09980645161290e+00 3.08685569541881e-02 4.99658765831444e-04
4.11387096774194e+00 3.05262511125865e-02 4.94964800352951e-04
4.12793548387097e+00 3.01877411490944e-02 4.90312065808654e-04
4.14200000000000e+00 2.98529849714754e-02 4.85700248341844e-04
4.15606451612903e+00 2.95219409526695e-02 4.81129035325767e-04
4.17012903225806e+00 2.91945679287913e-02 4.76598115617977e-04
4.18419354838710e+00 2.88708251908858e-02 4.72107179893305e-04
4.19825806451613e+00 2.85506724821998e-02 4.67655919540703e-04
4.21232258064516e+00 2.82340699931286e-02 4.63244028307937e-04
4.22638709677419e+00 2.79209783540434e-02 4.58871201247210e-04
4.24045161290323e+00 2.76113586333465e-02 4.54537134951491e-04
4.25451612903226e+00 2.73051723297250e-02 4.50241527864207e-04
4.26858064516129e+00 2.70023813695329e-02 4.45984079243464e-04
4.28264516129032e+00 2.67029481020116e-02 4.41764490701731e-04
4.29670967741936e+00 2.64068352925430e-02 4.37582465453651e-04
4.31077419354839e+00 2.61140061200996e-02 4.33437707579636e-04
4.32483870967742e+00 2.58244241726226e-02 4.29329923508384e-04
4.33890322580645e+00 2.55380534405140e-02 4.25258821061128e-04
4.35296774193548e+00 2.52548583147892e-02 4.21224109662371e-04
4.36703225806452e+00 2.49748035800590e-02 4.17225500616866e-04
4.38109677419355e+00 2.46978544120844e-02 4.13262706170553e-04
4.39516129032258e+00 2.44239763734073e-02 4.09335440898815e-04
4.40922580645161e+00 2.41531354072257e-02 4.05443420808811e-04
4.42329032258065e+00 2.38852978356053e-02 4.01586363535217e-04
4.43735483870968e+00 2.36204303528827e-02 3.97763988598066e-04
