Energy (eV)          EEDF (eV^-(3/2))     First Anisotropy
1.19487179487179e-02 2.53534722437244e-01 1.51656890682413e-04
3.58461538461538e-02 2.51298643704540e-01 2.50165296587121e-04
5.97435897435897e-02 2.49082286325835e-01 3.29549656118807e-04
8.36410256410256e-02 2.46885476366705e-01 3.89436114962405e-04
1.07538461538462e-01 2.44708041426430e-01 4.39033767001546e-04
1.31435897435897e-01 2.42549810632630e-01 4.81834486472222e-04
1.55333333333333e-01 2.40410614601760e-01 5.19650266820586e-04
1.79230769230769e-01 2.38290285455209e-01 5.53578236074921e-04
2.03128205128205e-01 2.36188656794760e-01 5.84347943553065e-04
2.27025641025641e-01 2.34105563689625e-01 6.12476363520206e-04
2.50923076923077e-01 2.32040842663522e-01 6.38347176543954e-04
2.74820512820513e-01 2.29994331681878e-01 6.62255362052284e-04
2.98717948717949e-01 2.27965870139263e-01 6.84434111334100e-04
3.22615384615385e-01 2.25955298846688e-01 7.05071981500269e-04
3.46512820512821e-01 2.23962460019124e-01 7.24324316279503e-04
3.70410256410256e-01 2.21987197268591e-01 7.42321128753675e-04
3.94307692307692e-01 2.20029355575100e-01 7.59172703624016e-04
4.18205128205128e-01 2.18088781291709e-01 7.74973682272962e-04
4.42102564102564e-01 2.16165322126573e-01 7.89806109737990e-04
4.66000000000000e-01 2.14258827130991e-01 8.03741747458660e-04
4.89897435897436e-01 2.12369146687548e-01 8.16843859966606e-04
5.13794871794872e-01 2.10496132498393e-01 8.29168615392356e-04
5.37692307692308e-01 2.08639637573616e-01 8.40766197828968e-04
5.61589743589744e-01 2.06799516219697e-01 8.51681701347130e-04
5.85487179487180e-01 2.04975624028070e-01 8.61955855889090e-04
6.09384615384615e-01 2.03167817866792e-01 8.71625624057129e-04
6.33282051282051e-01 2.01375955860164e-01 8.80724693384723e-04
6.57179487179487e-01 1.99599897386904e-01 8.89283886916465e-04
6.81076923076923e-01 1.97839503065954e-01 8.97331510027046e-04
7.04974358974359e-01 1.96094634745538e-01 9.04893642649112e-04
7.28871794871795e-01 1.94365155492315e-01 9.11994388492050e-04
7.52769230769231e-01 1.92650929580651e-01 9.18656088575006e-04
7.76666666666667e-01 1.90951822481958e-01 9.24899505196581e-04
8.00564102564103e-01 1.89267700854138e-01 9.30743981245186e-04
8.24461538461538e-01 1.87598432531119e-01 9.36207578550433e-04
8.48358974358974e-01 1.85943886514437e-01 9.41307199878441e-04
8.72256410256410e-01 1.84303932957004e-01 9.46058694737402e-04
8.96153846153846e-01 1.82678443158958e-01 9.50476952554807e-04
9.20051282051282e-01 1.81067289555516e-01 9.54575986448392e-04
9.43948717948718e-01 1.79470345706971e-01 9.58369006558305e-04
9.67846153846154e-01 1.77887486288754e-01 9.61868485620714e-04
9.91743589743590e-01 1.76318587081618e-01 9.65086218041972e-04
1.01564102564103e+00 1.74763524958772e-01 9.68033369621542e-04
1.03953846153846e+00 1.73222177894521e-01 9.70720530753902e-04
1.06343589743590e+00 1.71694424912551e-01 9.73157755390931e-04
1.08733333333333e+00 1.70180146118481e-01 9.75354593019221e-04
1.11123076923077e+00 1.68679222689140e-01 9.77320136678123e-04
1.13512820512821e+00 1.67191536821693e-01 9.79063045790242e-04
1.15902564102564e+00 1.65716971778960e-01 9.80591576728233e-04
1.18292307692308e+00 1.64255411827607e-01 9.81913609668424e-04
1.20682051282051e+00 1.62806742279875e-01 9.83036672047549e-04
1.23071794871795e+00 1.61370849435483e-01 9.83967962991890e-04
1.25461538461538e+00 1.59947620608980e-01 9.84714365365423e-04
1.27851282051282e+00 1.58536944119894e-01 9.85282476166335e-04
1.30241025641026e+00 1.57138709250400e-01 9.85678615960406e-04
1.32630769230769e+00 1.55752806280778e-01 9.85908846201894e-04
1.35020512820513e+00 1.54379126438062e-01 9.85978986021118e-04
1.37410256410256e+00 1.53017561919093e-01 9.85894618262752e-04
1.39800000000000e+00 1.51668005881257e-01 9.85661112821652e-04
1.42189743589744e+00 1.50330352404696e-01 9.85283631232856e-04
1.44579487179487e+00 1.49004496522694e-01 9.84767138890816e-04
1.46969230769231e+00 1.47690334175903e-01 9.84116417115632e-04
1.49358974358974e+00 1.46387762231939e-01 9.83336065677858e-04
1.51748717948718e+00 1.45096678476613e-01 9.82430521487037e-04
1.54138461538462e+00 1.43816981579983e-01 9.81404060302853e-04
1.56528205128205e+00 1.42548571122556e-01 9.80260805701213e-04
1.58917948717949e+00 1.41291347554219e-01 9.79004738079007e-04
1.61307692307692e+00 1.40045212211010e-01 9.77639695073012e-04
1.63697435897436e+00 1.38810067306759e-01 9.76169387026748e-04
1.66087179487179e+00 1.37585815902441e-01 9.74597396950980e-04
1.68476923076923e+00 1.36372361928890e-01 9.72927187328372e-04
1.70866666666667e+00 1.35169610149744e-01 9.71162105687317e-04
1.73256410256410e+00 1.33977466182692e-01 9.69305389213380e-04
1.75646153846154e+00 1.32795836464104e-01 9.67360171039874e-04
1.78035897435897e+00 1.31624628262427e-01 9.65329479062419e-04
1.80425641025641e+00 1.30463749670426e-01 9.63216248253209e-04
1.82815384615385e+00 1.29313109578496e-01 9.61023319294716e-04
1.85205128205128e+00 1.28172617693214e-01 9.58753443407723e-04
1.87594871794872e+00 1.27042184505199e-01 9.56409287388428e-04
1.89984615384615e+00 1.25921721300672e-01 9.53993431774020e-04
1.92374358974359e+00 1.24811140154079e-01 9.51508381577804e-04
1.94764102564103e+00 1.23710353903702e-01 9.48956564388527e-04
1.97153846153846e+00 1.22619276167909e-01 9.46340334262421e-04
1.99543589743590e+00 1.21537821315844e-01 9.43661975842803e-04
2.01933333333333e+00 1.20465904477433e-01 9.40923702145864e-04
2.04323076923077e+00 1.19403441536343e-01 9.38127664051278e-04
2.06712820512821e+00 1.18350349107638e-01 9.35275948082802e-04
2.09102564102564e+00 1.17306544552043e-01 9.32370579613195e-04
2.11492307692308e+00 1.16271945949129e-01 9.29413525239996e-04
2.13882051282051e+00 1.15246472110745e-01 9.26406694593192e-04
2.16271794871795e+00 1.14230042555239e-01 9.23351943530474e-04
2.18661538461538e+00 1.13222577515564e-01 9.20251071686396e-04
2.21051282051282e+00 1.12223997932705e-01 9.17105830569982e-04
2.23441025641026e+00 1.11234225435854e-01 9.13917921157479e-04
2.25830769230769e+00 1.10253182354265e-01 9.10688996394207e-04
2.28220512820513e+00 1.09280791693555e-01 9.07420663918562e-04
2.30610256410256e+00 1.08316977142740e-01 9.04114483535911e-04
2.33000000000000e+00 1.07361663067978e-01 9.00771974544128e-04
2.35389743589744e+00 1.06414774494253e-01 8.97394613276297e-04
2.37779487179487e+00 1.05476237115857e-01 8.93983835235394e-04
2.40169230769231e+00 1.04545977274549e-01 8.90541037445617e-04
2.42558974358974e+00 1.03623921965673e-01 8.87067575915363e-04
2.44948717948718e+00 1.02709998832182e-01 8.83564772307376e-04
2.47338461538462e+00 1.01804136147698e-01 8.80033911482698e-04
2.49728205128205e+00 1.00906262825778e-01 8.76476243345764e-04
2.52117948717949e+00 1.00016308399752e-01 8.72892984895060e-04
2.54507692307692e+00 9.91342030280388e-02 8.69285317717747e-04
2.56897435897436e+00 9.82598774884414e-02 8.65654394095318e-04
2.59287179487179e+00 9.73932631624353e-02 8.62001334582386e-04
2.61676923076923e+00 9.65342920433886e-02 8.58327229619640e-04
2.64066666666667e+00 9.56828967178960e-02 8.54633140560729e-04
2.66456410256410e+00 9.48390103735458e-02 8.50920100344852e-04
2.68846153846154e+00 9.40025667808809e-02 8.47189115211986e-04
2.71235897435897e+00 9.31735002977244e-02 8.43441162297815e-04
2.73625641025641e+00 9.23517458638350e-02 8.39677195046188e-04
2.76015384615385e+00 9.15372389867647e-02 8.35898140891906e-04
2.78405128205128e+00 9.07299157487585e-02 8.32104902609375e-04
2.80794871794872e+00 8.99297127900140e-02 8.28298359841807e-04
2.83184615384615e+00 8.91365673124321e-02 8.24479366772182e-04
2.85574358974359e+00 8.83504170745199e-02 8.20648757124063e-04
2.87964102564103e+00 8.75712003782146e-02 8.16807341922771e-04
2.90353846153846e+00 8.67988560750163e-02 8.12955910695791e-04
2.92743589743590e+00 8.60333235504262e-02 8.09095232843400e-04
2.95133333333333e+00 8.52745427272018e-02 8.05226055396837e-04
2.97523076923077e+00 8.45224540604833e-02 8.01349107652024e-04
2.99912820512821e+00 8.37769985255064e-02 7.97465099014013e-04
3.02302564102564e+00 8.30381176230560e-02 7.93574720074025e-04
3.04692307692308e+00 8.23057533649780e-02 7.89678643221468e-04
3.07082051282051e+00 8.15798482793402e-02 7.85777522992113e-04
3.09471794871795e+00 8.08603453963897e-02 7.81871997250705e-04
3.11861538461538e+00 8.01471882511838e-02 7.77962685088970e-04
3.14251282051282e+00 7.94403208790180e-02 7.74050190992141e-04
3.16641025641026e+00 7.87396878042803e-02 7.70135102817739e-04
3.19030769230769e+00 7.80452340450444e-02 7.66217992725237e-04
3.21420512820513e+00 7.73569050999720e-02 7.62299418250915e-04
3.23810256410256e+00 7.66746469505772e-02 7.58379920296972e-04
3.26200000000000e+00 7.59984060568627e-02 7.54460027012639e-04
3.28589743589744e+00 7.53281293468881e-02 7.50540251862948e-04
3.30979487179487e+00 7.46637642208579e-02 7.46621094471701e-04
3.33369230769231e+00 7.40052585388890e-02 7.42703041601631e-04
3.35758974358974e+00 7.33525606229562e-02 7.38786565235266e-04
3.38148717948718e+00 7.27056192527223e-02 7.34872126196442e-04
3.40538461538462e+00 7.20643836557658e-02 7.30960172307338e-04
3.42928205128205e+00 7.14288035112193e-02 7.27051139156695e-04
3.45317948717949e+00 7.07988289383319e-02 7.23145450996307e-04
3.47707692307692e+00 7.01744104981347e-02 7.19243518912759e-04
3.50097435897436e+00 6.95554991894537e-02 7.15345744211594e-04
3.52487179487180e+00 6.89420464397476e-02 7.11452516660412e-04
3.54876923076923e+00 6.83340041083450e-02 7.07564215192031e-04
3.57266666666667e+00 6.77313244757385e-02 7.03681208253105e-04
3.59656410256410e+00 6.71339602466479e-02 6.99803853963799e-04
3.62046153846154e+00 6.65418645396169e-02 6.95932500911047e-04
3.64435897435897e+00 6.59549908883223e-02 6.92067486449801e-04
3.66825641025641e+00 6.53732932378332e-02 6.88209139777752e-04
3.69215384615385e+00 6.47967259362395e-02 6.84357780303216e-04
3.71605128205128e+00 6.42252437373761e-02 6.80513718266340e-04
3.73994871794872e+00 6.36588017910719e-02 6.76677255470683e-04
3.76384615384615e+00 6.30973556442508e-02 6.72848683667086e-04
3.78774358974359e+00 6.25408612373591e-02 6.69028287435440e-04
3.81164102564103e+00 6.19892748964959e-02 6.65216342633136e-04
3.83553846153846e+00 6.14425533358338e-02 6.61413116966619e-04
3.85943589743590e+00 6.09006536484716e-02 6.57618870666969e-04
3.88333333333333e+00 6.03635333073539e-02 6.53833854954528e-04
3.90723076923077e+00 5.98311501618545e-02 6.50058314742357e-04
3.93112820512821e+00 5.93034624303755e-02 6.46292487160983e-04
3.95502564102564e+00 5.87804287024962e-02 6.42536602086506e-04
3.97892307692308e+00 5.82620079303849e-02 6.38790882379447e-04
4.00282051282051e+00 5.77481594308279e-02 6.35055543974695e-04
4.02671794871795e+00 5.72388428768714e-02 6.31330796485753e-04
4.05061538461538e+00 5.67340182985100e-02 6.27616841781673e-04
4.07451282051282e+00 5.62336460794777e-02 6.23913876455854e-04
4.09841025641026e+00 5.57376869504603e-02 6.20222090457959e-04
4.12230769230769e+00 5.52461019908929e-02 6.16541667566331e-04
4.14620512820513e+00 5.47588526211046e-02 6.12872785949188e-04
4.17010256410256e+00 5.42759006028711e-02 6.09215616812888e-04
4.19400000000000e+00 5.37972080363498e-02 6.05570326722753e-04
4.21789743589744e+00 5.33227373536823e-02 6.01937076304075e-04
4.24179487179487e+00 5.28524513205855e-02 5.98316020679985e-04
4.26569230769231e+00 5.23863130289631e-02 5.94707309993309e-04
4.28958974358974e+00 5.19242858973400e-02 5.91111088123256e-04
4.31348717948718e+00 5.14663336679317e-02 5.87527494868505e-04
4.33738461538462e+00 5.10124204006138e-02 5.83956664713844e-04
4.36128205128205e+00 5.05625104743264e-02 5.80398727237086e-04
4.38517948717949e+00 5.01165685801203e-02 5.76853807594630e-04
4.40907692307692e+00 4.96745597214877e-02 5.73322025303646e-04
4.43297435897436e+00 4.92364492115596e-02 5.69803496296952e-04
4.45687179487179e+00 4.88022026674178e-02 5.66298331751854e-04
4.48076923076923e+00 4.83717860113321e-02 5.62806638469042e-04
4.50466666666667e+00 4.79451654642111e-02 5.59328519026171e-04
4.52856410256410e+00 4.75223075467663e-02 5.55864071820048e-04
4.55246153846154e+00 4.71031790731283e-02 5.52413391505624e-04
4.57635897435897e+00 4.66877471510451e-02 5.48976567867621e-04
4.60025641025641e+00 4.62759791792508e-02 5.45553687705549e-04
4.62415384615385e+00 4.58678428422255e-02 5.42144833748593e-04
4.64805128205128e+00 4.54633061112169e-02 5.38750084997578e-04
4.67194871794872e+00 4.50623372382241e-02 5.35369517135164e-04
4.69584615384615e+00 4.46649047561186e-02 5.32003201454620e-04
4.71974358974359e+00 4.42709774761299e-02 5.28651206636614e-04
4.74364102564103e+00 4.38805244828953e-02 5.25313597719529e-04
4.76753846153846e+00 4.34935151353536e-02 5.21990436418363e-04
4.79143589743590e+00 4.31099190610710e-02 5.18681781508042e-04
4.81533333333333e+00 4.27297061562971e-02 5.15387687807060e-04
4.83923076923077e+00 4.23528465835590e-02 5.12108207853038e-04
4.86312820512821e+00 4.19793107669847e-02 5.08843390925046e-04
4.88702564102564e+00 4.16090693930811e-02 5.05593283341805e-04
4.91092307692308e+00 4.12420934053808e-02 5.02357928574055e-04
4.93482051282051e+00 4.08783540051690e-02 4.99137367266805e-04
4.95871794871795e+00 4.05178226462604e-02 4.95931637587443e-04
4.98261538461538e+00 4.01604710349712e-02 4.92740774284078e-04
5.00651282051282e+00 3.98062711278585e-02 4.89564810226440e-04
5.03041025641026e+00 3.94551951274026e-02 4.86403775499598e-04
5.05430769230769e+00 3.91072154826357e-02 4.83257697674828e-04
5.07820512820513e+00 3.87623048842111e-02 4.80126602135832e-04
5.10210256410256e+00 3.84204362643262e-02 4.77010511184852e-04
5.12600000000000e+00 3.80815827945622e-02 4.73909445497334e-04
5.14989743589744e+00 3.77457178817995e-02 4.70823423261760e-04
5.17379487179487e+00 3.74128151687573e-02 4.67752460433178e-04
5.19769230769231e+00 3.70828485293374e-02 4.64696571039084e-04
5.22158974358974e+00 3.67557920685048e-02 4.61655766330945e-04
5.24548717948718e+00 3.64316201202229e-02 4.58630056157973e-04
5.26938461538462e+00 3.61103072435873e-02 4.55619448150611e-04
5.29328205128205e+00 3.57918282232872e-02 4.52623947958072e-04
5.31717948717949e+00 3.54761580652042e-02 4.49643559535291e-04
5.34107692307692e+00 3.51632719962591e-02 4.46678284337686e-04
5.36497435897436e+00 3.48531454624357e-02 4.43728122618905e-04
5.38887179487180e+00 3.45457541251218e-02 4.40793072655602e-04
5.41276923076923e+00 3.42410738614990e-02 4.37873130970327e-04
5.43666666666667e+00 3.39390807603828e-02 4.34968292408213e-04
5.46056410256410e+00 3.36397511225803e-02 4.32078550144702e-04
5.48446153846154e+00 3.33430614568279e-02 4.29203895947525e-04
5.50835897435897e+00 3.30489884795919e-02 4.26344319430023e-04
5.53225641025641e+00 3.27575091132134e-02 4.23499809247667e-04
5.55615384615385e+00 3.24686004825200e-02 4.20670352379140e-04
5.58005128205128e+00 3.21822399151241e-02 4.17855934329553e-04
5.60394871794872e+00 3.18984049375801e-02 4.15056539376849e-04
5.62784615384615e+00 3.16170732751611e-02 4.12272149862734e-04
5.65174358974359e+00 3.13382228500843e-02 4.09502747323892e-04
5.67564102564103e+00 3.10618317783017e-02 4.06748311809591e-04
5.69953846153846e+00 3.07878783697430e-02 4.04008822072414e-04
5.72343589743590e+00 3.05163411246810e-02 4.01284255799826e-04
5.74733333333333e+00 3.02471987334867e-02 3.98574588941180e-04
5.77123076923077e+00 2.99804300749331e-02 3.95879796777438e-04
5.79512820512821e+00 2.97160142131526e-02 3.93199853273064e-04
5.81902564102564e+00 2.94539303978328e-02 3.90534731255484e-04
5.84292307692308e+00 2.91941580607750e-02 3.87884402472965e-04
5.86682051282051e+00 2.89366768160676e-02 3.85248837596096e-04
5.89071794871795e+00 2.86814664567237e-02 3.82628006429691e-04
5.91461538461538e+00 2.84285069544115e-02 3.80021877288441e-04
5.93851282051282e+00 2.81777784578599e-02 3.77430417984772e-04
5.96241025641026e+00 2.79292612900380e-02 3.74853595227269e-04
5.98630769230769e+00 2.76829359482874e-02 3.72291374784905e-04
6.01020512820513e+00 2.74387831011386e-02 3.69743721686623e-04
6.03410256410256e+00 2.71967835880281e-02 3.67210599628249e-04
6.05800000000000e+00 2.69569184177739e-02 3.64691971907352e-04
6.08189743589744e+00 2.67191687659007e-02 3.62187800852082e-04
6.10579487179487e+00 2.64835159747351e-02 3.59698047975510e-04
6.12969230769231e+00 2.62499415503908e-02 3.57222674163621e-04
6.15358974358974e+00 2.60184271624748e-02 3.54761639112093e-04
6.17748717948718e+00 2.57889546426298e-02 3.52314902211132e-04
6.20138461538462e+00 2.55615059819965e-02 3.49882422002973e-04
6.22528205128205e+00 2.53360633312768e-02 3.47464156327229e-04
6.24917948717949e+00 2.51126089978764e-02 3.45060062497828e-04
6.27307692307692e+00 2.48911254456045e-02 3.42670096768252e-04
6.29697435897436e+00 2.46715952932783e-02 3.40294215169241e-04
6.32087179487180e+00 2.44540013123159e-02 3.37932372993309e-04
6.34476923076923e+00 2.42383264267700e-02 3.35584524931779e-04
6.36866666666667e+00 2.40245537106209e-02 3.33250625115530e-04
6.39256410256410e+00 2.38126663877965e-02 3.30930627111912e-04
6.41646153846154e+00 2.36026478295253e-02 3.28624484087305e-04
6.44035897435897e+00 2.33944815540255e-02 3.26332148310446e-04
6.46425641025641e+00 2.31881512251946e-02 3.24053571927252e-04
6.48815384615385e+00 2.29836406503728e-02 3.21788706482189e-04
6.51205128205128e+00 2.27809337803403e-02 3.19537503043863e-04
6.53594871794872e+00 2.25800147068070e-02 3.17299912358363e-04
6.55984615384615e+00 2.23808676620977e-02 3.15075884377329e-04
6.58374358974359e+00 2.21834770178997e-02 3.12865368991936e-04
6.60764102564103e+00 2.19878272831389e-02 3.10668315578199e-04
6.63153846153846e+00 2.17939031039555e-02 3.08484673115294e-04
6.65543589743590e+00 2.16016892613239e-02 3.06314390330160e-04
6.67933333333333e+00 2.14111706707358e-02 3.04157415249197e-04
6.70323076923077e+00 2.12223323810020e-02 3.02013695893643e-04
6.72712820512821e+00 2.10351595722361e-02 2.99883179847462e-04
6.75102564102564e+00 2.08496375558107e-02 2.97765814368969e-04
6.77492307692308e+00 2.06657517721005e-02 2.95661546422170e-04
6.79882051282051e+00 2.04834877904295e-02 2.93570322671917e-04
6.82271794871795e+00 2.03028313068626e-02 2.91492089616824e-04
6.84661538461538e+00 2.01237681438870e-02 2.89426793172766e-04
6.87051282051282e+00 1.99462842492859e-02 2.87374379316741e-04
6.89441025641026e+00 1.97703656942642e-02 2.85334793685326e-04
6.91830769230769e+00 1.95959986733798e-02 2.83307981677237e-04
6.94220512820513e+00 1.94231695024496e-02 2.81293888578913e-04
6.96610256410256e+00 1.92518646182304e-02 2.79292459168676e-04
6.99000000000000e+00 1.90820705773424e-02 2.77303638326973e-04
7.01389743589744e+00 1.89137740544880e-02 2.75327370654800e-04
7.03779487179487e+00 1.87469618423706e-02 2.73363600570456e-04
7.06169230769231e+00 1.85816208497059e-02 2.71412272428100e-04
7.08558974358974e+00 1.84177381009063e-02 2.69473330141556e-04
7.10948717948718e+00 1.82553007350500e-02 2.67546717762835e-04
7.13338461538462e+00 1.80942960041891e-02 2.65632379119426e-04
7.15728205128205e+00 1.79347112732564e-02 2.63730257905653e-04
7.18117948717949e+00 1.77765340181783e-02 2.61840297794598e-04
7.20507692307692e+00 1.76197518255607e-02 2.59962442080557e-04
7.22897435897436e+00 1.74643523917044e-02 2.58096634227605e-04
7.25287179487179e+00 1.73103235209957e-02 2.56242817524770e-04
7.27676923076923e+00 1.71576531258044e-02 2.54400935172285e-04
7.30066666666667e+00 1.70063292246912e-02 2.52570930304042e-04
7.32456410256410e+00 1.68563399423004e-02 2.50752745981575e-04
7.34846153846154e+00 1.67076735076057e-02 2.48946325297187e-04
7.37235897435897e+00 1.65603182536011e-02 2.47151611041541e-04
7.39625641025641e+00 1.64142626163744e-02 2.45368546212130e-04
7.42015384615385e+00 1.62694951336099e-02 2.43597073692643e-04
7.44405128205128e+00 1.61260044444729e-02 2.41837136332336e-04
7.46794871794872e+00 1.59837792879442e-02 2.40088677043601e-04
7.49184615384615e+00 1.58428085025146e-02 2.38351638485837e-04
7.51574358974359e+00 1.57030810252990e-02 2.36625963547744e-04
7.53964102564103e+00 1.55645858906131e-02 2.34911595042544e-04
