Energy (eV)          EEDF (eV^-(3/2))     First Anisotropy
8.72222222222222e-03 3.62514087438400e+00 4.34577381065394e-03
2.61666666666667e-02 3.48827821041256e+00 7.06439438710422e-03
4.36111111111111e-02 3.35658262505838e+00 9.03446135386017e-03
6.10555555555556e-02 3.22985904210214e+00 1.03645667759727e-02
7.85000000000000e-02 3.10791974957695e+00 1.13434819042187e-02
9.59444444444444e-02 2.99058412274853e+00 1.20859242511227e-02
1.13388888888889e-01 2.87767835549703e+00 1.26539661930842e-02
1.30833333333333e-01 2.76903520487799e+00 1.30866368410446e-02
1.48277777777778e-01 2.66449374023984e+00 1.34107816462646e-02
1.65722222222222e-01 2.56389910831659e+00 1.36460020493762e-02
1.83166666666667e-01 2.46710230124269e+00 1.38072303052364e-02
2.00611111111111e-01 2.37395993640796e+00 1.39062053657024e-02
2.18055555555556e-01 2.28433404535567e+00 1.39523810836558e-02
2.35500000000000e-01 2.19809186762671e+00 1.39535164484449e-02
2.52944444444444e-01 2.11510565570911e+00 1.39160764355837e-02
2.70388888888889e-01 2.03525248436718e+00 1.38455142504678e-02
2.87833333333333e-01 1.95841406986022e+00 1.37464761048662e-02
3.05277777777778e-01 1.88447659355036e+00 1.36229536673168e-02
3.22722222222222e-01 1.81333053438225e+00 1.34784000401069e-02
3.40166666666667e-01 1.74487050586395e+00 1.33158197628072e-02
3.57611111111111e-01 1.67899510008084e+00 1.31378396969976e-02
3.75055555555556e-01 1.61560673800457e+00 1.29467658368904e-02
3.92500000000000e-01 1.55461152425045e+00 1.27446293359899e-02
4.09944444444444e-01 1.49591910864210e+00 1.25332242578515e-02
4.27388888888889e-01 1.43944255177780e+00 1.23141388744606e-02
4.44833333333333e-01 1.38509819680679e+00 1.20887818394691e-02
4.62277777777778e-01 1.33280554499411e+00 1.18584042780508e-02
4.79722222222222e-01 1.28248713696067e+00 1.16241185505190e-02
4.97166666666667e-01 1.23406843759023e+00 1.13869143450329e-02
5.14611111111111e-01 1.18747772566676e+00 1.11476724831720e-02
5.32055555555556e-01 1.14264598789317e+00 1.09071769277280e-02
5.49500000000000e-01 1.09950681632013e+00 1.06661252165495e-02
5.66944444444444e-01 1.05799631029993e+00 1.04251375886217e-02
5.84388888888889e-01 1.01805298153101e+00 1.01847650077601e-02
6.01833333333333e-01 9.79617663259666e-01 9.94549623355014e-03
6.19277777777778e-01 9.42633422373412e-01 9.70776408589176e-03
6.36722222222222e-01 9.07045475316094e-01 9.47195100008006e-03
6.54166666666667e-01 8.72801106754775e-01 9.23839399506203e-03
6.71611111111111e-01 8.39849591514138e-01 9.00738907744433e-03
6.89055555555556e-01 8.08142119578371e-01 8.77919521629207e-03
7.06500000000000e-01 7.77631723604328e-01 8.55403789773043e-03
7.23944444444444e-01 7.48273209525516e-01 8.33211232163336e-03
7.41388888888889e-01 7.20023089442391e-01 8.11358628633833e-03
7.58833333333333e-01 6.92839517360730e-01 7.89860278940547e-03
7.76277777777778e-01 6.66682227059684e-01 7.68728238290584e-03
7.93722222222222e-01 6.41512472585122e-01 7.47972530120874e-03
8.11166666666667e-01 6.17292970753780e-01 7.27601340317906e-03
8.28611111111111e-01 5.93987845937044e-01 7.07621191413919e-03
8.46055555555555e-01 5.71562576999510e-01 6.88037102901735e-03
8.63500000000000e-01 5.49983946057318e-01 6.68852736262325e-03
8.80944444444444e-01 5.29219989374310e-01 6.50070527000188e-03
8.98388888888889e-01 5.09239949919808e-01 6.31691805216152e-03
9.15833333333333e-01 4.90014231899368e-01 6.13716905339602e-03
9.33277777777778e-01 4.71514356830090e-01 5.96145266483046e-03
9.50722222222222e-01 4.53712921437120e-01 5.78975523732900e-03
9.68166666666667e-01 4.36583557002064e-01 5.62205592348025e-03
9.85611111111111e-01 4.20100890309404e-01 5.45832743306148e-03
1.00305555555556e+00 4.04240506109528e-01 5.29853673847734e-03
1.02050000000000e+00 3.88978910861565e-01 5.14264570141390e-03
1.03794444444444e+00 3.74293498133472e-01 4.99061167744277e-03
1.05538888888889e+00 3.60162514742624e-01 4.84238802767381e-03
1.07283333333333e+00 3.46565029028414e-01 4.69792461500940e-03
1.09027777777778e+00 3.33480899334188e-01 4.55716825324577e-03
1.10772222222222e+00 3.20890744658524e-01 4.42006309925184e-03
1.12516666666667e+00 3.08775915585559e-01 4.28655106440563e-03
1.14261111111111e+00 2.97118466692176e-01 4.15657209963852e-03
1.16005555555556e+00 2.85901130256381e-01 4.03006453939242e-03
1.17750000000000e+00 2.75107290292937e-01 3.90696538001972e-03
1.19494444444444e+00 2.64720958307601e-01 3.78721053216972e-03
1.21238888888889e+00 2.54726749265133e-01 3.67073506074849e-03
1.22983333333333e+00 2.45109859131369e-01 3.55747339360506e-03
1.24727777777778e+00 2.35856042629404e-01 3.44735952045662e-03
1.26472222222222e+00 2.26951592438034e-01 3.34032715926697e-03
1.28216666666667e+00 2.18383318665067e-01 3.23630994212414e-03
1.29961111111111e+00 2.10138529328468e-01 3.13524152376334e-03
1.31705555555556e+00 2.02205011736697e-01 3.03705573471483e-03
1.33450000000000e+00 1.94571014158336e-01 2.94168669626207e-03
1.35194444444444e+00 1.87225228643088e-01 2.84906892294464e-03
1.36938888888889e+00 1.80156774054223e-01 2.75913742117004e-03
1.38683333333333e+00 1.73355180157650e-01 2.67182777113191e-03
1.40427777777778e+00 1.66810371915673e-01 2.58707620592919e-03
1.42172222222222e+00 1.60512654750713e-01 2.50481967249618e-03
1.43916666666667e+00 1.54452700045687e-01 2.42499590869271e-03
1.45661111111111e+00 1.48621531337300e-01 2.34754347178294e-03
1.47405555555556e+00 1.43010511133434e-01 2.27240179938183e-03
1.49150000000000e+00 1.37611327967234e-01 2.19951124745444e-03
1.50894444444444e+00 1.32415984229898e-01 2.12881312234948e-03
1.52638888888889e+00 1.27416784186566e-01 2.06024971239316e-03
1.54383333333333e+00 1.22606322707896e-01 1.99376431036386e-03
1.56127777777778e+00 1.17977474176206e-01 1.92930123596257e-03
1.57872222222222e+00 1.13523382049525e-01 1.86680584787495e-03
1.59616666666667e+00 1.09237448616787e-01 1.80622456830511e-03
1.61361111111111e+00 1.05113325231927e-01 1.74750487644098e-03
1.63105555555556e+00 1.01144902982586e-01 1.69059532513110e-03
1.64850000000000e+00 9.73263035444843e-02 1.63544554350192e-03
1.66594444444444e+00 9.36518705662421e-02 1.58200623682679e-03
1.68338888888889e+00 9.01161612028669e-02 1.53022918726459e-03
1.70083333333333e+00 8.67139381373107e-02 1.48006724957730e-03
1.71827777777778e+00 8.34401617425889e-02 1.43147434786881e-03
1.73572222222222e+00 8.02899826930570e-02 1.38440546629322e-03
1.75316666666667e+00 7.72587347245371e-02 1.33881664907791e-03
1.77061111111111e+00 7.43419277267695e-02 1.29466498046064e-03
1.78805555555556e+00 7.15352411392456e-02 1.25190858108283e-03
1.80550000000000e+00 6.88345174889847e-02 1.21050659566012e-03
1.82294444444444e+00 6.62357562916680e-02 1.17041917951522e-03
1.84038888888889e+00 6.37351080690838e-02 1.13160748636678e-03
1.85783333333333e+00 6.13288687011948e-02 1.09403365336670e-03
1.87527777777778e+00 5.90134738876204e-02 1.05766078742161e-03
1.89272222222222e+00 5.67854939173228e-02 1.02245294800598e-03
1.91016666666667e+00 5.46416285515853e-02 9.88375136812085e-04
1.92761111111111e+00 5.25787021382908e-02 9.55393274307766e-04
1.94505555555556e+00 5.05936589383919e-02 9.23474187913005e-04
1.96250000000000e+00 4.86835585590637e-02 8.92585594720660e-04
1.97994444444444e+00 4.68455716368470e-02 8.62696083874736e-04
1.99738888888889e+00 4.50769756096802e-02 8.33775100201096e-04
2.01483333333333e+00 4.33751507193157e-02 8.05792926357765e-04
2.03227777777778e+00 4.17375760970700e-02 7.78720666215824e-04
2.04972222222222e+00 4.01618260619150e-02 7.52530226204562e-04
2.06716666666667e+00 3.86455665034741e-02 7.27194301624797e-04
2.08461111111111e+00 3.71865514263848e-02 7.02686354376823e-04
2.10205555555556e+00 3.57826196432991e-02 6.78980598875267e-04
2.11950000000000e+00 3.44316915471155e-02 6.56051984534375e-04
2.13694444444444e+00 3.31317660558139e-02 6.33876178284982e-04
2.15438888888889e+00 3.18809176241446e-02 6.12429548192005e-04
2.17183333333333e+00 3.06772934144766e-02 5.91689146304295e-04
2.18927777777778e+00 2.95191105301710e-02 5.71632692566198e-04
2.20672222222222e+00 2.84046533957297e-02 5.52238557559005e-04
2.22416666666667e+00 2.73322711998828e-02 5.33485748830538e-04
2.24161111111111e+00 2.63003754514602e-02 5.15353891568826e-04
2.25905555555556e+00 2.53074376395140e-02 4.97823215039398e-04
2.27650000000000e+00 2.43519869517748e-02 4.80874536860749e-04
2.29394444444444e+00 2.34326081126255e-02 4.64489247468989e-04
2.31138888888889e+00 2.25479392707861e-02 4.48649295491132e-04
2.32883333333333e+00 2.16966699972583e-02 4.33337172747043e-04
2.34627777777778e+00 2.08775393296821e-02 4.18535900119061e-04
2.36372222222222e+00 2.00893339184194e-02 4.04229012760742e-04
2.38116666666667e+00 1.93308862189171e-02 3.90400547886879e-04
2.39861111111111e+00 1.86010727630190e-02 3.77035028824173e-04
2.41605555555556e+00 1.78988125034693e-02 3.64117453118401e-04
2.43350000000000e+00 1.72230652010858e-02 3.51633279277616e-04
2.45094444444444e+00 1.65728298948897e-02 3.39568413752818e-04
2.46838888888889e+00 1.59471434088879e-02 3.27909198642145e-04
2.48583333333333e+00 1.53450789354177e-02 3.16642399239766e-04
2.50327777777778e+00 1.47657446526655e-02 3.05755192271265e-04
2.52072222222222e+00 1.42082824128504e-02 2.95235153766446e-04
2.53816666666667e+00 1.36718664642274e-02 2.85070248784130e-04
2.55561111111111e+00 1.31557022284252e-02 2.75248818657841e-04
2.57305555555556e+00 1.26590251292109e-02 2.65759571096717e-04
2.59050000000000e+00 1.21810994523111e-02 2.56591569426341e-04
2.60794444444444e+00 1.17212172629272e-02 2.47734222063073e-04
2.62538888888889e+00 1.12786973501023e-02 2.39177272551253e-04
2.64283333333333e+00 1.08528842243546e-02 2.30910789558706e-04
2.66027777777778e+00 1.04431471403194e-02 2.22925157403998e-04
2.67772222222222e+00 1.00488791685710e-02 2.15211066394045e-04
2.69516666666667e+00 9.66949629204266e-03 2.07759504488078e-04
2.71261111111111e+00 9.30443654126790e-03 2.00561747314395e-04
2.73005555555556e+00 8.95315916578335e-03 1.93609350197275e-04
2.74750000000000e+00 8.61514382804399e-03 1.86894139642727e-04
2.76494444444444e+00 8.28988983753300e-03 1.80408205031371e-04
2.78238888888889e+00 7.97691540444334e-03 1.74143890742228e-04
2.79983333333333e+00 7.67575693047880e-03 1.68093788290838e-04
2.81727777777778e+00 7.38596831786975e-03 1.62250728873180e-04
2.83472222222222e+00 7.10712031267007e-03 1.56607775818529e-04
2.85216666666667e+00 6.83879986587713e-03 1.51158217990984e-04
2.86961111111111e+00 6.58060952181158e-03 1.45895562094642e-04
2.88705555555556e+00 6.33216683193998e-03 1.40813526394481e-04
2.90450000000000e+00 6.09310378496409e-03 1.35906034097939e-04
2.92194444444444e+00 5.86306626495370e-03 1.31167206910238e-04
2.93938888888889e+00 5.64171352368774e-03 1.26591358915750e-04
2.95683333333333e+00 5.42871767889972e-03 1.22172990497946e-04
2.97427777777778e+00 5.22376322573761e-03 1.17906782565717e-04
2.99172222222222e+00 5.02654657215298e-03 1.13787590743291e-04
3.00916666666667e+00 4.83677558716453e-03 1.09810440238045e-04
3.02661111111111e+00 4.65416916827730e-03 1.05970519977616e-04
3.04405555555556e+00 4.47845682681178e-03 1.02263177744471e-04
3.06150000000000e+00 4.30937828495660e-03 9.86839150988449e-05
3.07894444444444e+00 4.14668309241125e-03 9.52283824423687e-05
3.09638888888889e+00 3.99013025331007e-03 9.18923743262673e-05
3.11383333333333e+00 3.83948787124574e-03 8.86718248054619e-05
3.13127777777778e+00 3.69453280384980e-03 8.55628030220778e-05
3.14872222222222e+00 3.55505033409620e-03 8.25615087815700e-05
3.16616666666667e+00 3.42083385088125e-03 7.96642686129088e-05
3.18361111111111e+00 3.29168454307281e-03 7.68675313412768e-05
3.20105555555556e+00 3.16741110617237e-03 7.41678643638117e-05
3.21850000000000e+00 3.04782945740810e-03 7.15619497943078e-05
3.23594444444444e+00 2.93276246452761e-03 6.90465807191489e-05
3.25338888888889e+00 2.82203968201040e-03 6.66186576354550e-05
3.27083333333333e+00 2.71549709994000e-03 6.42751849339760e-05
3.28827777777778e+00 2.61297689977004e-03 6.20132675526548e-05
3.30572222222222e+00 2.51432722178931e-03 5.98301076370880e-05
3.32316666666667e+00 2.41940193925695e-03 5.77230015464571e-05
3.34061111111111e+00 2.32806044201348e-03 5.56893365339794e-05
3.35805555555556e+00 2.24016742897770e-03 5.37265879231014e-05
3.37550000000000e+00 2.15559270669581e-03 5.18323162033210e-05
3.39294444444444e+00 2.07421099748009e-03 5.00041642124625e-05
3.41038888888889e+00 1.99590175289024e-03 4.82398544539769e-05
3.42783333333333e+00 1.92054897607764e-03 4.65371864540299e-05
3.44527777777778e+00 1.84804104909194e-03 4.48940342449152e-05
3.46272222222222e+00 1.77827056837926e-03 4.33083438613885e-05
3.48016666666667e+00 1.71113418506808e-03 4.17781310834577e-05
3.49761111111111e+00 1.64653245192471e-03 4.03014789617525e-05
3.51505555555556e+00 1.58436967657099e-03 3.88765356925972e-05
3.53250000000000e+00 1.52455377903992e-03 3.75015124444104e-05
3.54994444444444e+00 1.46699615604951e-03 3.61746812504455e-05
3.56738888888889e+00 1.41161154911638e-03 3.48943730011453e-05
3.58483333333333e+00 1.35831791887931e-03 3.36589754700704e-05
3.60227777777778e+00 1.30703632298821e-03 3.24669314329340e-05
3.61972222222222e+00 1.25769079973339e-03 3.13167368011383e-05
3.63716666666667e+00 1.21020825510628e-03 3.02069389310760e-05
3.65461111111111e+00 1.16451835455639e-03 2.91361347881496e-05
3.67205555555556e+00 1.12055341916283e-03 2.81029693575690e-05
3.68950000000000e+00 1.07824832491101e-03 2.71061340261761e-05
3.70694444444444e+00 1.03754040667944e-03 2.61443650146719e-05
3.72438888888889e+00 9.98369364981682e-04 2.52164418830661e-05
3.74183333333333e+00 9.60677177062641e-04 2.43211860635085e-05
3.75927777777778e+00 9.24408010552491e-04 2.34574594615098e-05
3.77672222222222e+00 8.89508141146129e-04 2.26241630710074e-05
3.79416666666667e+00 8.55925872738766e-04 2.18202357147495e-05
3.81161111111111e+00 8.23611460869533e-04 2.10446526875898e-05
3.82905555555556e+00 7.92517039277896e-04 2.02964245739921e-05
3.84650000000000e+00 7.62596548680403e-04 1.95745960486920e-05
3.86394444444444e+00 7.33805668851661e-04 1.88782447153504e-05
3.88138888888889e+00 7.06101752679701e-04 1.82064799988677e-05
3.89883333333333e+00 6.79443763276400e-04 1.75584420595075e-05
3.91627777777778e+00 6.53792212920213e-04 1.69333007571051e-05
3.93372222222222e+00 6.29109104823633e-04 1.63302546274837e-05
3.95116666666667e+00 6.05357876656806e-04 1.57485299481992e-05
3.96861111111111e+00 5.82503346402021e-04 1.51873797394080e-05
3.98605555555556e+00 5.60511660403607e-04 1.46460828877573e-05
4.00350000000000e+00 5.39350243003905e-04 1.41239432608145e-05
4.02094444444444e+00 5.18987748498625e-04 1.36202888499491e-05
4.03838888888889e+00 4.99394014505359e-04 1.31344709524379e-05
4.05583333333333e+00 4.80540017476789e-04 1.26658633706440e-05
4.07327777777778e+00 4.62397829525098e-04 1.22138616477835e-05
4.09072222222222e+00 4.44940577229582e-04 1.17778823139550e-05
4.10816666666667e+00 4.28142401698740e-04 1.13573621958316e-05
4.12561111111111e+00 4.11978420275186e-04 1.09517576830137e-05
4.14305555555555e+00 3.96424689789274e-04 1.05605440812827e-05
4.16050000000000e+00 3.81458170944736e-04 1.01832149608162e-05
4.17794444444444e+00 3.67056694333278e-04 9.81928152559864e-06
4.19538888888889e+00 3.53198927459567e-04 9.46827201143815e-06
4.21283333333333e+00 3.39864343272619e-04 9.12973109717434e-06
4.23027777777778e+00 3.27033189634527e-04 8.80321934255673e-06
4.24772222222222e+00 3.14686460182271e-04 8.48831263448284e-06
4.26516666666667e+00 3.02805866084898e-04 8.18460167860035e-06
4.28261111111111e+00 2.91373808958871e-04 7.89169146197018e-06
4.30005555555555e+00 2.80373354876117e-04 7.60920077713355e-06
4.31750000000000e+00 2.69788209179430e-04 7.33676174373089e-06
4.33494444444444e+00 2.59602692442455e-04 7.07401934584145e-06
4.35238888888889e+00 2.49801717151448e-04 6.82063099014436e-06
4.36983333333333e+00 2.40370765445598e-04 6.57626607416636e-06
4.38727777777778e+00 2.31295867526825e-04 6.34060557393392e-06
4.40472222222222e+00 2.22563581048593e-04 6.11334163828526e-06
4.42216666666667e+00 2.14160971143309e-04 5.89417721550267e-06
4.43961111111111e+00 2.06075591266394e-04 5.68282566063300e-06
4.45705555555555e+00 1.98295464811447e-04 5.47901038620788e-06
4.47450000000000e+00 1.90809067300837e-04 5.28246451198842e-06
4.49194444444444e+00 1.83605309380864e-04 5.09293052632542e-06
4.50938888888889e+00 1.76673520332130e-04 4.91015996264850e-06
4.52683333333333e+00 1.70003432324055e-04 4.73391308360508e-06
4.54427777777778e+00 1.63585165147215e-04 4.56395857929325e-06
4.56172222222222e+00 1.57409211633957e-04 4.40007327071291e-06
4.57916666666667e+00 1.51466423534175e-04 4.24204183624179e-06
4.59661111111111e+00 1.45747997967071e-04 4.08965652523378e-06
4.61405555555555e+00 1.40245464417137e-04 3.94271690229942e-06
4.63150000000000e+00 1.34950672140023e-04 3.80102959141012e-06
4.64894444444444e+00 1.29855778134192e-04 3.66440802855636e-06
4.66638888888889e+00 1.24953235480061e-04 3.53267222538257e-06
4.68383333333333e+00 1.20235782202483e-04 3.40564853858345e-06
4.70127777777778e+00 1.15696430474000e-04 3.28316944952266e-06
4.71872222222222e+00 1.11328456302171e-04 3.16507334788804e-06
4.73616666666667e+00 1.07125389541136e-04 3.05120433174738e-06
4.75361111111111e+00 1.03081004309480e-04 2.94141199902618e-06
4.77105555555555e+00 9.91893097922463e-05 2.83555126068133e-06
4.78850000000000e+00 9.54445413347763e-05 2.73348215409905e-06
4.80594444444444e+00 9.18411519345491e-05 2.63506966277530e-06
4.82338888888889e+00 8.83738039949867e-05 2.54018354394914e-06
4.84083333333333e+00 8.50373614474253e-05 2.44869816055071e-06
4.85827777777778e+00 8.18268821159816e-05 2.36049232055371e-06
4.87572222222222e+00 7.87376104229869e-05 2.27544911941893e-06
4.89316666666667e+00 7.57649703252647e-05 2.19345579421882e-06
4.91061111111111e+00 7.29045585370716e-05 2.11440357205438e-06
4.92805555555555e+00 7.01521380242284e-05 2.03818753381745e-06
4.94550000000000e+00 6.75036317059182e-05 1.96470647834934e-06
4.96294444444444e+00 6.49551164365531e-05 1.89386279120179e-06
4.98038888888889e+00 6.25028171742764e-05 1.82556231915357e-06
4.99783333333333e+00 6.01431014085510e-05 1.75971424794257e-06
5.01527777777778e+00 5.78724737607813e-05 1.69623098535496e-06
5.03272222222222e+00 5.56875708246123e-05 1.63502804666206e-06
5.05016666666667e+00 5.35851561705097e-05 1.57602394837596e-06
5.06761111111111e+00 5.15621155526191e-05 1.51914009821283e-06
5.08505555555555e+00 4.96154523070939e-05 1.46430069591171e-06
5.10250000000000e+00 4.77422828981434e-05 1.41143263449616e-06
5.11994444444444e+00 4.59398326612158e-05 1.36046540490021e-06
5.13738888888889e+00 4.42054316790837e-05 1.31133100475484e-06
5.15483333333333e+00 4.25365108403058e-05 1.26396384956130e-06
5.17227777777778e+00 4.09305980208931e-05 1.21830068773596e-06
5.18972222222222e+00 3.93853144346987e-05 1.17428051742625e-06
5.20716666666667e+00 3.78983711006688e-05 1.13184450925037e-06
5.22461111111111e+00 3.64675654528490e-05 1.09093592652126e-06
5.24205555555556e+00 3.50907780855873e-05 1.05150005315146e-06
5.25950000000000e+00 3.37659696037749e-05 1.01348412198217e-06
5.27694444444444e+00 3.24911776118840e-05 9.76837245566898e-07
5.29438888888889e+00 3.12645137976023e-05 9.41510349959667e-07
5.31183333333333e+00 3.00841611438791e-05 9.07456110268643e-07
5.32927777777778e+00 2.89483712286584e-05 8.74628889004988e-07
5.34672222222222e+00 2.78554616434168e-05 8.42984675760245e-07
5.36416666666667e+00 2.68038134947995e-05 8.12481031101636e-07
5.38161111111111e+00 2.57918690070172e-05 7.83077028801694e-07
5.39905555555556e+00 2.48181292197136e-05 7.54733203503391e-07
5.41650000000000e+00 2.38811517604956e-05 7.27411498761335e-07
5.43394444444444e+00 2.29795487152109e-05 7.01075216870664e-07
5.45138888888889e+00 2.21119845655297e-05 6.75688970863880e-07
5.46883333333333e+00 2.12771742169627e-05 6.51218637809328e-07
5.48627777777778e+00 2.04738810892632e-05 6.27631314126076e-07
5.50372222222222e+00 1.97009152905034e-05 6.04895271890569e-07
