Energy (eV)          EEDF (eV^-(3/2))     First Anisotropy
1.07375000000000e-02 2.86248411233972e-01 1.68959583681498e-04
3.22125000000000e-02 2.83788454466559e-01 2.78738526354064e-04
5.36875000000000e-02 2.81349638034161e-01 3.67273622190218e-04
7.51625000000000e-02 2.78931780261287e-01 4.34114246536719e-04
9.66375000000000e-02 2.76534701033757e-01 4.89513505181656e-04
1.18112500000000e-01 2.74158221785255e-01 5.37357820780198e-04
1.39587500000000e-01 2.71802165484028e-01 5.79663275952216e-04
1.61062500000000e-01 2.69466356619696e-01 6.17650189135514e-04
1.82537500000000e-01 2.67150621190177e-01 6.52129775789648e-04
2.04012500000000e-01 2.64854786688726e-01 6.83676705145255e-04
2.25487500000000e-01 2.62578682091081e-01 7.12717348277038e-04
2.46962500000000e-01 2.60322137842730e-01 7.39579408002207e-04
2.68437500000000e-01 2.58084985846271e-01 7.64521868420241e-04
2.89912500000000e-01 2.55867059448898e-01 7.87754082010091e-04
3.11387500000000e-01 2.53668193429982e-01 8.09448476514136e-04
3.32862500000000e-01 2.51488223988764e-01 8.29749322207133e-04
3.54337500000000e-01 2.49326988732152e-01 8.48778964392014e-04
3.75812500000000e-01 2.47184326662628e-01 8.66642367758881e-04
3.97287500000000e-01 2.45060078166250e-01 8.83430502936265e-04
4.18762500000000e-01 2.42954085000764e-01 8.99222918576348e-04
4.40237500000000e-01 2.40866190283814e-01 9.14089727694619e-04
4.61712500000000e-01 2.38796238481259e-01 9.28093164477564e-04
4.83187500000000e-01 2.36744075395584e-01 9.41288820625042e-04
5.04662500000000e-01 2.34709548154413e-01 9.53726638881547e-04
5.26137500000000e-01 2.32692505199125e-01 9.65451720021854e-04
5.47612500000000e-01 2.30692796273558e-01 9.76504984707999e-04
5.69087500000000e-01 2.28710272412820e-01 9.86923721143131e-04
5.90562500000000e-01 2.26744785932190e-01 9.96742041916856e-04
6.12037500000000e-01 2.24796190416118e-01 1.00599126795061e-03
6.33512500000000e-01 2.22864340707320e-01 1.01470025340300e-03
6.54987500000000e-01 2.20949092895957e-01 1.02289566237006e-03
6.76462500000000e-01 2.19050304308926e-01 1.03060220593001e-03
6.97937500000000e-01 2.17167833499220e-01 1.03784284633650e-03
7.19412500000000e-01 2.15301540235400e-01 1.04463897381929e-03
7.40887500000000e-01 2.13451285491147e-01 1.05101056040484e-03
7.62362500000000e-01 2.11616931434899e-01 1.05697629434817e-03
7.83837500000000e-01 2.09798341419594e-01 1.06255369811905e-03
8.05312500000000e-01 2.07995379972483e-01 1.06775923236779e-03
8.26787500000000e-01 2.06207912785039e-01 1.07260838788220e-03
8.48262500000000e-01 2.04435806702955e-01 1.07711576721233e-03
8.69737500000000e-01 2.02678929716223e-01 1.08129515736808e-03
8.91212500000000e-01 2.00937150949301e-01 1.08515959477276e-03
9.12687500000000e-01 1.99210340651361e-01 1.08872142347339e-03
9.34162500000000e-01 1.97498370186628e-01 1.09199234745810e-03
9.55637500000000e-01 1.95801112024792e-01 1.09498347780597e-03
9.77112500000000e-01 1.94118439731515e-01 1.09770537529073e-03
9.98587500000000e-01 1.92450227959004e-01 1.10016808897260e-03
1.02006250000000e+00 1.90796352436681e-01 1.10238119123903e-03
1.04153750000000e+00 1.89156689961919e-01 1.10435380969375e-03
1.06301250000000e+00 1.87531118390871e-01 1.10609465624055e-03
1.08448750000000e+00 1.85919516629367e-01 1.10761205366388e-03
1.10596250000000e+00 1.84321764623892e-01 1.10891395996994e-03
1.12743750000000e+00 1.82737743352648e-01 1.11000799072043e-03
1.14891250000000e+00 1.81167334816681e-01 1.11090143956160e-03
1.17038750000000e+00 1.79610422031097e-01 1.11160129712785e-03
1.19186250000000e+00 1.78066889016344e-01 1.11211426847854e-03
1.21333750000000e+00 1.76536620789573e-01 1.11244678920798e-03
1.23481250000000e+00 1.75019503356073e-01 1.11260504035288e-03
1.25628750000000e+00 1.73515423700779e-01 1.11259496220835e-03
1.27776250000000e+00 1.72024269779852e-01 1.11242226715078e-03
1.29923750000000e+00 1.70545930512335e-01 1.11209245155612e-03
1.32071250000000e+00 1.69080295771874e-01 1.11161080689226e-03
1.34218750000000e+00 1.67627256378520e-01 1.11098243005659e-03
1.36366250000000e+00 1.66186704090592e-01 1.11021223302231e-03
1.38513750000000e+00 1.64758531596613e-01 1.10930495185087e-03
1.40661250000000e+00 1.63342632507319e-01 1.10826515512205e-03
1.42808750000000e+00 1.61938901347731e-01 1.10709725182855e-03
1.44956250000000e+00 1.60547233549302e-01 1.10580549877759e-03
1.47103750000000e+00 1.59167525442120e-01 1.10439400753769e-03
1.49251250000000e+00 1.57799674247194e-01 1.10286675096506e-03
1.51398750000000e+00 1.56443578068790e-01 1.10122756934185e-03
1.53546250000000e+00 1.55099135886847e-01 1.09948017615498e-03
1.55693750000000e+00 1.53766247549445e-01 1.09762816354136e-03
1.57841250000000e+00 1.52444813765351e-01 1.09567500742396e-03
1.59988750000000e+00 1.51134736096618e-01 1.09362407236080e-03
1.62136250000000e+00 1.49835916951253e-01 1.09147861612641e-03
1.64283750000000e+00 1.48548259575948e-01 1.08924179404457e-03
1.66431250000000e+00 1.47271668048871e-01 1.08691666308926e-03
1.68578750000000e+00 1.46006047272523e-01 1.08450618576929e-03
1.70726250000000e+00 1.44751302966651e-01 1.08201323381077e-03
1.72873750000000e+00 1.43507341661227e-01 1.07944059165081e-03
1.75021250000000e+00 1.42274070689484e-01 1.07679095975468e-03
1.77168750000000e+00 1.41051398181012e-01 1.07406695776723e-03
1.79316250000000e+00 1.39839233054916e-01 1.07127112750937e-03
1.81463750000000e+00 1.38637485013031e-01 1.06840593582889e-03
1.83611250000000e+00 1.37446064533194e-01 1.06547377731480e-03
1.85758750000000e+00 1.36264882862578e-01 1.06247697688332e-03
1.87906250000000e+00 1.35093852011075e-01 1.05941779224295e-03
1.90053750000000e+00 1.33932884744748e-01 1.05629841624591e-03
1.92201250000000e+00 1.32781894579329e-01 1.05312097913267e-03
1.94348750000000e+00 1.31640795773776e-01 1.04988755067549e-03
1.96496250000000e+00 1.30509503323887e-01 1.04660014222652e-03
1.98643750000000e+00 1.29387932955968e-01 1.04326070867640e-03
2.00791250000000e+00 1.28276001120556e-01 1.03987115032768e-03
2.02938750000000e+00 1.27173624986193e-01 1.03643331468816e-03
2.05086250000000e+00 1.26080722433255e-01 1.03294899818815e-03
2.07233750000000e+00 1.24997212047840e-01 1.02941994782593e-03
2.09381250000000e+00 1.23923013115695e-01 1.02584786274521e-03
2.11528750000000e+00 1.22858045616211e-01 1.02223439574772e-03
2.13676250000000e+00 1.21802230216458e-01 1.01858115474500e-03
2.15823750000000e+00 1.20755488265275e-01 1.01488970415193e-03
2.17971250000000e+00 1.19717741787413e-01 1.01116156622506e-03
2.20118750000000e+00 1.18688913477726e-01 1.00739822234865e-03
2.22266250000000e+00 1.17668926695409e-01 1.00360111427089e-03
2.24413750000000e+00 1.16657705458295e-01 9.99771645292681e-04
2.26561250000000e+00 1.15655174437189e-01 9.95911181411281e-04
2.28708750000000e+00 1.14661258950258e-01 9.92021052421106e-04
2.30856250000000e+00 1.13675884957472e-01 9.88102552973735e-04
2.33003750000000e+00 1.12698979055081e-01 9.84156943598692e-04
2.35151250000000e+00 1.11730468470154e-01 9.80185451687109e-04
2.37298750000000e+00 1.10770281055152e-01 9.76189272440064e-04
2.39446250000000e+00 1.09818345282558e-01 9.72169569782915e-04
2.41593750000000e+00 1.08874590239547e-01 9.68127477247350e-04
2.43741250000000e+00 1.07938945622704e-01 9.64064098822485e-04
2.45888750000000e+00 1.07011341732784e-01 9.59980509776360e-04
2.48036250000000e+00 1.06091709469524e-01 9.55877757449334e-04
2.50183750000000e+00 1.05179980326493e-01 9.51756862020501e-04
2.52331250000000e+00 1.04276086385991e-01 9.47618817247944e-04
2.54478750000000e+00 1.03379960313986e-01 9.43464591184324e-04
2.56626250000000e+00 1.02491535355100e-01 9.39295126868947e-04
2.58773750000000e+00 1.01610745327638e-01 9.35111342996826e-04
2.60921250000000e+00 1.00737524618654e-01 9.30914134565964e-04
2.63068750000000e+00 9.98718081790681e-02 9.26704373503782e-04
2.65216250000000e+00 9.90135315188155e-02 9.22482909273530e-04
2.67363750000000e+00 9.81626307020463e-02 9.18250569461291e-04
2.69511250000000e+00 9.73190423423612e-02 9.14008160344449e-04
2.71658750000000e+00 9.64827035980900e-02 9.09756467442596e-04
2.73806250000000e+00 9.56535521676099e-02 9.05496256051131e-04
2.75953750000000e+00 9.48315262847049e-02 9.01228271758498e-04
2.78101250000000e+00 9.40165647139646e-02 8.96953240947734e-04
2.80248750000000e+00 9.32086067462222e-02 8.92671871282662e-04
2.82396250000000e+00 9.24075921940323e-02 8.88384852179565e-04
2.84543750000000e+00 9.16134613871877e-02 8.84092855264859e-04
2.86691250000000e+00 9.08261551682736e-02 8.79796534818936e-04
2.88838750000000e+00 9.00456148882614e-02 8.75496528207224e-04
2.90986250000000e+00 8.92717824021396e-02 8.71193456298629e-04
2.93133750000000e+00 8.85046000645821e-02 8.66887923871655e-04
2.95281250000000e+00 8.77440107256544e-02 8.62580520009080e-04
2.97428750000000e+00 8.69899577265562e-02 8.58271818481250e-04
2.99576250000000e+00 8.62423848954004e-02 8.53962378118431e-04
3.01723750000000e+00 8.55012365430292e-02 8.49652743172762e-04
3.03871250000000e+00 8.47664574588651e-02 8.45343443670095e-04
3.06018750000000e+00 8.40379929067985e-02 8.41034995751850e-04
3.08166250000000e+00 8.33157886211099e-02 8.36727902007700e-04
3.10313750000000e+00 8.25997908024279e-02 8.32422651798975e-04
3.12461250000000e+00 8.18899461137209e-02 8.28119721573232e-04
3.14608750000000e+00 8.11862016763244e-02 8.23819575170345e-04
3.16756250000000e+00 8.04885050660016e-02 8.19522664120326e-04
3.18903750000000e+00 7.97968043090381e-02 8.15229427933222e-04
3.21051250000000e+00 7.91110478783706e-02 8.10940294381169e-04
3.23198750000000e+00 7.84311846897480e-02 8.06655679773139e-04
3.25346250000000e+00 7.77571640979261e-02 8.02375989222382e-04
3.27493750000000e+00 7.70889358928953e-02 7.98101616906883e-04
3.29641250000000e+00 7.64264502961395e-02 7.93832946323093e-04
3.31788750000000e+00 7.57696579569288e-02 7.89570350533079e-04
3.33936250000000e+00 7.51185099486425e-02 7.85314192405235e-04
3.36083750000000e+00 7.44729577651246e-02 7.81064824848934e-04
3.38231250000000e+00 7.38329533170707e-02 7.76822591043223e-04
3.40378750000000e+00 7.31984489284454e-02 7.72587824659732e-04
3.42526250000000e+00 7.25693973329308e-02 7.68360850079937e-04
3.44673750000000e+00 7.19457516704053e-02 7.64141982606907e-04
3.46821250000000e+00 7.13274654834532e-02 7.59931528671962e-04
3.48968750000000e+00 7.07144927139039e-02 7.55729786036137e-04
3.51116250000000e+00 7.01067876994004e-02 7.51537043986640e-04
3.53263750000000e+00 6.95043051699984e-02 7.47353583528576e-04
3.55411250000000e+00 6.89070002447933e-02 7.43179677571784e-04
3.57558750000000e+00 6.83148284285778e-02 7.39015591113422e-04
3.59706250000000e+00 6.77277456085263e-02 7.34861581415979e-04
3.61853750000000e+00 6.71457080509094e-02 7.30717898180999e-04
3.64001250000000e+00 6.65686723978360e-02 7.26584783718750e-04
3.66148750000000e+00 6.59965956640231e-02 7.22462473113662e-04
3.68296250000000e+00 6.54294352335941e-02 7.18351194386009e-04
3.70443750000000e+00 6.48671488569039e-02 7.14251168649679e-04
3.72591250000000e+00 6.43096946473917e-02 7.10162610266286e-04
3.74738750000000e+00 6.37570310784608e-02 7.06085726995663e-04
3.76886250000000e+00 6.32091169803849e-02 7.02020720142757e-04
3.79033750000000e+00 6.26659115372414e-02 6.97967784701212e-04
3.81181250000000e+00 6.21273742838712e-02 6.93927109493615e-04
3.83328750000000e+00 6.15934651028637e-02 6.89898877308489e-04
3.85476250000000e+00 6.10641442215686e-02 6.85883265034030e-04
3.87623750000000e+00 6.05393722091334e-02 6.81880443789002e-04
3.89771250000000e+00 6.00191099735655e-02 6.77890579050578e-04
3.91918750000000e+00 5.95033187588207e-02 6.73913830779120e-04
3.94066250000000e+00 5.89919601419154e-02 6.69950353540276e-04
3.96213750000000e+00 5.84849960300654e-02 6.66000296624369e-04
3.98361250000000e+00 5.79823886578470e-02 6.62063804163004e-04
4.00508750000000e+00 5.74841005843849e-02 6.58141015243075e-04
4.02656250000000e+00 5.69900946905621e-02 6.54232064018334e-04
4.04803750000000e+00 5.65003341762556e-02 6.50337079818306e-04
4.06951250000000e+00 5.60147825575944e-02 6.46456187254861e-04
4.09098750000000e+00 5.55334036642423e-02 6.42589506326595e-04
4.11246250000000e+00 5.50561616367028e-02 6.38737152520731e-04
4.13393750000000e+00 5.45830209236483e-02 6.34899236912731e-04
4.15541250000000e+00 5.41139462792716e-02 6.31075866263913e-04
4.17688750000000e+00 5.36489027606602e-02 6.27267143116812e-04
4.19836250000000e+00 5.31878557251937e-02 6.23473165888526e-04
4.21983750000000e+00 5.27307708279625e-02 6.19694028962038e-04
4.24131250000000e+00 5.22776140192100e-02 6.15929822775509e-04
4.26278750000000e+00 5.18283515417955e-02 6.12180633909700e-04
4.28426250000000e+00 5.13829499286803e-02 6.08446545173442e-04
4.30573750000000e+00 5.09413760004337e-02 6.04727635687394e-04
4.32721250000000e+00 5.05035968627622e-02 6.01023980965956e-04
4.34868750000000e+00 5.00695799040585e-02 5.97335652997346e-04
4.37016250000000e+00 4.96392927929724e-02 5.93662720322076e-04
4.39163750000000e+00 4.92127034760025e-02 5.90005248109764e-04
4.41311250000000e+00 4.87897801751081e-02 5.86363298234300e-04
4.43458750000000e+00 4.83704913853420e-02 5.82736929347374e-04
4.45606250000000e+00 4.79548058725038e-02 5.79126196950471e-04
4.47753750000000e+00 4.75426926708130e-02 5.75531153465453e-04
4.49901250000000e+00 4.71341210806025e-02 5.71951848303549e-04
4.52048750000000e+00 4.67290606660311e-02 5.68388327932928e-04
4.54196250000000e+00 4.63274812528169e-02 5.64840635944880e-04
4.56343750000000e+00 4.59293529259892e-02 5.61308813118603e-04
4.58491250000000e+00 4.55346460276600e-02 5.57792897484692e-04
4.60638750000000e+00 4.51433311548148e-02 5.54292924387169e-04
4.62786250000000e+00 4.47553791571223e-02 5.50808926544376e-04
4.64933750000000e+00 4.43707611347625e-02 5.47340934108639e-04
4.67081250000000e+00 4.39894484362747e-02 5.43888974724461e-04
4.69228750000000e+00 4.36114126564223e-02 5.40453073585783e-04
4.71376250000000e+00 4.32366256340771e-02 5.37033253491940e-04
4.73523750000000e+00 4.28650594501218e-02 5.33629534902455e-04
4.75671250000000e+00 4.24966864253697e-02 5.30241935990764e-04
4.77818750000000e+00 4.21314791185031e-02 5.26870472696832e-04
4.79966250000000e+00 4.17694103240290e-02 5.23515158778656e-04
4.82113750000000e+00 4.14104530702527e-02 5.20176005862763e-04
4.84261250000000e+00 4.10545806172682e-02 5.16853023493648e-04
4.86408750000000e+00 4.07017664549663e-02 5.13546219182170e-04
4.88556250000000e+00 4.03519843010604e-02 5.10255598453098e-04
4.90703750000000e+00 4.00052080991277e-02 5.06981164891554e-04
4.92851250000000e+00 3.96614120166689e-02 5.03722920188557e-04
4.94998750000000e+00 3.93205704431836e-02 5.00480864185718e-04
4.97146250000000e+00 3.89826579882624e-02 4.97254994918906e-04
4.99293750000000e+00 3.86476494796956e-02 4.94045308661100e-04
5.01441250000000e+00 3.83155199615980e-02 4.90851799964402e-04
5.03588750000000e+00 3.79862446925498e-02 4.87674461701146e-04
5.05736250000000e+00 3.76597991437538e-02 4.84513285104249e-04
5.07883750000000e+00 3.73361589972078e-02 4.81368259806657e-04
5.10031250000000e+00 3.70153001438933e-02 4.78239373880078e-04
5.12178750000000e+00 3.66971986819793e-02 4.75126613872926e-04
5.14326250000000e+00 3.63818309150423e-02 4.72029964847424e-04
5.16473750000000e+00 3.60691733503004e-02 4.68949410416114e-04
5.18621250000000e+00 3.57592026968637e-02 4.65884932777502e-04
5.20768750000000e+00 3.54518958639991e-02 4.62836512751031e-04
5.22916250000000e+00 3.51472299594105e-02 4.59804129811404e-04
5.25063750000000e+00 3.48451822875329e-02 4.56787762122104e-04
5.27211250000000e+00 3.45457303478421e-02 4.53787386568403e-04
5.29358750000000e+00 3.42488518331789e-02 4.50802978789589e-04
5.31506250000000e+00 3.39545246280865e-02 4.47834513210590e-04
5.33653750000000e+00 3.36627268071637e-02 4.44881963072981e-04
5.35801250000000e+00 3.33734366334317e-02 4.41945300465329e-04
5.37948750000000e+00 3.30866325567143e-02 4.39024496352992e-04
5.40096250000000e+00 3.28022932120329e-02 4.36119520607278e-04
5.42243750000000e+00 3.25203974180149e-02 4.33230342034086e-04
5.44391250000000e+00 3.22409241753158e-02 4.30356928401864e-04
5.46538750000000e+00 3.19638526650550e-02 4.27499246469099e-04
5.48686250000000e+00 3.16891622472648e-02 4.24657262011255e-04
5.50833750000000e+00 3.14168324593528e-02 4.21830939847159e-04
5.52981250000000e+00 3.11468430145779e-02 4.19020243864875e-04
5.55128750000000e+00 3.08791738005387e-02 4.16225137047004e-04
5.57276250000000e+00 3.06138048776754e-02 4.13445581495565e-04
5.59423750000000e+00 3.03507164777845e-02 4.10681538456338e-04
5.61571250000000e+00 3.00898890025462e-02 4.07932968342692e-04
5.63718750000000e+00 2.98313030220644e-02 4.05199830759021e-04
5.65866250000000e+00 2.95749392734192e-02 4.02482084523644e-04
5.68013750000000e+00 2.93207786592321e-02 3.99779687691234e-04
5.70161250000000e+00 2.90688022462435e-02 3.97092597574891e-04
5.72308750000000e+00 2.88189912639018e-02 3.94420770767724e-04
5.74456250000000e+00 2.85713271029658e-02 3.91764163163943e-04
5.76603750000000e+00 2.83257913141178e-02 3.89122729979612e-04
5.78751250000000e+00 2.80823656065898e-02 3.86496425772979e-04
5.80898750000000e+00 2.78410318468004e-02 3.83885204464365e-04
5.83046250000000e+00 2.76017720570045e-02 3.81289019355665e-04
5.85193750000000e+00 2.73645684139537e-02 3.78707823149481e-04
5.87341250000000e+00 2.71294032475689e-02 3.76141567967865e-04
5.89488750000000e+00 2.68962590396236e-02 3.73590205370664e-04
5.91636250000000e+00 2.66651184224393e-02 3.71053686373510e-04
5.93783750000000e+00 2.64359641775916e-02 3.68531961465464e-04
5.95931250000000e+00 2.62087792346273e-02 3.66024980626272e-04
5.98078750000000e+00 2.59835466697931e-02 3.63532693343323e-04
6.00226250000000e+00 2.57602497047749e-02 3.61055048628230e-04
6.02373750000000e+00 2.55388717054475e-02 3.58591995033066e-04
6.04521250000000e+00 2.53193961806360e-02 3.56143480666335e-04
6.06668750000000e+00 2.51018067808870e-02 3.53709453208541e-04
6.08816250000000e+00 2.48860872972507e-02 3.51289859927497e-04
6.10963750000000e+00 2.46722216600737e-02 3.48884647693273e-04
6.13111250000000e+00 2.44601939378014e-02 3.46493762992926e-04
6.15258750000000e+00 2.42499883357918e-02 3.44117151944863e-04
6.17406250000000e+00 2.40415891951385e-02 3.41754760312900e-04
6.19553750000000e+00 2.38349809915043e-02 3.39406533520103e-04
6.21701250000000e+00 2.36301483339650e-02 3.37072416662276e-04
6.23848750000000e+00 2.34270759638624e-02 3.34752354521247e-04
6.25996250000000e+00 2.32257487536681e-02 3.32446291577803e-04
6.28143750000000e+00 2.30261517058563e-02 3.30154172024435e-04
6.30291250000000e+00 2.28282699517867e-02 3.27875939777749e-04
6.32438750000000e+00 2.26320887505969e-02 3.25611538490667e-04
6.34586250000000e+00 2.24375934881043e-02 3.23360911564416e-04
6.36733750000000e+00 2.22447696757172e-02 3.21124002160151e-04
6.38881250000000e+00 2.20536029493560e-02 3.18900753210428e-04
6.41028750000000e+00 2.18640790683827e-02 3.16691107430469e-04
6.43176250000000e+00 2.16761839145404e-02 3.14495007329105e-04
6.45323750000000e+00 2.14899034909014e-02 3.12312395219541e-04
6.47471250000000e+00 2.13052239208244e-02 3.10143213229886e-04
6.49618750000000e+00 2.11221314469211e-02 3.07987403313439e-04
6.51766250000000e+00 2.09406124300312e-02 3.05844907258858e-04
6.53913750000000e+00 2.07606533482063e-02 3.03715666699989e-04
6.56061250000000e+00 2.05822407957029e-02 3.01599623125521e-04
6.58208750000000e+00 2.04053614819833e-02 2.99496717888502e-04
6.60356250000000e+00 2.02300022307259e-02 2.97406892215614e-04
6.62503750000000e+00 2.00561499788435e-02 2.95330087216228e-04
6.64651250000000e+00 1.98837917755105e-02 2.93266243891303e-04
6.66798750000000e+00 1.97129147811974e-02 2.91215303142050e-04
6.68946250000000e+00 1.95435062667154e-02 2.89177205778449e-04
6.71093750000000e+00 1.93755536122671e-02 2.87151892527625e-04
6.73241250000000e+00 1.92090443065072e-02 2.85139304041940e-04
6.75388750000000e+00 1.90439659456100e-02 2.83139380906978e-04
6.77536250000000e+00 1.88803062323458e-02 2.81152063649357e-04
