Energy (eV)          EEDF (eV^-(3/2))     First Anisotropy
3.57500000000000e-01 1.22980495382712e-01 3.01004157943490e-04
1.07250000000000e+00 1.03403180719879e-01 4.59024297777957e-04
1.78750000000000e+00 8.69423866745225e-02 5.12949292783790e-04
2.50250000000000e+00 7.31019930725301e-02 5.14203179490792e-04
3.21750000000000e+00 6.14648573104126e-02 4.91746660432682e-04
3.93250000000000e+00 5.16802418839800e-02 4.57811119909526e-04
4.64750000000000e+00 4.34532433338003e-02 4.18836548464306e-04
5.36250000000000e+00 3.65359040010951e-02 3.78492593817728e-04
6.07750000000000e+00 3.07197387067975e-02 3.38918175111519e-04
6.79250000000000e+00 2.58294511115867e-02 3.01340589489611e-04
7.50750000000000e+00 2.17176503711024e-02 2.66422072963620e-04
8.22250000000000e+00 1.82604088489463e-02 2.34468068407174e-04
8.93750000000000e+00 1.53535269991433e-02 2.05558211077359e-04
9.65250000000000e+00 1.29093928434700e-02 1.79631129722094e-04
1.03675000000000e+01 1.08543413898535e-02 1.56540303293509e-04
1.10825000000000e+01 9.12643440602105e-03 1.36091151641647e-04
1.17975000000000e+01 7.67359363187756e-03 1.18065663642865e-04
1.25125000000000e+01 6.45203116655765e-03 1.02238611691114e-04
1.32275000000000e+01 5.42492972279608e-03 8.83880269132540e-05
1.39425000000000e+01 4.56133297213722e-03 7.63017393430850e-05
1.46575000000000e+01 3.83521253653818e-03 6.57812196159571e-05
1.53725000000000e+01 3.22468350595501e-03 5.66435793315741e-05
1.60875000000000e+01 2.71134483800068e-03 4.87223287113829e-05
1.68025000000000e+01 2.27972475964763e-03 4.18673113338273e-05
1.75175000000000e+01 1.91681445565690e-03 3.59441105483116e-05
1.82325000000000e+01 1.61167598933442e-03 3.08331337760245e-05
1.89475000000000e+01 1.35511263854013e-03 2.64285181081223e-05
1.96625000000000e+01 1.13939171104084e-03 2.26369558334743e-05
2.03775000000000e+01 9.58011484998876e-04 1.93765065561637e-05
2.10925000000000e+01 8.05505250298293e-04 1.65754397588829e-05
2.18075000000000e+01 6.77276544611443e-04 1.41711354627355e-05
2.25225000000000e+01 5.69460618302550e-04 1.21090591941000e-05
2.32375000000000e+01 4.78807952789162e-04 1.03418194775659e-05
2.39525000000000e+01 4.02586321662626e-04 8.82831057717648e-06
2.46675000000000e+01 3.38498442738297e-04 7.53293951317790e-06
2.53825000000000e+01 2.84612739109088e-04 6.42493398247102e-06
2.60975000000000e+01 2.39305122374830e-04 5.47772633827147e-06
2.68125000000000e+01 2.01210043422838e-04 4.66840796761276e-06
2.75275000000000e+01 1.69179335454453e-04 3.97724804650064e-06
2.82425000000000e+01 1.42247608806796e-04 3.38727060747209e-06
2.89575000000000e+01 1.19603154586802e-04 2.88388401818420e-06
2.96725000000000e+01 1.00563480167485e-04 2.45455726672269e-06
3.03875000000000e+01 8.45547391984267e-05 2.08853782532613e-06
3.11025000000000e+01 7.10944361611860e-05 1.77660628076878e-06
3.18175000000000e+01 5.97768841935119e-05 1.51086334998816e-06
3.25325000000000e+01 5.02609778883846e-05 1.28454532548552e-06
3.32475000000000e+01 4.22599125461087e-05 1.09186440460481e-06
3.39625000000000e+01 3.55325400228132e-05 9.27870742551435e-07
3.46775000000000e+01 2.98761006449143e-05 7.88333426722946e-07
3.53925000000000e+01 2.51201121330471e-05 6.69637897646758e-07
3.61075000000000e+01 2.11212313506607e-05 5.68697639194555e-07
3.68225000000000e+01 1.77589340129279e-05 4.82878228476421e-07
3.75375000000000e+01 1.49318821445352e-05 4.09932075307044e-07
3.82525000000000e+01 1.25548698033328e-05 3.47942394198190e-07
3.89675000000000e+01 1.05562550154688e-05 2.95275140506438e-07
3.96825000000000e+01 8.87580052180459e-06 2.50537808780136e-07
4.03975000000000e+01 7.46285825678000e-06 2.12544137624342e-07
4.11125000000000e+01 6.27484284081971e-06 1.80283893586329e-07
4.18275000000000e+01 5.27594807809936e-06 1.52897018595085e-07
4.25425000000000e+01 4.43606777554991e-06 1.29651523170330e-07
4.32575000000000e+01 3.72988835711997e-06 1.09924592607627e-07
4.39725000000000e+01 3.13612592513976e-06 9.31864471551102e-08
4.46875000000000e+01 2.63688477419415e-06 7.89865611856120e-08
4.54025000000000e+01 2.21711802343112e-06 6.69419017564629e-08
4.61175000000000e+01 1.86417411103045e-06 5.67268948260978e-08
4.68325000000000e+01 1.56741548240097e-06 4.80648687272912e-08
4.75475000000000e+01 1.31789797955741e-06 4.07207601343485e-08
4.82625000000000e+01 1.10810126863172e-06 3.44948984567939e-08
4.89775000000000e+01 9.31702180737524e-07 2.92177110039851e-08
4.96925000000000e+01 7.83384134793880e-07 2.47452139703637e-08
5.04075000000000e+01 6.58676898406491e-07 2.09551737931487e-08
5.11225000000000e+01 5.53821857278931e-07 1.77438401717567e-08
5.18375000000000e+01 4.65658732440618e-07 1.50231663923303e-08
5.25525000000000e+01 3.91530331004963e-07 1.27184449023345e-08
5.32675000000000e+01 3.29202459692742e-07 1.07662966158966e-08
5.39825000000000e+01 2.76796587353989e-07 9.11296144841706e-09
5.46975000000000e+01 2.32733226970186e-07 7.71284529324506e-09
5.54125000000000e+01 1.95684330698362e-07 6.52728524878005e-09
5.61275000000000e+01 1.64533263167323e-07 5.52350054061839e-09
5.68425000000000e+01 1.38341146640998e-07 4.67370139753324e-09
5.75575000000000e+01 1.16318563708806e-07 3.95433225021300e-09
5.82725000000000e+01 9.78017646361617e-08 3.34542912924791e-09
5.89875000000000e+01 8.22326622764430e-08 2.83007413097404e-09
5.97025000000000e+01 6.91420116009977e-08 2.39393237122677e-09
6.04175000000000e+01 5.81352668865493e-08 2.02485902192790e-09
6.11325000000000e+01 4.88806903026460e-08 1.71256587866917e-09
6.18475000000000e+01 4.10993534978679e-08 1.44833848610117e-09
6.25625000000000e+01 3.45567308375609e-08 1.22479619225451e-09
6.32775000000000e+01 2.90556309174445e-08 1.03568864734669e-09
6.39925000000000e+01 2.44302533124208e-08 8.75723236607399e-10
6.47075000000000e+01 2.05411914339371e-08 7.40418765343870e-10
6.54225000000000e+01 1.72712308845004e-08 6.25981419355410e-10
6.61375000000000e+01 1.45218166738319e-08 5.29199623235849e-10
6.68525000000000e+01 1.22100828203063e-08 4.47354928729178e-10
6.75675000000000e+01 1.02663548113363e-08 3.78146498480430e-10
6.82825000000000e+01 8.63204964809611e-09 3.19627118637286e-10
6.89975000000000e+01 7.25791018297146e-09 2.70148986513781e-10
6.97125000000000e+01 6.10252053354436e-09 2.28317785195832e-10
7.04275000000000e+01 5.13105782842352e-09 1.92953782593975e-10
7.11425000000000e+01 4.31424266315988e-09 1.63058884030514e-10
7.18575000000000e+01 3.62745663350816e-09 1.37788730093165e-10
7.25725000000000e+01 3.05000034892444e-09 1.16429069541546e-10
7.32875000000000e+01 2.56446956319438e-09 9.83757542143100e-11
7.40025000000000e+01 2.15623061907829e-09 8.31178022989372e-11
7.47175000000000e+01 1.81297939713483e-09 7.02230606680059e-11
7.54325000000000e+01 1.52437047565923e-09 5.93260685292795e-11
7.61475000000000e+01 1.28170532480062e-09 5.01177853152680e-11
7.68625000000000e+01 1.07767013718358e-09 4.23368971936551e-11
7.75775000000000e+01 9.06115393378683e-10 3.57624602088379e-11
7.82925000000000e+01 7.61870518434848e-10 3.02076750523369e-11
7.90075000000000e+01 6.40588043312939e-10 2.55146198128749e-11
7.97225000000000e+01 5.38612574323666e-10 2.15497936304455e-11
8.04375000000000e+01 4.52870621373502e-10 1.82003466985288e-11
8.11525000000000e+01 3.80777964496568e-10 1.53708911408559e-11
8.18675000000000e+01 3.20161766745670e-10 1.29808034566514e-11
8.25825000000000e+01 2.69195085963627e-10 1.09619429247518e-11
8.32975000000000e+01 2.26341811652140e-10 9.25672195882540e-12
8.40125000000000e+01 1.90310367362704e-10 7.81647423240211e-12
8.47275000000000e+01 1.60014783222599e-10 6.60007471436491e-12
8.54425000000000e+01 1.34541965341155e-10 5.57277280261867e-12
8.61575000000000e+01 1.13124175612444e-10 4.70520571055103e-12
8.68725000000000e+01 9.51158924692814e-11 3.97256431272755e-12
8.75875000000000e+01 7.99743551831260e-11 3.35388793295187e-12
8.83025000000000e+01 6.72432053247296e-11 2.83146817798269e-12
8.90175000000000e+01 5.65387323472634e-11 2.39034498434852e-12
8.97325000000000e+01 4.75383087406140e-11 2.01788063901309e-12
9.04475000000000e+01 3.99706661981309e-11 1.70339972928453e-12
9.11625000000000e+01 3.36077197243129e-11 1.43788483446756e-12
9.18775000000000e+01 2.82576932660878e-11 1.21371934311672e-12
9.25925000000000e+01 2.37593396776231e-11 1.02447010922526e-12
9.33075000000000e+01 1.99770808112686e-11 8.64703785426090e-13
9.40225000000000e+01 1.67969212593824e-11 7.29831622747352e-13
9.47375000000000e+01 1.41230125892441e-11 6.15978331290983e-13
9.54525000000000e+01 1.18747645187974e-11 5.19871276941912e-13
9.61675000000000e+01 9.98441596549167e-12 4.38746864958667e-13
9.68825000000000e+01 8.39499276083843e-12 3.70271448205796e-13
9.75975000000000e+01 7.05859047721067e-12 3.12474509543589e-13
9.83125000000000e+01 5.93493061213708e-12 2.63692216068966e-13
9.90275000000000e+01 4.99014661420066e-12 2.22519737300978e-13
9.97425000000000e+01 4.19576316196418e-12 1.87770968316530e-13
1.00457500000000e+02 3.52783793189523e-12 1.58444509282055e-13
1.01172500000000e+02 2.96623998860141e-12 1.33694930730870e-13
1.01887500000000e+02 2.49404304841501e-12 1.12808504325469e-13
1.02602500000000e+02 2.09701532959243e-12 9.51827059672817e-14
1.03317500000000e+02 1.76319061346607e-12 8.03089055669305e-14
1.04032500000000e+02 1.48250758854447e-12 6.77577486052677e-14
1.04747500000000e+02 1.24650660757061e-12 5.71668113702010e-14
1.05462500000000e+02 1.04807471794643e-12 4.82301766206408e-14
1.06177500000000e+02 8.81231280866895e-13 4.06896312454213e-14
1.06892500000000e+02 7.40947717830550e-13 3.43272338064444e-14
1.07607500000000e+02 6.22995951775826e-13 2.89590389961926e-14
1.08322500000000e+02 5.23820974933927e-13 2.44297991116348e-14
1.09037500000000e+02 4.40433702656649e-13 2.06084905891292e-14
1.09752500000000e+02 3.70320883886548e-13 1.73845372526521e-14
1.10467500000000e+02 3.11369353015710e-13 1.46646218721195e-14
1.11182500000000e+02 2.61802340121665e-13 1.23699944774234e-14
1.11897500000000e+02 2.20125920002544e-13 1.04342001069135e-14
1.12612500000000e+02 1.85083986011921e-13 8.80116069199226e-15
1.13327500000000e+02 1.55620391627052e-13 7.42355593503194e-15
1.14042500000000e+02 1.30847118716133e-13 6.26145661565406e-15
1.14757500000000e+02 1.10017513111936e-13 5.28117100534268e-15
1.15472500000000e+02 9.25037808252683e-14 4.45427118926970e-15
1.16187500000000e+02 7.77780666452904e-14 3.75677126189517e-15
1.16902500000000e+02 6.53965448450814e-14 3.16843372707680e-15
1.17617500000000e+02 5.49860424942010e-14 2.67218411887522e-15
1.18332500000000e+02 4.62327922115213e-14 2.25361697141448e-15
1.19047500000000e+02 3.88729753718706e-14 1.90057889412971e-15
1.19762500000000e+02 3.26847707434267e-14 1.60281672775818e-15
1.20477500000000e+02 2.74816689057304e-14 1.35168063007783e-15
1.21192500000000e+02 2.31068509481921e-14 1.13987352236968e-15
1.21907500000000e+02 1.94284620258500e-14 9.61239663236462e-16
1.22622500000000e+02 1.63356373196941e-14 8.10586244064283e-16
1.23337500000000e+02 1.37351606259687e-14 6.83532852426325e-16
1.24052500000000e+02 1.15486548659917e-14 5.76384453430585e-16
1.24767500000000e+02 9.71021983984893e-15 4.86024217488548e-16
1.25482500000000e+02 8.16444602703082e-15 4.09823095723577e-16
1.26197500000000e+02 6.86474457094643e-15 3.45563527708581e-16
1.26912500000000e+02 5.77194311387670e-15 2.91375074324075e-16
1.27627500000000e+02 4.85310516152759e-15 2.45680112999137e-16
1.28342500000000e+02 4.08053739341633e-15 2.07148023351402e-16
1.29057500000000e+02 3.43095499991759e-15 1.74656536647841e-16
1.29772500000000e+02 2.88477988964197e-15 1.47259129632346e-16
1.30487500000000e+02 2.42555061546498e-15 1.24157518075901e-16
1.31202500000000e+02 2.03942623466940e-15 1.04678452937590e-16
1.31917500000000e+02 1.71476914979177e-15 8.82541465329044e-17
1.32632500000000e+02 1.44179435720276e-15 7.44057611800575e-17
1.33347500000000e+02 1.21227453194743e-15 6.27294814663467e-17
1.34062500000000e+02 1.01929206024885e-15 5.28847661035895e-17
1.34777500000000e+02 8.57030546057362e-16 4.45844384842626e-17
1.35492500000000e+02 7.20599507756453e-16 3.75863283313137e-17
1.36207500000000e+02 6.05886981470655e-16 3.16862217936583e-17
1.36922500000000e+02 5.09435588512355e-16 2.67119152750639e-17
1.37637500000000e+02 4.28338331701717e-16 2.25182002928446e-17
1.38352500000000e+02 3.60150979912470e-16 1.89826336698970e-17
1.39067500000000e+02 3.02818400157186e-16 1.60019701500957e-17
1.39782500000000e+02 2.54612616897624e-16 1.34891537520755e-17
1.40497500000000e+02 2.14080731718435e-16 1.13707803962257e-17
1.41212500000000e+02 1.80001133689021e-16 9.58495802376712e-18
1.41927500000000e+02 1.51346680615548e-16 8.07950197124214e-18
1.42642500000000e+02 1.27253741484305e-16 7.39936722982838e-18
