Energy (eV)          EEDF (eV^-(3/2))     First Anisotropy
4.93333333333333e-04 1.25292923462093e+02 7.59828664998405e-02
1.48000000000000e-03 1.22447412877204e+02 1.24462971084579e-01
2.46666666666667e-03 1.19666526299151e+02 1.61660655482091e-01
3.45333333333333e-03 1.16948796057499e+02 1.88360601483624e-01
4.44000000000000e-03 1.14292787817518e+02 2.09373706341791e-01
5.42666666666667e-03 1.11697099821989e+02 2.26564817150804e-01
6.41333333333333e-03 1.09160362143726e+02 2.40921809113174e-01
7.40000000000000e-03 1.06681235970146e+02 2.53054660690021e-01
8.38666666666667e-03 1.04258412895607e+02 2.63376622989836e-01
9.37333333333333e-03 1.01890614226802e+02 2.72185766007992e-01
1.03600000000000e-02 9.95765903119526e+01 2.79707035628740e-01
1.13466666666667e-02 9.73151198831453e+01 2.86116104894313e-01
1.23333333333333e-02 9.51050093998353e+01 2.91553888918826e-01
1.33200000000000e-02 9.29450924334842e+01 2.96135874168609e-01
1.43066666666667e-02 9.08342290525332e+01 2.99958381844294e-01
1.52933333333333e-02 8.87713052015078e+01 3.03102927651996e-01
1.62800000000000e-02 8.67552321323936e+01 3.05639348712249e-01
1.72666666666667e-02 8.47849458284328e+01 3.07628103048695e-01
1.82533333333333e-02 8.28594064279035e+01 3.09121999596822e-01
1.92400000000000e-02 8.09775976900585e+01 3.10167524452753e-01
2.02266666666667e-02 7.91385264576726e+01 3.10805873946720e-01
2.12133333333333e-02 7.73412221213294e+01 3.11073772721401e-01
2.22000000000000e-02 7.55847361187997e+01 3.11004129785931e-01
2.31866666666667e-02 7.38681414336022e+01 3.10626570217872e-01
2.41733333333333e-02 7.21905320964202e+01 3.09967871909054e-01
2.51600000000000e-02 7.05510227163669e+01 3.09052327410040e-01
2.61466666666667e-02 6.89487480130800e+01 3.07902045774799e-01
2.71333333333333e-02 6.73828623523759e+01 3.06537207446506e-01
2.81200000000000e-02 6.58525393076955e+01 3.04976280697438e-01
2.91066666666667e-02 6.43569712234538e+01 3.03236206150182e-01
3.00933333333333e-02 6.28953687823763e+01 3.01332556013279e-01
3.10800000000000e-02 6.14669605953904e+01 2.99279671922710e-01
3.20666666666667e-02 6.00709927941180e+01 2.97090784443965e-01
3.30533333333333e-02 5.87067286275994e+01 2.94778118029340e-01
3.40400000000000e-02 5.73734480789210e+01 2.92352983278321e-01
3.50266666666667e-02 5.60704474848933e+01 2.89825857979865e-01
3.60133333333333e-02 5.47970391600721e+01 2.87206459338591e-01
3.70000000000000e-02 5.35525510384750e+01 2.84503808259068e-01
3.79866666666667e-02 5.23363263186211e+01 2.81726286401160e-01
3.89733333333333e-02 5.11477231129369e+01 2.78881687661850e-01
3.99600000000000e-02 4.99861141129861e+01 2.75977264467378e-01
4.09466666666667e-02 4.88508862581734e+01 2.73019769197250e-01
4.19333333333333e-02 4.77414404087747e+01 2.70015491962144e-01
4.29200000000000e-02 4.66571910331834e+01 2.66970294863014e-01
4.39066666666667e-02 4.55975658986992e+01 2.63889642845953e-01
4.48933333333333e-02 4.45620057665525e+01 2.60778632104384e-01
4.58800000000000e-02 4.35499640997580e+01 2.57642016018957e-01
4.68666666666667e-02 4.25609067745104e+01 2.54484228638102e-01
4.78533333333333e-02 4.15943117956992e+01 2.51309406470857e-01
4.88400000000000e-02 4.06496690240375e+01 2.48121408509219e-01
4.98266666666667e-02 3.97264799066898e+01 2.44923834422856e-01
5.08133333333333e-02 3.88242572118800e+01 2.41720041571011e-01
5.18000000000000e-02 3.79425247740437e+01 2.38513160710930e-01
5.27866666666667e-02 3.70808172424058e+01 2.35306110314305e-01
5.37733333333333e-02 3.62386798333835e+01 2.32101610042609e-01
5.47600000000000e-02 3.54156680925891e+01 2.28902193242833e-01
5.57466666666667e-02 3.46113476601584e+01 2.25710218360018e-01
5.67333333333333e-02 3.38252940397446e+01 2.22527879744988e-01
5.77200000000000e-02 3.30570923762687e+01 2.19357217712445e-01
5.87066666666667e-02 3.23063372368828e+01 2.16200127740236e-01
5.96933333333333e-02 3.15726323954330e+01 2.13058369230254e-01
6.06800000000000e-02 3.08555906249253e+01 2.09933573686514e-01
6.16666666666667e-02 3.01548334930813e+01 2.06827252201008e-01
6.26533333333333e-02 2.94699911612268e+01 2.03740802620367e-01
6.36400000000000e-02 2.88007021905064e+01 2.00675516252963e-01
6.46266666666667e-02 2.81466133510594e+01 1.97632584010043e-01
6.56133333333333e-02 2.75073794343618e+01 1.94613102314117e-01
6.66000000000000e-02 2.68826630722855e+01 1.91618078640448e-01
6.75866666666667e-02 2.62721345589860e+01 1.88648436589986e-01
6.85733333333333e-02 2.56754716757936e+01 1.85705020792986e-01
6.95600000000000e-02 2.50923595222701e+01 1.82788601516465e-01
7.05466666666667e-02 2.45224903499625e+01 1.79899878879489e-01
7.15333333333333e-02 2.39655633989978e+01 1.77039486946115e-01
7.25200000000000e-02 2.34212847403489e+01 1.74207997576948e-01
7.35066666666667e-02 2.28893671206600e+01 1.71405923949284e-01
7.44933333333333e-02 2.23695298097631e+01 1.68633723989987e-01
7.54800000000000e-02 2.18614984534093e+01 1.65891803609902e-01
7.64666666666667e-02 2.13650049284313e+01 1.63180519655851e-01
7.74533333333333e-02 2.08797872004466e+01 1.60500182801704e-01
7.84400000000000e-02 2.04055891863640e+01 1.57851060275016e-01
7.94266666666667e-02 1.99421606191939e+01 1.55233378341206e-01
8.04133333333333e-02 1.94892569152554e+01 1.52647324746696e-01
8.14000000000000e-02 1.90466390458116e+01 1.50093051024870e-01
8.23866666666667e-02 1.86140734108846e+01 1.47570674592533e-01
8.33733333333333e-02 1.81913317153304e+01 1.45080280820349e-01
8.43600000000000e-02 1.77781908489984e+01 1.42621924988159e-01
8.53466666666667e-02 1.73744327689510e+01 1.40195634058225e-01
8.63333333333333e-02 1.69798443838131e+01 1.37801408433833e-01
8.73200000000000e-02 1.65942174418909e+01 1.35439223620745e-01
8.83066666666667e-02 1.62173484212370e+01 1.33109031729636e-01
8.92933333333333e-02 1.58490384217192e+01 1.30810762972479e-01
9.02800000000000e-02 1.54890930605727e+01 1.28544327076537e-01
9.12666666666667e-02 1.51373223697869e+01 1.26309614558870e-01
9.22533333333333e-02 1.47935406953785e+01 1.24106498001252e-01
9.32400000000000e-02 1.44575665998831e+01 1.21934833254918e-01
9.42266666666667e-02 1.41292227665769e+01 1.19794460522463e-01
9.52133333333333e-02 1.38083359054714e+01 1.17685205444982e-01
9.62000000000000e-02 1.34947366622851e+01 1.15606880129230e-01
9.71866666666667e-02 1.31882595290442e+01 1.13559284066195e-01
9.81733333333333e-02 1.28887427563502e+01 1.11542205058485e-01
9.91600000000000e-02 1.25960282684013e+01 1.09555420096280e-01
1.00146666666667e-01 1.23099615795473e+01 1.07598696136997e-01
1.01133333333333e-01 1.20303917124111e+01 1.05671790879130e-01
1.02120000000000e-01 1.17571711182382e+01 1.03774453594488e-01
1.03106666666667e-01 1.14901556006014e+01 1.01906425634739e-01
1.04093333333333e-01 1.12292042358164e+01 1.00067441185509e-01
1.05080000000000e-01 1.09741793017471e+01 9.82572280412560e-02
1.06066666666667e-01 1.07249462049818e+01 9.64755078976789e-02
1.07053333333333e-01 1.04813734069520e+01 9.47219970697863e-02
1.08040000000000e-01 1.02433323573963e+01 9.29964071468762e-02
1.09026666666667e-01 1.00106974263897e+01 9.12984452196114e-02
1.10013333333333e-01 9.78334583545648e+00 8.96278145009377e-02
1.11000000000000e-01 9.56115759539082e+00 8.79842148904612e-02
1.11986666666667e-01 9.34401544281672e+00 8.63673431467508e-02
1.12973333333333e-01 9.13180477595262e+00 8.47768934240384e-02
1.13960000000000e-01 8.92441359650815e+00 8.32125577581382e-02
1.14946666666667e-01 8.72173245047205e+00 8.16740261928722e-02
1.15933333333333e-01 8.52365436821162e+00 8.01609872436452e-02
1.16920000000000e-01 8.33007481018134e+00 7.86731283153183e-02
1.17906666666667e-01 8.14089161165692e+00 7.72101357902656e-02
1.18893333333333e-01 7.95600492687451e+00 7.57716954283632e-02
1.19880000000000e-01 7.77531717830373e+00 7.43574927257924e-02
1.20866666666667e-01 7.59873300506493e+00 7.29672129710621e-02
1.21853333333333e-01 7.42615921083316e+00 7.16005415896490e-02
1.22840000000000e-01 7.25750471644428e+00 7.02571644514700e-02
1.23826666666667e-01 7.09268051174956e+00 6.89367679002431e-02
1.24813333333333e-01 6.93159960702893e+00 6.76390390499025e-02
1.25800000000000e-01 6.77417698871310e+00 6.63636660474328e-02
1.26786666666667e-01 6.62032957444638e+00 6.51103380801198e-02
1.27773333333333e-01 6.46997616777116e+00 6.38787456299241e-02
1.28760000000000e-01 6.32303741676282e+00 6.26685806974780e-02
1.29746666666667e-01 6.17943577208711e+00 6.14795367910911e-02
1.30733333333333e-01 6.03909544473389e+00 6.03113091444553e-02
1.31720000000000e-01 5.90194236737498e+00 5.91635949068415e-02
1.32706666666667e-01 5.76790415521630e+00 5.80360931171404e-02
1.33693333333333e-01 5.63691006657450e+00 5.69285048895775e-02
1.34680000000000e-01 5.50889096677984e+00 5.58405335744921e-02
1.35666666666667e-01 5.38377929163677e+00 5.47718847202078e-02
1.36653333333333e-01 5.26150901065113e+00 5.37222662308314e-02
1.37640000000000e-01 5.14201559331158e+00 5.26913885014331e-02
1.38626666666667e-01 5.02523597498483e+00 5.16789643701166e-02
1.39613333333333e-01 4.91110852261415e+00 5.06847092514678e-02
1.40600000000000e-01 4.79957300322369e+00 4.97083412494641e-02
1.41586666666667e-01 4.69057055208606e+00 4.87495811017596e-02
1.42573333333333e-01 4.58404364072521e+00 4.78081522918969e-02
1.43560000000000e-01 4.47993604749804e+00 4.68837811428572e-02
1.44546666666667e-01 4.37819282788281e+00 4.59761967552722e-02
1.45533333333333e-01 4.27876028463087e+00 4.50851311011203e-02
1.46520000000000e-01 4.18158594028932e+00 4.42103191004625e-02
1.47506666666667e-01 4.08661850946893e+00 4.33514985550316e-02
1.48493333333333e-01 3.99380787099976e+00 4.25084102258043e-02
1.49480000000000e-01 3.90310504226743e+00 4.16807978951458e-02
1.50466666666667e-01 3.81446215332873e+00 4.08684082970046e-02
1.51453333333333e-01 3.72783242093589e+00 4.00709911804560e-02
1.52440000000000e-01 3.64317012456747e+00 3.92882993592012e-02
1.53426666666667e-01 3.56043058226843e+00 3.85200886394056e-02
1.54413333333333e-01 3.47957012641726e+00 3.77661178710521e-02
1.55400000000000e-01 3.40054608134000e+00 3.70261489865029e-02
1.56386666666667e-01 3.32331674075992e+00 3.62999469268543e-02
1.57373333333333e-01 3.24784134519008e+00 3.55872796827101e-02
1.58360000000000e-01 3.17408006102644e+00 3.48879183233033e-02
1.59346666666667e-01 3.10199395949987e+00 3.42016369221034e-02
1.60333333333333e-01 3.03154499558470e+00 3.35282125884251e-02
1.61320000000000e-01 2.96269598847359e+00 3.28674254884185e-02
1.62306666666667e-01 2.89541060193183e+00 3.22190587705430e-02
1.63293333333333e-01 2.82965332461979e+00 3.15828985892563e-02
1.64280000000000e-01 2.76538945185868e+00 3.09587341190223e-02
1.65266666666667e-01 2.70258506729361e+00 3.03463574801613e-02
1.66253333333333e-01 2.64120702453489e+00 2.97455637557106e-02
1.67240000000000e-01 2.58122293012968e+00 2.91561509994570e-02
1.68226666666667e-01 2.52260112644652e+00 2.85779201625851e-02
1.69213333333333e-01 2.46531067454697e+00 2.80106751046704e-02
1.70200000000000e-01 2.40932133828349e+00 2.74542225966172e-02
1.71186666666667e-01 2.35460356832424e+00 2.69083722484500e-02
1.72173333333333e-01 2.30112848617218e+00 2.63729365152819e-02
1.73160000000000e-01 2.24886786931515e+00 2.58477306959301e-02
1.74146666666667e-01 2.19779413631480e+00 2.53325728621310e-02
1.75133333333333e-01 2.14788033189617e+00 2.48272838602211e-02
1.76120000000000e-01 2.09910011308047e+00 2.43316873061088e-02
1.77106666666667e-01 2.05142773526733e+00 2.38456095161372e-02
1.78093333333333e-01 2.00483803832293e+00 2.33688795051267e-02
1.79080000000000e-01 1.95930643363065e+00 2.29013289782915e-02
1.80066666666667e-01 1.91480889110048e+00 2.24427922639273e-02
1.81053333333333e-01 1.87132192618861e+00 2.19931063083845e-02
1.82040000000000e-01 1.82882258780542e+00 2.15521106654463e-02
1.83026666666667e-01 1.78728844619022e+00 2.11196474309769e-02
1.84013333333333e-01 1.74669758079990e+00 2.06955612353230e-02
1.85000000000000e-01 1.70702856901749e+00 2.02796992306040e-02
1.85986666666667e-01 1.66826047483475e+00 1.98719110274215e-02
1.86973333333333e-01 1.63037283755138e+00 1.94720486851239e-02
1.87960000000000e-01 1.59334566123149e+00 1.90799666974027e-02
1.88946666666667e-01 1.55715940414001e+00 1.86955219311331e-02
1.89933333333333e-01 1.52179496819826e+00 1.83185736148829e-02
1.90920000000000e-01 1.48723368913879e+00 1.79489833231566e-02
1.91906666666667e-01 1.45345732664551e+00 1.75866149174133e-02
1.92893333333333e-01 1.42044805451475e+00 1.72313345331519e-02
1.93880000000000e-01 1.38818845146247e+00 1.68830105630988e-02
1.94866666666667e-01 1.35666149192108e+00 1.65415136004271e-02
1.95853333333333e-01 1.32585053685885e+00 1.62067164247088e-02
1.96840000000000e-01 1.29573932519621e+00 1.58784939843034e-02
1.97826666666667e-01 1.26631196521564e+00 1.55567233417852e-02
1.98813333333333e-01 1.23755292599519e+00 1.52412836590117e-02
1.99800000000000e-01 1.20944702939370e+00 1.49320561789367e-02
2.00786666666667e-01 1.18197944203282e+00 1.46289241732365e-02
2.01773333333333e-01 1.15513566730359e+00 1.43317729267143e-02
2.02760000000000e-01 1.12890153788282e+00 1.40404897187278e-02
2.03746666666667e-01 1.10326320824927e+00 1.37549637729935e-02
2.04733333333333e-01 1.07820714722475e+00 1.34750862415156e-02
2.05720000000000e-01 1.05372013098669e+00 1.32007501857927e-02
2.06706666666667e-01 1.02978923608273e+00 1.29318505287691e-02
2.07693333333333e-01 1.00640183247066e+00 1.26682840384507e-02
2.08680000000000e-01 9.83545576994206e-01 1.24099493090317e-02
2.09666666666667e-01 9.61208406863011e-01 1.21567467149521e-02
2.10653333333333e-01 9.39378533157849e-01 1.19085783943405e-02
2.11640000000000e-01 9.18044434739081e-01 1.16653482301813e-02
2.12626666666667e-01 8.97194852160903e-01 1.14269618064314e-02
2.13613333333333e-01 8.76818781610800e-01 1.11933263914099e-02
2.14600000000000e-01 8.56905469221955e-01 1.09643509191056e-02
2.15586666666667e-01 8.37444405392878e-01 1.07399459473028e-02
2.16573333333333e-01 8.18425319131987e-01 1.05200236410175e-02
2.17560000000000e-01 7.99838172747260e-01 1.03044977540327e-02
2.18546666666667e-01 7.81673156544214e-01 1.00932835889745e-02
2.19533333333333e-01 7.63920683548515e-01 9.88629798088400e-03
2.20520000000000e-01 7.46571384547868e-01 9.68345927904845e-03
2.21506666666667e-01 7.29616103143168e-01 9.48468730896988e-03
2.22493333333333e-01 7.13045890823814e-01 9.28990335614345e-03
2.23480000000000e-01 6.96852002338530e-01 9.09903014824530e-03
2.24466666666667e-01 6.81025891076141e-01 8.91199181893054e-03
2.25453333333333e-01 6.65559204470001e-01 8.72871389187903e-03
2.26440000000000e-01 6.50443779675944e-01 8.54912326338640e-03
2.27426666666667e-01 6.35671639260743e-01 8.37314816792931e-03
2.28413333333333e-01 6.21234986913618e-01 8.20071816252814e-03
2.29400000000000e-01 6.07126203410975e-01 8.03176410977972e-03
2.30386666666667e-01 5.93337842592044e-01 7.86621814512458e-03
2.31373333333333e-01 5.79862627356933e-01 7.70401366156773e-03
2.32360000000000e-01 5.66693445899145e-01 7.54508529318361e-03
2.33346666666667e-01 5.53823347949266e-01 7.38936888402012e-03
2.34333333333333e-01 5.41245541040399e-01 7.23680147321005e-03
2.35320000000000e-01 5.28953386990711e-01 7.08732127897072e-03
2.36306666666667e-01 5.16940398397315e-01 6.94086766908104e-03
2.37293333333333e-01 5.05200235151201e-01 6.79738114640862e-03
2.38280000000000e-01 4.93726701153235e-01 6.65680333342086e-03
2.39266666666667e-01 4.82513741041585e-01 6.51907694417039e-03
2.40253333333333e-01 4.71555436939440e-01 6.38414577025790e-03
2.41240000000000e-01 4.60846005389009e-01 6.25195466586545e-03
2.42226666666667e-01 4.50379794296911e-01 6.12244952118749e-03
2.43213333333333e-01 4.40151279899138e-01 5.99557724884292e-03
2.44200000000000e-01 4.30155063898582e-01 5.87128576943763e-03
2.45186666666667e-01 4.20385870613883e-01 5.74952398637858e-03
2.46173333333333e-01 4.10838544147101e-01 5.63024177274459e-03
2.47160000000000e-01 4.01508045711284e-01 5.51338995738086e-03
2.48146666666667e-01 3.92389450969214e-01 5.39892030103496e-03
2.49133333333333e-01 3.83477947390243e-01 5.28678548369210e-03
2.50120000000000e-01 3.74768831755292e-01 5.17693909120078e-03
2.51106666666667e-01 3.66257507672850e-01 5.06933559267110e-03
2.52093333333333e-01 3.57939483112328e-01 4.96393032827650e-03
2.53080000000000e-01 3.49810368074721e-01 4.86067949640684e-03
2.54066666666667e-01 3.41865872274054e-01 4.75954013227144e-03
2.55053333333333e-01 3.34101802835457e-01 4.66047009616642e-03
2.56040000000000e-01 3.26514062120492e-01 4.56342806114916e-03
2.57026666666667e-01 3.19098645563038e-01 4.46837349278954e-03
2.58013333333333e-01 3.11851639521067e-01 4.37526663789963e-03
2.59000000000000e-01 3.04769219246388e-01 4.28406851272173e-03
2.59986666666667e-01 2.97847646864672e-01 4.19474088377300e-03
2.60973333333333e-01 2.91083269370664e-01 4.10724625703244e-03
2.61960000000000e-01 2.84472516732760e-01 4.02154786663263e-03
2.62946666666667e-01 2.78011900007572e-01 3.93760965674509e-03
2.63933333333333e-01 2.71698009468990e-01 3.85539627121720e-03
2.64920000000000e-01 2.65527512838649e-01 3.77487304275671e-03
2.65906666666667e-01 2.59497153526069e-01 3.69600597580720e-03
2.66893333333333e-01 2.53603748882625e-01 3.61876173662635e-03
2.67880000000000e-01 2.47844188549549e-01 3.54310764295057e-03
2.68866666666667e-01 2.42215432815280e-01 3.46901164781206e-03
2.69853333333333e-01 2.36714510986001e-01 3.39644233004822e-03
2.70840000000000e-01 2.31338519843370e-01 3.32536888443385e-03
2.71826666666667e-01 2.26084622111278e-01 3.25576110639225e-03
2.72813333333333e-01 2.20950044935163e-01 3.18758938292549e-03
2.73800000000000e-01 2.15932078442186e-01 3.12082468320029e-03
2.74786666666667e-01 2.11028074310115e-01 3.05543854410778e-03
2.75773333333333e-01 2.06235444348141e-01 2.99140306160328e-03
2.76760000000000e-01 2.01551659152707e-01 2.92869088173145e-03
2.77746666666667e-01 1.96974246771710e-01 2.86727518699165e-03
2.78733333333333e-01 1.92500791380045e-01 2.80712968807501e-03
2.79720000000000e-01 1.88128932024731e-01 2.74822861531436e-03
2.80706666666667e-01 1.83856361378089e-01 2.69054670581349e-03
2.81693333333333e-01 1.79680824501676e-01 2.63405919556918e-03
2.82680000000000e-01 1.75600117674797e-01 2.57874181133109e-03
2.83666666666667e-01 1.71612087230711e-01 2.52457075845525e-03
2.84653333333333e-01 1.67714628403076e-01 2.47152271339814e-03
2.85640000000000e-01 1.63905684232285e-01 2.41957481597162e-03
2.86626666666667e-01 1.60183244479194e-01 2.36870465788276e-03
2.87613333333333e-01 1.56545344548547e-01 2.31889027558704e-03
2.88600000000000e-01 1.52990064467988e-01 2.27011014292352e-03
2.89586666666667e-01 1.49515527874131e-01 2.22234316030444e-03
2.90573333333333e-01 1.46119901007836e-01 2.17556864791478e-03
2.91560000000000e-01 1.42801391761061e-01 2.12976633871270e-03
2.92546666666667e-01 1.39558248730464e-01 2.08491636823449e-03
2.93533333333333e-01 1.36388760279732e-01 2.04099926812726e-03
2.94520000000000e-01 1.33291253649761e-01 1.99799595950005e-03
2.95506666666667e-01 1.30264094075302e-01 1.95588774331120e-03
2.96493333333333e-01 1.27305683909850e-01 1.91465629422115e-03
2.97480000000000e-01 1.24414461794969e-01 1.87428365427977e-03
2.98466666666667e-01 1.21588901835760e-01 1.83475222386473e-03
2.99453333333333e-01 1.18827512784154e-01 1.79604475584165e-03
3.00440000000000e-01 1.16128837263431e-01 1.75814434957348e-03
3.01426666666667e-01 1.13491450998616e-01 1.72103444237982e-03
3.02413333333333e-01 1.10913962054256e-01 1.68469880399189e-03
3.03400000000000e-01 1.08395010110487e-01 1.64912153086988e-03
3.04386666666667e-01 1.05933265744679e-01 1.61428703815505e-03
3.05373333333333e-01 1.03527429720077e-01 1.58018005440690e-03
3.06360000000000e-01 1.01176232309978e-01 1.54678561621514e-03
3.07346666666667e-01 9.88784326272258e-02 1.51408906061733e-03
3.08333333333333e-01 9.66328179603076e-02 1.48207602010616e-03
3.09320000000000e-01 9.44382031424554e-02 1.45073241752284e-03
3.10306666666667e-01 9.22934299257923e-02 1.42004445891449e-03
3.11293333333333e-01 9.01973663617296e-02 1.38999862879980e-03
