Energy (eV)          EEDF (eV^-(3/2))     First Anisotropy
2.60833333333333e-02 4.11795994153006e-02 1.99445807063582e-05
7.82500000000000e-02 4.09434684611853e-02 3.29505196368107e-05
1.30416666666667e-01 4.07086915234478e-02 4.35417501632024e-05
1.82583333333333e-01 4.04752608367306e-02 5.16144206988364e-05
2.34750000000000e-01 4.02431686815175e-02 5.83690428460050e-05
2.86916666666667e-01 4.00124073836149e-02 6.42587602497129e-05
3.39083333333333e-01 3.97829693106935e-02 6.95177056725444e-05
3.91250000000000e-01 3.95548468751778e-02 7.42870473699092e-05
4.43416666666667e-01 3.93280325336057e-02 7.86602683089237e-05
4.95583333333333e-01 3.91025187845788e-02 8.27033403310120e-05
5.47750000000000e-01 3.88782981702857e-02 8.64650253724894e-05
5.99916666666667e-01 3.86553632760969e-02 8.99826602815488e-05
6.52083333333333e-01 3.84337067290757e-02 9.32856421765137e-05
7.04250000000000e-01 3.82133211989644e-02 9.63976463372439e-05
7.56416666666667e-01 3.79941993978554e-02 9.93381008320556e-05
8.08583333333333e-01 3.77763340790046e-02 1.02123202187136e-04
8.60750000000000e-01 3.75597180375293e-02 1.04766636305887e-04
9.12916666666667e-01 3.73443441101145e-02 1.07280103604487e-04
9.65083333333333e-01 3.71302051740187e-02 1.09673709531105e-04
1.01725000000000e+00 3.69172941475907e-02 1.11956260619936e-04
1.06941666666667e+00 3.67056039905804e-02 1.14135493390136e-04
1.12158333333333e+00 3.64951277009406e-02 1.16218252703083e-04
1.17375000000000e+00 3.62858583181682e-02 1.18210633028367e-04
1.22591666666667e+00 3.60777889234582e-02 1.20118093392468e-04
1.27808333333333e+00 3.58709126341324e-02 1.21945548931867e-04
1.33025000000000e+00 3.56652226087354e-02 1.23697445662400e-04
1.38241666666667e+00 3.54607120465884e-02 1.25377824315657e-04
1.43458333333333e+00 3.52573741829342e-02 1.26990371598375e-04
1.48675000000000e+00 3.50552022933309e-02 1.28538463097717e-04
1.53891666666667e+00 3.48541896932537e-02 1.30025201454313e-04
1.59108333333333e+00 3.46543297338055e-02 1.31453447027177e-04
1.64325000000000e+00 3.44556158055573e-02 1.32825844033260e-04
1.69541666666667e+00 3.42580413381859e-02 1.34144844828419e-04
1.74758333333333e+00 3.40615997966412e-02 1.35412729207132e-04
1.79975000000000e+00 3.38662846845406e-02 1.36631621091847e-04
1.85191666666667e+00 3.36720895438340e-02 1.37803504787737e-04
1.90408333333333e+00 3.34790079513481e-02 1.38930237627529e-04
1.95625000000000e+00 3.32870335218132e-02 1.40013561031857e-04
2.00841666666667e+00 3.30961599075511e-02 1.41055111873558e-04
2.06058333333333e+00 3.29063807953340e-02 1.42056431033196e-04
2.11275000000000e+00 3.27176899091052e-02 1.43018970951532e-04
2.16491666666667e+00 3.25300810096848e-02 1.43944103878631e-04
2.21708333333333e+00 3.23435478918967e-02 1.44833127814241e-04
2.26925000000000e+00 3.21580843870292e-02 1.45687271790320e-04
2.32141666666667e+00 3.19736843625562e-02 1.46507702059375e-04
2.37358333333333e+00 3.17903417194945e-02 1.47295526305342e-04
2.42575000000000e+00 3.16080503946419e-02 1.48051797409885e-04
2.47791666666667e+00 3.14268043603107e-02 1.48777518232155e-04
2.53008333333333e+00 3.12465976218858e-02 1.49473644642737e-04
2.58225000000000e+00 3.10674242198697e-02 1.50141088249427e-04
2.63441666666667e+00 3.08892782296274e-02 1.50780720186143e-04
2.68658333333333e+00 3.07121537591199e-02 1.51393373326199e-04
2.73875000000000e+00 3.05360449507808e-02 1.51979844277193e-04
2.79091666666667e+00 3.03609459812711e-02 1.52540896454883e-04
2.84308333333333e+00 3.01868510593676e-02 1.53077261711988e-04
2.89525000000000e+00 3.00137544276919e-02 1.53589641809268e-04
2.94741666666667e+00 2.98416503624729e-02 1.54078710961491e-04
2.99958333333333e+00 2.96705331715748e-02 1.54545117042282e-04
3.05175000000000e+00 2.95003971960930e-02 1.54989482673145e-04
3.10391666666667e+00 2.93312368101259e-02 1.55412407371502e-04
3.15608333333333e+00 2.91630464189259e-02 1.55814468443137e-04
3.20825000000000e+00 2.89958204603784e-02 1.56196221788276e-04
3.26041666666667e+00 2.88295534047807e-02 1.56558203743926e-04
3.31258333333333e+00 2.86642397531040e-02 1.56900931742825e-04
3.36475000000000e+00 2.84998740383686e-02 1.57224904907261e-04
3.41691666666667e+00 2.83364508254279e-02 1.57530605652444e-04
3.46908333333333e+00 2.81739647093325e-02 1.57818500168839e-04
3.52125000000000e+00 2.80124103166098e-02 1.58089038854872e-04
3.57341666666667e+00 2.78517823050549e-02 1.58342657730441e-04
3.62558333333333e+00 2.76920753621860e-02 1.58579778784272e-04
3.67775000000000e+00 2.75332842064385e-02 1.58800810283097e-04
3.72991666666667e+00 2.73754035869616e-02 1.59006148032100e-04
3.78208333333333e+00 2.72184282821574e-02 1.59196175618162e-04
3.83425000000000e+00 2.70623531007974e-02 1.59371264623507e-04
3.88641666666667e+00 2.69071728818241e-02 1.59531775761006e-04
3.93858333333333e+00 2.67528824929673e-02 1.59678059036544e-04
3.99075000000000e+00 2.65994768317893e-02 1.59810453888267e-04
4.04291666666667e+00 2.64469508254922e-02 1.59929290218195e-04
4.09508333333333e+00 2.62952994296036e-02 1.60034888491330e-04
4.14725000000000e+00 2.61445176289584e-02 1.60127559816634e-04
4.19941666666667e+00 2.59946004375095e-02 1.60207606891745e-04
4.25158333333333e+00 2.58455428970798e-02 1.60275324052297e-04
4.30375000000000e+00 2.56973400782835e-02 1.60330997307077e-04
4.35591666666667e+00 2.55499870803423e-02 1.60374905209046e-04
4.40808333333333e+00 2.54034790298969e-02 1.60407318865443e-04
4.46025000000000e+00 2.52578110818738e-02 1.60428501936650e-04
4.51241666666667e+00 2.51129784193062e-02 1.60438711444097e-04
4.56458333333333e+00 2.49689762522005e-02 1.60438197749352e-04
4.61675000000000e+00 2.48257998183538e-02 1.60427204524294e-04
4.66891666666667e+00 2.46834443831779e-02 1.60405969504384e-04
4.72108333333333e+00 2.45419052386183e-02 1.60374724443162e-04
4.77325000000000e+00 2.44011777039252e-02 1.60333695059713e-04
4.82541666666667e+00 2.42612571254809e-02 1.60283101744272e-04
4.87758333333333e+00 2.41221388757677e-02 1.60223159493203e-04
4.92975000000000e+00 2.39838183540955e-02 1.60154077838477e-04
4.98191666666667e+00 2.38462909864332e-02 1.60076061511355e-04
5.03408333333333e+00 2.37095522244217e-02 1.59989310361927e-04
5.08625000000000e+00 2.35735975460610e-02 1.59894019274405e-04
5.13841666666667e+00 2.34384224555462e-02 1.59790378793569e-04
5.19058333333333e+00 2.33040224823218e-02 1.59678575032161e-04
5.24275000000000e+00 2.31703931817327e-02 1.59558789575045e-04
5.29491666666667e+00 2.30375301348624e-02 1.59431200072369e-04
5.34708333333333e+00 2.29054289476280e-02 1.59295980137466e-04
5.39925000000000e+00 2.27740852513957e-02 1.59153299242298e-04
5.45141666666667e+00 2.26434947028234e-02 1.59003323280714e-04
5.50358333333333e+00 2.25136529829919e-02 1.58846214458998e-04
5.55575000000000e+00 2.23845557979889e-02 1.58682131184606e-04
5.60791666666667e+00 2.22561988787542e-02 1.58511228602308e-04
5.66008333333333e+00 2.21285779802465e-02 1.58333658479154e-04
5.71225000000000e+00 2.20016888819967e-02 1.58149569088108e-04
5.76441666666667e+00 2.18755273879566e-02 1.57959105719520e-04
5.81658333333333e+00 2.17500893256985e-02 1.57762410561911e-04
5.86875000000000e+00 2.16253705469405e-02 1.57559622581879e-04
5.92091666666667e+00 2.15013669273981e-02 1.57350878012983e-04
5.97308333333333e+00 2.13780743660147e-02 1.57136310233475e-04
6.02525000000000e+00 2.12554887854610e-02 1.56916049643537e-04
6.07741666666667e+00 2.11336061319889e-02 1.56690224133433e-04
6.12958333333333e+00 2.10124223746921e-02 1.56458958959180e-04
6.18175000000000e+00 2.08919335059799e-02 1.56222376617970e-04
6.23391666666667e+00 2.07721355414349e-02 1.55980597297179e-04
6.28608333333333e+00 2.06530245191007e-02 1.55733738748737e-04
6.33825000000000e+00 2.05345964999326e-02 1.55481916163497e-04
6.39041666666667e+00 2.04168475676583e-02 1.55225242602482e-04
6.44258333333333e+00 2.02997738280915e-02 1.54963828870610e-04
6.49475000000000e+00 2.01833714095611e-02 1.54697783390613e-04
6.54691666666667e+00 2.00676364627747e-02 1.54427212617721e-04
6.59908333333333e+00 1.99525651601566e-02 1.54152220913305e-04
6.65125000000000e+00 1.98381536962572e-02 1.53872910418833e-04
6.70341666666667e+00 1.97243982876183e-02 1.53589381455098e-04
6.75558333333333e+00 1.96112951721356e-02 1.53301732396192e-04
6.80775000000000e+00 1.94988406094480e-02 1.53010059543901e-04
6.85991666666667e+00 1.93870308808060e-02 1.52714457512488e-04
6.91208333333333e+00 1.92758622884563e-02 1.52415019103318e-04
6.96425000000000e+00 1.91653311560133e-02 1.52111835180045e-04
7.01641666666667e+00 1.90554338283295e-02 1.51804995039838e-04
7.06858333333333e+00 1.89461666709018e-02 1.51494586288927e-04
7.12075000000000e+00 1.88375260702258e-02 1.51180694718875e-04
7.17291666666667e+00 1.87295084336683e-02 1.50863404664999e-04
7.22508333333333e+00 1.86221101888946e-02 1.50542798883130e-04
7.27725000000000e+00 1.85153277842057e-02 1.50218958427155e-04
7.32941666666667e+00 1.84091576884139e-02 1.49891962995375e-04
7.38158333333333e+00 1.83035963902891e-02 1.49561890808650e-04
7.43375000000000e+00 1.81986403988807e-02 1.49228818489419e-04
7.48591666666667e+00 1.80942862433958e-02 1.48892821396595e-04
7.53808333333333e+00 1.79905304726634e-02 1.48553973505294e-04
7.59025000000000e+00 1.78873696554425e-02 1.48212347287453e-04
7.64241666666667e+00 1.77848003803020e-02 1.47868014035891e-04
7.69458333333333e+00 1.76828192551027e-02 1.47521043745753e-04
7.74675000000000e+00 1.75814229072918e-02 1.47171504996801e-04
7.79891666666667e+00 1.74806079837847e-02 1.46819465267186e-04
7.85108333333333e+00 1.73803711504644e-02 1.46464990816693e-04
7.90325000000000e+00 1.72807090924625e-02 1.46108146570846e-04
7.95541666666667e+00 1.71816185140431e-02 1.45748996424903e-04
8.00758333333333e+00 1.70830961381188e-02 1.45387603128914e-04
8.05975000000000e+00 1.69851387065186e-02 1.45024028173742e-04
8.11191666666667e+00 1.68877429798751e-02 1.44658332085723e-04
8.16408333333333e+00 1.67909057371545e-02 1.44290574313622e-04
8.21625000000000e+00 1.66946237759140e-02 1.43920813116637e-04
8.26841666666667e+00 1.65988939121900e-02 1.43549105850116e-04
8.32058333333333e+00 1.65037129800439e-02 1.43175508854459e-04
8.37275000000000e+00 1.64090778318076e-02 1.42800077345130e-04
8.42491666666667e+00 1.63149853379741e-02 1.42422865689852e-04
8.47708333333333e+00 1.62214323867574e-02 1.42043927299508e-04
8.52925000000000e+00 1.61284158843273e-02 1.41663314520118e-04
8.58141666666667e+00 1.60359327547020e-02 1.41281078901914e-04
8.63358333333333e+00 1.59439799393217e-02 1.40897271092275e-04
8.68575000000000e+00 1.58525543972733e-02 1.40511940729690e-04
8.73791666666667e+00 1.57616531051848e-02 1.40125136705021e-04
8.79008333333333e+00 1.56712730568122e-02 1.39736907056487e-04
8.84225000000000e+00 1.55814112632544e-02 1.39347298865628e-04
8.89441666666667e+00 1.54920647528494e-02 1.38956358511098e-04
8.94658333333333e+00 1.54032305707741e-02 1.38564131565656e-04
8.99875000000000e+00 1.53149057792497e-02 1.38170662694160e-04
9.05091666666667e+00 1.52270874574400e-02 1.37775995900169e-04
9.10308333333333e+00 1.51397727010631e-02 1.37380174424955e-04
9.15525000000000e+00 1.50529586225880e-02 1.36983240647523e-04
9.20741666666667e+00 1.49666423511353e-02 1.36585236324294e-04
9.25958333333333e+00 1.48808210320996e-02 1.36186202490127e-04
9.31175000000000e+00 1.47954918273384e-02 1.35786179360345e-04
9.36391666666667e+00 1.47106519150745e-02 1.35385206563776e-04
9.41608333333333e+00 1.46262984895293e-02 1.34983323045768e-04
9.46825000000000e+00 1.45424287611043e-02 1.34580566972196e-04
9.52041666666667e+00 1.44590399562845e-02 1.34176975956117e-04
9.57258333333333e+00 1.43761293172830e-02 1.33772586962755e-04
9.62475000000000e+00 1.42936941022148e-02 1.33367436215473e-04
9.67691666666667e+00 1.42117315850018e-02 1.32961559416272e-04
9.72908333333333e+00 1.41302390550280e-02 1.32554991652740e-04
9.78125000000000e+00 1.40492138173056e-02 1.32147767305956e-04
9.83341666666667e+00 1.39686531923824e-02 1.31739920265045e-04
9.88558333333333e+00 1.38885545160061e-02 1.31331483836063e-04
9.93775000000000e+00 1.38089151392842e-02 1.30922490651818e-04
9.98991666666667e+00 1.37297324285927e-02 1.30512972880700e-04
1.00420833333333e+01 1.36510037652503e-02 1.30102962233232e-04
1.00942500000000e+01 1.35727265454383e-02 1.29692489395968e-04
1.01464166666667e+01 1.34948981812726e-02 1.29281585091567e-04
1.01985833333333e+01 1.34175160981709e-02 1.28870279616534e-04
1.02507500000000e+01 1.33405777370836e-02 1.28458601798918e-04
1.03029166666667e+01 1.32640805543785e-02 1.28046580899864e-04
1.03550833333333e+01 1.31880220195204e-02 1.27634245682041e-04
1.04072500000000e+01 1.31123996172299e-02 1.27221623488606e-04
1.04594166666667e+01 1.30372108473701e-02 1.26808742097726e-04
1.05115833333333e+01 1.29624532226993e-02 1.26395628813558e-04
1.05637500000000e+01 1.28881242709596e-02 1.25982309567534e-04
1.06159166666667e+01 1.28142215347659e-02 1.25568810727229e-04
1.06680833333333e+01 1.27407425694289e-02 1.25155158209276e-04
1.07202500000000e+01 1.26676849449764e-02 1.24741376602344e-04
1.07724166666667e+01 1.25950462460444e-02 1.24327490931681e-04
1.08245833333333e+01 1.25228240697678e-02 1.23913525793350e-04
1.08767500000000e+01 1.24510160277367e-02 1.23499504498296e-04
1.09289166666667e+01 1.23796197458901e-02 1.23085450793876e-04
1.09810833333333e+01 1.23086328624711e-02 1.22671388018805e-04
1.10332500000000e+01 1.22380530299213e-02 1.22257338267727e-04
1.10854166666667e+01 1.21678779147766e-02 1.21843324070949e-04
1.11375833333333e+01 1.20981051956848e-02 1.21429367569554e-04
1.11897500000000e+01 1.20287325652403e-02 1.21015489699906e-04
1.12419166666667e+01 1.19597577298819e-02 1.20601711832802e-04
1.12940833333333e+01 1.18911784079708e-02 1.20188054968171e-04
1.13462500000000e+01 1.18229923315672e-02 1.19774538938961e-04
1.13984166666667e+01 1.17551972463308e-02 1.19361184010859e-04
1.14505833333333e+01 1.16877909096565e-02 1.18948010096071e-04
1.15027500000000e+01 1.16207710923952e-02 1.18535035976067e-04
1.15549166666667e+01 1.15541355787572e-02 1.18122280862938e-04
1.16070833333333e+01 1.14878821645028e-02 1.17709763631744e-04
1.16592500000000e+01 1.14220086586106e-02 1.17297502061625e-04
1.17114166666667e+01 1.13565128831821e-02 1.16885514359879e-04
1.17635833333333e+01 1.12913926716868e-02 1.16473818412370e-04
1.18157500000000e+01 1.12266458705784e-02 1.16062431042491e-04
1.18679166666667e+01 1.11622703392022e-02 1.15651369498995e-04
1.19200833333333e+01 1.10982639480913e-02 1.15240650724006e-04
1.19722500000000e+01 1.10346245805339e-02 1.14830290629320e-04
1.20244166666667e+01 1.09713501324820e-02 1.14420305549029e-04
1.20765833333333e+01 1.09084385108983e-02 1.14010711524621e-04
1.21287500000000e+01 1.08458876352754e-02 1.13601523598206e-04
1.21809166666667e+01 1.07836954375463e-02 1.13192757230858e-04
1.22330833333333e+01 1.07218598604798e-02 1.12784427604364e-04
1.22852500000000e+01 1.06603788591536e-02 1.12376548930916e-04
1.23374166666667e+01 1.05992504008665e-02 1.11969135838104e-04
1.23895833333333e+01 1.05384724635809e-02 1.11562202686895e-04
1.24417500000000e+01 1.04780430373509e-02 1.11155762897335e-04
1.24939166666667e+01 1.04179601242366e-02 1.10749830301111e-04
1.25460833333333e+01 1.03582217367915e-02 1.10344418475312e-04
1.25982500000000e+01 1.02988258994480e-02 1.09939540083743e-04
1.26504166666667e+01 1.02397706484330e-02 1.09535208197915e-04
1.27025833333333e+01 1.01810540302995e-02 1.09131435646169e-04
1.27547500000000e+01 1.01226741032699e-02 1.08728234370203e-04
1.28069166666667e+01 1.00646289371542e-02 1.08325616715318e-04
1.28590833333333e+01 1.00069166119227e-02 1.07923594794529e-04
1.29112500000000e+01 9.94953521901015e-03 1.07522179859901e-04
1.29634166666667e+01 9.89248286123514e-03 1.07121383562864e-04
1.30155833333333e+01 9.83575765141373e-03 1.06721217332927e-04
1.30677500000000e+01 9.77935771362486e-03 1.06321691763423e-04
1.31199166666667e+01 9.72328118313140e-03 1.05922817842700e-04
1.31720833333333e+01 9.66752620503313e-03 1.05524606347040e-04
1.32242500000000e+01 9.61209093549482e-03 1.05127067240477e-04
1.32764166666667e+01 9.55697354166892e-03 1.04730210877605e-04
1.33285833333333e+01 9.50217220038652e-03 1.04334047410360e-04
1.33807500000000e+01 9.44768509934943e-03 1.03938586201500e-04
1.34329166666667e+01 9.39351043705446e-03 1.03543836999807e-04
1.34850833333333e+01 9.33964642152106e-03 1.03149809360375e-04
1.35372500000000e+01 9.28609127144868e-03 1.02756512071410e-04
1.35894166666667e+01 9.23284321614253e-03 1.02363954302547e-04
1.36415833333333e+01 9.17990049427680e-03 1.01972145038246e-04
1.36937500000000e+01 9.12726135501840e-03 1.01581092517634e-04
1.37459166666667e+01 9.07492405795418e-03 1.01190805356607e-04
1.37980833333333e+01 9.02288687188858e-03 1.00801291994019e-04
1.38502500000000e+01 8.97114807593484e-03 1.00412560144226e-04
1.39024166666667e+01 8.91970595944369e-03 1.00024617893628e-04
1.39545833333333e+01 8.86855882083429e-03 9.96374731593629e-05
1.40067500000000e+01 8.81770496865401e-03 9.92511331541961e-05
1.40589166666667e+01 8.76714272150854e-03 9.88656054581791e-05
1.41110833333333e+01 8.71687040692505e-03 9.84808974895177e-05
1.41632500000000e+01 8.66688636238160e-03 9.80970159815238e-05
1.42154166666667e+01 8.61718893523864e-03 9.77139680299913e-05
1.42675833333333e+01 8.56777648163332e-03 9.73317605759675e-05
1.43197500000000e+01 8.51864736747958e-03 9.69503998944402e-05
1.43719166666667e+01 8.46979996840092e-03 9.65698926180688e-05
1.44240833333333e+01 8.42123266865501e-03 9.61902452315454e-05
1.44762500000000e+01 8.37294386210525e-03 9.58114635717136e-05
1.45284166666667e+01 8.32493195215497e-03 9.54335538282700e-05
1.45805833333333e+01 8.27719535070121e-03 9.50565220494188e-05
1.46327500000000e+01 8.22973247907882e-03 9.46803736531554e-05
1.46849166666667e+01 8.18254176799592e-03 9.43051144055011e-05
1.47370833333333e+01 8.13562165651604e-03 9.39307499371682e-05
1.47892500000000e+01 8.08897059297559e-03 9.35572852657245e-05
1.48414166666667e+01 8.04258703492060e-03 9.31847257519481e-05
1.48935833333333e+01 7.99646944811632e-03 9.28130766272267e-05
1.49457500000000e+01 7.95061630743890e-03 9.24423425263540e-05
1.49979166666667e+01 7.90502609681336e-03 9.20725284225011e-05
1.50500833333333e+01 7.85969730824981e-03 9.17036391651027e-05
1.51022500000000e+01 7.81462844271020e-03 9.13356790230292e-05
1.51544166666667e+01 7.76981801004747e-03 9.09686525987008e-05
1.52065833333333e+01 7.72526452806761e-03 9.06025643762315e-05
1.52587500000000e+01 7.68096652337217e-03 9.02374182746891e-05
1.53109166666667e+01 7.63692253129869e-03 8.98732185419030e-05
1.53630833333333e+01 7.59313109500766e-03 8.95099693125763e-05
1.54152500000000e+01 7.54959076630174e-03 8.91476741714046e-05
1.54674166666667e+01 7.50630010556726e-03 8.87863370270855e-05
1.55195833333333e+01 7.46325768088544e-03 8.84259616801404e-05
1.55717500000000e+01 7.42046206882900e-03 8.80665513956631e-05
1.56239166666667e+01 7.37791185440472e-03 8.77081097580029e-05
1.56760833333333e+01 7.33560563018825e-03 8.73506402480865e-05
1.57282500000000e+01 7.29354199709865e-03 8.69941458255584e-05
1.57804166666667e+01 7.25171956434217e-03 8.66386297645828e-05
1.58325833333333e+01 7.21013694856980e-03 8.62840952404579e-05
1.58847500000000e+01 7.16879277463057e-03 8.59305449209204e-05
1.59369166666667e+01 7.12768567551638e-03 8.55779817835347e-05
1.59890833333333e+01 7.08681429154166e-03 8.52264087113537e-05
1.60412500000000e+01 7.04617727107610e-03 8.48758280931639e-05
1.60934166666667e+01 7.00577327049051e-03 8.45262426229310e-05
1.61455833333333e+01 6.96560095335795e-03 8.41776549042862e-05
1.61977500000000e+01 6.92565899116647e-03 8.38300670595058e-05
1.62499166666667e+01 6.88594606326599e-03 8.34834815114135e-05
1.63020833333333e+01 6.84646085609030e-03 8.31379005965007e-05
1.63542500000000e+01 6.80720206385040e-03 8.27933261824383e-05
1.64064166666667e+01 6.76816838848236e-03 8.24497604328622e-05
1.64585833333333e+01 6.72935853888961e-03 8.21072054289091e-05
