Energy (eV)          EEDF (eV^-(3/2))     First Anisotropy
5.00000000000000e-03 4.33201091005723e-01 3.09811945731969e-01
1.50000000000000e-02 4.02219896432527e-01 2.99714528006231e-01
2.50000000000000e-02 3.73258185404477e-01 2.41351521192842e-01
3.50000000000000e-02 3.53949592193958e-01 1.68954175188113e-01
4.50000000000000e-02 3.39467350366855e-01 1.30344143503967e-01
5.50000000000000e-02 3.27880763493165e-01 1.06214302427929e-01
6.50000000000000e-02 3.18224489881269e-01 8.96692661387485e-02
7.50000000000000e-02 3.09946910265415e-01 7.76061195416597e-02
8.50000000000000e-02 3.02703265972937e-01 6.84159489206621e-02
9.50000000000000e-02 2.96263720481283e-01 6.11793784511461e-02
1.05000000000000e-01 2.90467390282708e-01 5.53322480877330e-02
1.15000000000000e-01 2.85197270863736e-01 5.05089002739911e-02
1.25000000000000e-01 2.80365610227910e-01 4.64618142670639e-02
1.35000000000000e-01 2.75904908010323e-01 4.30174050858226e-02
1.45000000000000e-01 2.71762129210745e-01 4.00503065795962e-02
1.55000000000000e-01 2.67894846694404e-01 3.74677002025664e-02
1.65000000000000e-01 2.64268589170232e-01 3.51993875606282e-02
1.75000000000000e-01 2.60854969182279e-01 3.31912903073972e-02
1.85000000000000e-01 2.57630331108752e-01 3.14010711369625e-02
1.95000000000000e-01 2.54574754954886e-01 2.97951095394863e-02
2.05000000000000e-01 2.51671309200855e-01 2.83463670460578e-02
2.15000000000000e-01 2.48905481545674e-01 2.70328508561425e-02
2.25000000000000e-01 2.46264739029627e-01 2.58364888083372e-02
2.35000000000000e-01 2.43738183784007e-01 2.47422926424447e-02
2.45000000000000e-01 2.41316280501138e-01 2.37377268620431e-02
2.55000000000000e-01 2.38990638411598e-01 2.28122265559429e-02
2.65000000000000e-01 2.36753835189949e-01 2.19568247011062e-02
2.75000000000000e-01 2.34599273471377e-01 2.11638609941267e-02
2.85000000000000e-01 2.32521062991124e-01 2.04267521301817e-02
2.95000000000000e-01 2.30513923045341e-01 1.97398089104624e-02
3.05000000000000e-01 2.28573101209031e-01 1.90980894043033e-02
3.15000000000000e-01 2.26694305164480e-01 1.84972801355615e-02
3.25000000000000e-01 2.24873645181919e-01 1.79335992443584e-02
3.35000000000000e-01 2.23107585315608e-01 1.74037170231074e-02
3.45000000000000e-01 2.21392901777297e-01 1.69046902949606e-02
3.55000000000000e-01 2.19726647256616e-01 1.64339079003395e-02
3.65000000000000e-01 2.18106120197229e-01 1.59890451576541e-02
3.75000000000000e-01 2.16528838225086e-01 1.55680256203704e-02
3.85000000000000e-01 2.14992515073155e-01 1.51689888018351e-02
3.95000000000000e-01 2.13495040464719e-01 1.47902628087614e-02
4.05000000000000e-01 2.12034462511403e-01 1.44303410338187e-02
4.15000000000000e-01 2.10608972257955e-01 1.40878622217860e-02
4.25000000000000e-01 2.09216890067046e-01 1.37615933529260e-02
4.35000000000000e-01 2.07856653587370e-01 1.34504148897122e-02
4.45000000000000e-01 2.06526807089104e-01 1.31533080147296e-02
4.55000000000000e-01 2.05225991984424e-01 1.28693435530823e-02
4.65000000000000e-01 2.03952938378487e-01 1.25976723254687e-02
4.75000000000000e-01 2.02706457519330e-01 1.23375167208807e-02
4.85000000000000e-01 2.01485435034311e-01 1.20881633127358e-02
4.95000000000000e-01 2.00288824856783e-01 1.18489563707477e-02
5.05000000000000e-01 1.99115643760161e-01 1.16192921442644e-02
5.15000000000000e-01 1.97964966427930e-01 1.13986138121347e-02
5.25000000000000e-01 1.96835920997734e-01 1.11864070101524e-02
5.35000000000000e-01 1.95727685025899e-01 1.09821958604485e-02
5.45000000000000e-01 1.94639481825645e-01 1.07855394383165e-02
5.55000000000000e-01 1.93570577138236e-01 1.05960286212549e-02
5.65000000000000e-01 1.92520276101394e-01 1.04132832728450e-02
5.75000000000000e-01 1.91487920483667e-01 1.02369497206663e-02
5.85000000000000e-01 1.90472886157260e-01 1.00666984930452e-02
5.95000000000000e-01 1.89474580785058e-01 9.90222228416868e-03
6.05000000000000e-01 1.88492441700427e-01 9.74323412112274e-03
6.15000000000000e-01 1.87525933960834e-01 9.58946570985469e-03
6.25000000000000e-01 1.86574548558456e-01 9.44066594001314e-03
6.35000000000000e-01 1.85637800772831e-01 9.29659953114004e-03
6.45000000000000e-01 1.84715228652228e-01 9.15704580486398e-03
6.55000000000000e-01 1.83806391611858e-01 9.02179756962371e-03
6.65000000000000e-01 1.82910869138303e-01 8.89066010606940e-03
6.75000000000000e-01 1.82028259590644e-01 8.76345024269490e-03
6.85000000000000e-01 1.81158179089764e-01 8.63999551247635e-03
6.95000000000000e-01 1.80300260488149e-01 8.52013338235577e-03
7.05000000000000e-01 1.79454152413293e-01 8.40371054833006e-03
7.15000000000000e-01 1.78619518378483e-01 8.29058228972154e-03
7.25000000000000e-01 1.77796035955349e-01 8.18061187691246e-03
7.35000000000000e-01 1.76983396003100e-01 8.07367002745044e-03
7.45000000000000e-01 1.76181301949859e-01 7.96963440597792e-03
7.55000000000000e-01 1.75389469121905e-01 7.86838916391835e-03
7.65000000000000e-01 1.74607624117075e-01 7.76982451528213e-03
7.75000000000000e-01 1.73835504218848e-01 7.67383634532812e-03
7.85000000000000e-01 1.73072856848009e-01 7.58032584914942e-03
7.95000000000000e-01 1.72319439049019e-01 7.48919919754440e-03
8.05000000000000e-01 1.71575017008500e-01 7.40036722780599e-03
8.15000000000000e-01 1.70839365603457e-01 7.31374515728425e-03
8.25000000000000e-01 1.70112267977044e-01 7.22925231778623e-03
8.35000000000000e-01 1.69393515139900e-01 7.14681190907229e-03
8.45000000000000e-01 1.68682905595229e-01 7.06635076986095e-03
8.55000000000000e-01 1.67980244985928e-01 6.98779916491199e-03
8.65000000000000e-01 1.67285345762247e-01 6.91109058688216e-03
8.75000000000000e-01 1.66598026868551e-01 6.83616157177339e-03
8.85000000000000e-01 1.65918113447892e-01 6.76295152690062e-03
8.95000000000000e-01 1.65245436563171e-01 6.69140257039499e-03
9.05000000000000e-01 1.64579832933813e-01 6.62145938135350e-03
9.15000000000000e-01 1.63921144686901e-01 6.55306905981715e-03
9.25000000000000e-01 1.63269219121850e-01 6.48618099583595e-03
9.35000000000000e-01 1.62623908487733e-01 6.42074674694043e-03
9.45000000000000e-01 1.61985069772461e-01 6.35671992339562e-03
9.55000000000000e-01 1.61352564503054e-01 6.29405608066597e-03
9.65000000000000e-01 1.60726258556328e-01 6.23271261856947e-03
9.75000000000000e-01 1.60106021979340e-01 6.17264868664189e-03
9.85000000000000e-01 1.59491728819000e-01 6.11382509526512e-03
9.95000000000000e-01 1.58883256960287e-01 6.05620423215866e-03
1.00500000000000e+00 1.58280487972568e-01 5.99974998385919e-03
1.01500000000000e+00 1.57683306963516e-01 5.94442766184186e-03
1.02500000000000e+00 1.57091602440200e-01 5.89020393296932e-03
1.03500000000000e+00 1.56505266176922e-01 5.83704675397326e-03
1.04500000000000e+00 1.55924193089405e-01 5.78492530970059e-03
1.05500000000000e+00 1.55348281114982e-01 5.73380995487219e-03
1.06500000000000e+00 1.54777431098431e-01 5.68367215912371e-03
1.07500000000000e+00 1.54211546683157e-01 5.63448445511802e-03
1.08500000000000e+00 1.53650534207407e-01 5.58622038952475e-03
1.09500000000000e+00 1.53094302605252e-01 5.53885447668795e-03
1.10500000000000e+00 1.52542763312070e-01 5.49236215481197e-03
1.11500000000000e+00 1.51995830174290e-01 5.44671974450447e-03
1.12500000000000e+00 1.51453419363169e-01 5.40190440953298e-03
1.13500000000000e+00 1.50915449292383e-01 5.35789411965554e-03
1.14500000000000e+00 1.50381840539238e-01 5.31466761540006e-03
1.15500000000000e+00 1.49852515769303e-01 5.27220437467585e-03
1.16500000000000e+00 1.49327399664302e-01 5.23048458110242e-03
1.17500000000000e+00 1.48806418853082e-01 5.18948909395772e-03
1.18500000000000e+00 1.48289501845511e-01 5.14919941964995e-03
1.19500000000000e+00 1.47776578969152e-01 5.10959768462188e-03
1.20500000000000e+00 1.47267582308586e-01 5.07066660960342e-03
1.21500000000000e+00 1.46762445647232e-01 5.03238948513729e-03
1.22500000000000e+00 1.46261104411559e-01 4.99475014830442e-03
1.23500000000000e+00 1.45763495617571e-01 4.95773296057919e-03
1.24500000000000e+00 1.45269557819443e-01 4.92132278675367e-03
1.25500000000000e+00 1.44779231060220e-01 4.88550497487056e-03
1.26500000000000e+00 1.44292456824469e-01 4.85026533710672e-03
1.27500000000000e+00 1.43809177992799e-01 4.81559013155664e-03
1.28500000000000e+00 1.43329338798158e-01 4.78146604486904e-03
1.29500000000000e+00 1.42852884783825e-01 4.74788017568659e-03
1.30500000000000e+00 1.42379762763020e-01 4.71482001884724e-03
1.31500000000000e+00 1.41909920780056e-01 4.68227345030742e-03
1.32500000000000e+00 1.41443308072959e-01 4.65022871274853e-03
1.33500000000000e+00 1.40979875037506e-01 4.61867440183075e-03
1.34500000000000e+00 1.40519573192593e-01 4.58759945305948e-03
1.35500000000000e+00 1.40062355146894e-01 4.55699312923386e-03
1.36500000000000e+00 1.39608174566746e-01 4.52684500844749e-03
1.37500000000000e+00 1.39156986145204e-01 4.49714497261375e-03
1.38500000000000e+00 1.38708745572223e-01 4.46788319648839e-03
1.39500000000000e+00 1.38263409505907e-01 4.43905013716189e-03
1.40500000000000e+00 1.37820935544791e-01 4.41063652400403e-03
1.41500000000000e+00 1.37381282201106e-01 4.38263334903502e-03
1.42500000000000e+00 1.36944408874984e-01 4.35503185769917e-03
1.43500000000000e+00 1.36510275829566e-01 4.32782354002778e-03
1.44500000000000e+00 1.36078844166978e-01 4.30100012216716e-03
1.45500000000000e+00 1.35650075805133e-01 4.27455355825765e-03
1.46500000000000e+00 1.35223933455327e-01 4.24847602264494e-03
1.47500000000000e+00 1.34800380600604e-01 4.22275990240695e-03
1.48500000000000e+00 1.34379381474845e-01 4.19739779018602e-03
1.49500000000000e+00 1.33960901042566e-01 4.17238247730517e-03
1.50500000000000e+00 1.33544904979384e-01 4.14770694716168e-03
1.51500000000000e+00 1.33131359653134e-01 4.12336436888219e-03
1.52500000000000e+00 1.32720232105608e-01 4.09934809122520e-03
1.53500000000000e+00 1.32311490034889e-01 4.07565163672546e-03
1.54500000000000e+00 1.31905101778263e-01 4.05226869606409e-03
1.55500000000000e+00 1.31501036295676e-01 4.02919312265534e-03
1.56500000000000e+00 1.31099263153732e-01 4.00641892744344e-03
1.57500000000000e+00 1.30699752510188e-01 3.98394027389504e-03
1.58500000000000e+00 1.30302475098953e-01 3.96175147318253e-03
1.59500000000000e+00 1.29907402215551e-01 3.93984697955013e-03
1.60500000000000e+00 1.29514505703043e-01 3.91822138585032e-03
1.61500000000000e+00 1.29123757938381e-01 3.89686941924913e-03
1.62500000000000e+00 1.28735131819193e-01 3.87578593708721e-03
1.63500000000000e+00 1.28348600750964e-01 3.85496592289564e-03
1.64500000000000e+00 1.27964138634614e-01 3.83440448255695e-03
1.65500000000000e+00 1.27581719854452e-01 3.81409684060266e-03
1.66500000000000e+00 1.27201319266493e-01 3.79403833664652e-03
1.67500000000000e+00 1.26822912187123e-01 3.77422442194561e-03
1.68500000000000e+00 1.26446474382104e-01 3.75465065608371e-03
1.69500000000000e+00 1.26071982055906e-01 3.73531270377134e-03
1.70500000000000e+00 1.25699411841350e-01 3.71620633176015e-03
1.71500000000000e+00 1.25328740789554e-01 3.69732740586388e-03
1.72500000000000e+00 1.24959946360177e-01 3.67867188808331e-03
1.73500000000000e+00 1.24593006411937e-01 3.66023583383120e-03
1.74500000000000e+00 1.24227899193411e-01 3.64201538925198e-03
1.75500000000000e+00 1.23864603334087e-01 3.62400678863416e-03
1.76500000000000e+00 1.23503097835684e-01 3.60620635191031e-03
1.77500000000000e+00 1.23143362063705e-01 3.58861048224121e-03
1.78500000000000e+00 1.22785375739236e-01 3.57121566368163e-03
1.79500000000000e+00 1.22429118930969e-01 3.55401845892368e-03
1.80500000000000e+00 1.22074572047451e-01 3.53701550711634e-03
1.81500000000000e+00 1.21721715829545e-01 3.52020352175617e-03
1.82500000000000e+00 1.21370531343100e-01 3.50357928864779e-03
1.83500000000000e+00 1.21020999971816e-01 3.48713966393112e-03
1.84500000000000e+00 1.20673103410314e-01 3.47088157217235e-03
1.85500000000000e+00 1.20326823657381e-01 3.45480200451810e-03
1.86500000000000e+00 1.19982143009410e-01 3.43889801690700e-03
1.87500000000000e+00 1.19639044054000e-01 3.42316672833978e-03
1.88500000000000e+00 1.19297509663742e-01 3.40760531920448e-03
1.89500000000000e+00 1.18957522990159e-01 3.39221102965463e-03
1.90500000000000e+00 1.18619067457811e-01 3.37698115803815e-03
1.91500000000000e+00 1.18282126758551e-01 3.36191305937546e-03
1.92500000000000e+00 1.17946684845936e-01 3.34700414388635e-03
1.93500000000000e+00 1.17612725929774e-01 3.33225187556158e-03
1.94500000000000e+00 1.17280234470824e-01 3.31765377077735e-03
1.95500000000000e+00 1.16949195175619e-01 3.30320739695467e-03
1.96500000000000e+00 1.16619592991433e-01 3.28891037125884e-03
1.97500000000000e+00 1.16291413101367e-01 3.27476035933742e-03
1.98500000000000e+00 1.15964640919565e-01 3.26075507409825e-03
1.99500000000000e+00 1.15639262086547e-01 3.24689227452254e-03
2.00500000000000e+00 1.15315262464661e-01 3.23316976451417e-03
2.01500000000000e+00 1.14992628133644e-01 3.21958539178366e-03
2.02500000000000e+00 1.14671345386304e-01 3.20613704676530e-03
2.03500000000000e+00 1.14351400724291e-01 3.19282266156538e-03
2.04500000000000e+00 1.14032780853991e-01 3.17964020894124e-03
2.05500000000000e+00 1.13715472682503e-01 3.16658770131206e-03
2.06500000000000e+00 1.13399463313728e-01 3.15366318979639e-03
2.07500000000000e+00 1.13084740044544e-01 3.14086476327739e-03
2.08500000000000e+00 1.12771290361073e-01 3.12819054749724e-03
2.09500000000000e+00 1.12459101935044e-01 3.11563870417537e-03
2.10500000000000e+00 1.12148162620238e-01 3.10320743015222e-03
2.11500000000000e+00 1.11838460449014e-01 3.09089495655786e-03
2.12500000000000e+00 1.11529983628926e-01 3.07869954800519e-03
2.13500000000000e+00 1.11222720539413e-01 3.06661950180351e-03
2.14500000000000e+00 1.10916659728566e-01 3.05465314719484e-03
2.15500000000000e+00 1.10611789909974e-01 3.04279884461259e-03
2.16500000000000e+00 1.10308099959643e-01 3.03105498495944e-03
2.17500000000000e+00 1.10005578912982e-01 3.01941998890623e-03
2.18500000000000e+00 1.09704215961862e-01 3.00789230620886e-03
2.19500000000000e+00 1.09404000451740e-01 2.99647041504585e-03
2.20500000000000e+00 1.09104921878853e-01 2.98515282137313e-03
2.21500000000000e+00 1.08806969887466e-01 2.97393805829431e-03
2.22500000000000e+00 1.08510134267194e-01 2.96282468544996e-03
2.23500000000000e+00 1.08214404950376e-01 2.95181128842442e-03
2.24500000000000e+00 1.07919772009509e-01 2.94089647816652e-03
2.25500000000000e+00 1.07626225654742e-01 2.93007889042532e-03
2.26500000000000e+00 1.07333756231424e-01 2.91935718520209e-03
2.27500000000000e+00 1.07042354217702e-01 2.90873004621717e-03
2.28500000000000e+00 1.06752010222180e-01 2.89819618038971e-03
2.29500000000000e+00 1.06462714981624e-01 2.88775431733029e-03
2.30500000000000e+00 1.06174459358714e-01 2.87740320884994e-03
2.31500000000000e+00 1.05887234339854e-01 2.86714162847826e-03
2.32500000000000e+00 1.05601031033019e-01 2.85696837099565e-03
2.33500000000000e+00 1.05315840665655e-01 2.84688225197921e-03
2.34500000000000e+00 1.05031654582623e-01 2.83688210735662e-03
2.35500000000000e+00 1.04748464244184e-01 2.82696679297381e-03
2.36500000000000e+00 1.04466261224028e-01 2.81713518417312e-03
2.37500000000000e+00 1.04185037207349e-01 2.80738617538301e-03
2.38500000000000e+00 1.03904783988952e-01 2.79771867971707e-03
2.39500000000000e+00 1.03625493471406e-01 2.78813162858202e-03
2.40500000000000e+00 1.03347157663235e-01 2.77862397129777e-03
2.41500000000000e+00 1.03069768677146e-01 2.76919467472637e-03
2.42500000000000e+00 1.02793318728290e-01 2.75984272290836e-03
2.43500000000000e+00 1.02517800132564e-01 2.75056711670989e-03
2.44500000000000e+00 1.02243205304948e-01 2.74136687347867e-03
2.45500000000000e+00 1.01969526757869e-01 2.73224102670735e-03
2.46500000000000e+00 1.01696757099606e-01 2.72318862570564e-03
2.47500000000000e+00 1.01424889032727e-01 2.71420873527974e-03
2.48500000000000e+00 1.01153915352550e-01 2.70530043542001e-03
2.49500000000000e+00 1.00883828945643e-01 2.69646282099710e-03
2.50500000000000e+00 1.00614622788351e-01 2.68769500146392e-03
2.51500000000000e+00 1.00346289945351e-01 2.67899610056417e-03
2.52500000000000e+00 1.00078823568238e-01 2.67036525605051e-03
2.53500000000000e+00 9.98122168941406e-02 2.66180161940709e-03
2.54500000000000e+00 9.95464632443568e-02 2.65330435557876e-03
2.55500000000000e+00 9.92815560230249e-02 2.64487264270793e-03
2.56500000000000e+00 9.90174887158152e-02 2.63650567187690e-03
2.57500000000000e+00 9.87542548886495e-02 2.62820264685534e-03
2.58500000000000e+00 9.84918481864441e-02 2.61996278385537e-03
2.59500000000000e+00 9.82302623318784e-02 2.61178531129155e-03
2.60500000000000e+00 9.79694911241858e-02 2.60366946954478e-03
2.61500000000000e+00 9.77095284379694e-02 2.59561451073441e-03
2.62500000000000e+00 9.74503682220390e-02 2.58761969849461e-03
2.63500000000000e+00 9.71920044982705e-02 2.57968430775420e-03
2.64500000000000e+00 9.69344313604881e-02 2.57180762452333e-03
2.65500000000000e+00 9.66776429733659e-02 2.56398894568494e-03
2.66500000000000e+00 9.64216335713511e-02 2.55622757878965e-03
2.67500000000000e+00 9.61663974576079e-02 2.54852284185654e-03
2.68500000000000e+00 9.59119290029798e-02 2.54087406317750e-03
2.69500000000000e+00 9.56582226449724e-02 2.53328058112630e-03
2.70500000000000e+00 9.54052728867546e-02 2.52574174397280e-03
2.71500000000000e+00 9.51530742961779e-02 2.51825690969931e-03
2.72500000000000e+00 9.49016215048147e-02 2.51082544582205e-03
2.73500000000000e+00 9.46509092070135e-02 2.50344672921739e-03
2.74500000000000e+00 9.44009321589712e-02 2.49612014595085e-03
2.75500000000000e+00 9.41516851778233e-02 2.48884509110960e-03
2.76500000000000e+00 9.39031631407493e-02 2.48162096863944e-03
2.77500000000000e+00 9.36553609840954e-02 2.47444719118424e-03
2.78500000000000e+00 9.34082737025125e-02 2.46732317993048e-03
2.79500000000000e+00 9.31618963481093e-02 2.46024836445355e-03
2.80500000000000e+00 9.29162240296217e-02 2.45322218256766e-03
2.81500000000000e+00 9.26712519115958e-02 2.44624408018083e-03
2.82500000000000e+00 9.24269752135856e-02 2.43931351114959e-03
2.83500000000000e+00 9.21833892093658e-02 2.43242993713928e-03
2.84500000000000e+00 9.19404892261577e-02 2.42559282748654e-03
2.85500000000000e+00 9.16982706438685e-02 2.41880165906504e-03
2.86500000000000e+00 9.14567288943447e-02 2.41205591615314e-03
2.87500000000000e+00 9.12158594606379e-02 2.40535509030519e-03
2.88500000000000e+00 9.09756578762837e-02 2.39869868022560e-03
2.89500000000000e+00 9.07361197245928e-02 2.39208619164447e-03
2.90500000000000e+00 9.04972406379548e-02 2.38551713719726e-03
2.91500000000000e+00 9.02590162971533e-02 2.37899103630493e-03
2.92500000000000e+00 9.00214424306938e-02 2.37250741505865e-03
2.93500000000000e+00 8.97845148141416e-02 2.36606580610636e-03
2.94500000000000e+00 8.95482292694725e-02 2.35966574854023e-03
2.95500000000000e+00 8.93125816644336e-02 2.35330678778838e-03
2.96500000000000e+00 8.90775679119148e-02 2.34698847550729e-03
2.97500000000000e+00 8.88431839693321e-02 2.34071036947697e-03
2.98500000000000e+00 8.86094258380195e-02 2.33447203349856e-03
2.99500000000000e+00 8.83762895626324e-02 2.32827303729345e-03
3.00500000000000e+00 8.81437712305608e-02 2.32211295640439e-03
3.01500000000000e+00 8.79118669713515e-02 2.31599137209937e-03
3.02500000000000e+00 8.76805729561409e-02 2.30990787127613e-03
3.03500000000000e+00 8.74498853970963e-02 2.30386204636987e-03
3.04500000000000e+00 8.72198005468669e-02 2.29785349526244e-03
3.05500000000000e+00 8.69903146980438e-02 2.29188182119179e-03
3.06500000000000e+00 8.67614241826286e-02 2.28594663266579e-03
3.07500000000000e+00 8.65331253715106e-02 2.28004754337541e-03
3.08500000000000e+00 8.63054146739535e-02 2.27418417211141e-03
3.09500000000000e+00 8.60782885370884e-02 2.26835614268166e-03
3.10500000000000e+00 8.58517434454171e-02 2.26256308382980e-03
3.11500000000000e+00 8.56257759203224e-02 2.25680462915580e-03
3.12500000000000e+00 8.54003825195860e-02 2.25108041703899e-03
3.13500000000000e+00 8.51755598369146e-02 2.24539009056161e-03
3.14500000000000e+00 8.49513045014737e-02 2.23973329743270e-03
3.15500000000000e+00 8.47276131774281e-02 2.23410968991616e-03
