Energy (eV)          EEDF (eV^-(3/2))     First Anisotropy
2.50000000000000e-03 4.72212839468166e-01 5.99916155677120e-01
7.50000000000000e-03 4.42217031684310e-01 5.89457821357435e-01
1.25000000000000e-02 4.13267057332423e-01 4.82501600293052e-01
1.75000000000000e-02 3.93966871655005e-01 3.37755364099836e-01
2.25000000000000e-02 3.79491520922439e-01 2.60558454783965e-01
2.75000000000000e-02 3.67911026176608e-01 2.12311213549656e-01
3.25000000000000e-02 3.58260399567473e-01 1.79228055722861e-01
3.75000000000000e-02 3.49988220604322e-01 1.55105472464025e-01
4.25000000000000e-02 3.42749852321071e-01 1.36726832172573e-01
4.75000000000000e-02 3.36315537387065e-01 1.22254061370516e-01
5.25000000000000e-02 3.30524446184019e-01 1.10559252530369e-01
5.75000000000000e-02 3.25259612134028e-01 1.00911355344356e-01
6.25000000000000e-02 3.20433310649584e-01 9.28155056376584e-02
6.75000000000000e-02 3.15978061570262e-01 8.59246563054800e-02
7.25000000000000e-02 3.11840845019036e-01 7.99881626077076e-02
7.75000000000000e-02 3.07979245309491e-01 7.48204513475298e-02
8.25000000000000e-02 3.04358799884283e-01 7.02811733023201e-02
8.75000000000000e-02 3.00951127979259e-01 6.62622077985470e-02
9.25000000000000e-02 2.97732579104428e-01 6.26789079041734e-02
9.75000000000000e-02 2.94683237188842e-01 5.94640541433977e-02
1.02500000000000e-01 2.91786173690088e-01 5.65635865333869e-02
1.07500000000000e-01 2.89026878535503e-01 5.39335329461788e-02
1.12500000000000e-01 2.86392820395470e-01 5.15377598558808e-02
1.17500000000000e-01 2.83873102549915e-01 4.93462994581922e-02
1.22500000000000e-01 2.81458190449651e-01 4.73340878415696e-02
1.27500000000000e-01 2.79139693765758e-01 4.54800009684581e-02
1.32500000000000e-01 2.76910190352805e-01 4.37661095406727e-02
1.37500000000000e-01 2.74763082811691e-01 4.21770968635071e-02
1.42500000000000e-01 2.72692480666455e-01 4.06997995610303e-02
1.47500000000000e-01 2.70693102855588e-01 3.93228419151714e-02
1.52500000000000e-01 2.68760196474937e-01 3.80363422887897e-02
1.57500000000000e-01 2.66889468626709e-01 3.68316755776382e-02
1.62500000000000e-01 2.65077028917174e-01 3.57012795977579e-02
1.67500000000000e-01 2.63319340666933e-01 3.46384962094343e-02
1.72500000000000e-01 2.61613179296230e-01 3.36374401164846e-02
1.77500000000000e-01 2.59955596655285e-01 3.26928898741408e-02
1.82500000000000e-01 2.58343890308816e-01 3.18001968392323e-02
1.87500000000000e-01 2.56775576971362e-01 3.09552087081627e-02
1.92500000000000e-01 2.55248369438000e-01 3.01542049864267e-02
1.97500000000000e-01 2.53760156472719e-01 2.93938422722056e-02
2.02500000000000e-01 2.52308985210779e-01 2.86711076555007e-02
2.07500000000000e-01 2.50893045707169e-01 2.79832788622064e-02
2.12500000000000e-01 2.49510657324559e-01 2.73278900308152e-02
2.17500000000000e-01 2.48160256704087e-01 2.67027022143104e-02
2.22500000000000e-01 2.46840387103128e-01 2.61056778631544e-02
2.27500000000000e-01 2.45549688917772e-01 2.55349586762349e-02
2.32500000000000e-01 2.44286891235504e-01 2.49888463122613e-02
2.37500000000000e-01 2.43050804286546e-01 2.44657855396607e-02
2.42500000000000e-01 2.41840312681538e-01 2.39643494727076e-02
2.47500000000000e-01 2.40654369339275e-01 2.34832265985935e-02
2.52500000000000e-01 2.39491990021679e-01 2.30212093469770e-02
2.57500000000000e-01 2.38352248404577e-01 2.25771839921995e-02
2.62500000000000e-01 2.37234271622459e-01 2.21501217103215e-02
2.67500000000000e-01 2.36137236233545e-01 2.17390706397702e-02
2.72500000000000e-01 2.35060364558482e-01 2.13431488166080e-02
2.77500000000000e-01 2.34002921351884e-01 2.09615378740230e-02
2.82500000000000e-01 2.32964210771079e-01 2.05934774113059e-02
2.87500000000000e-01 2.31943573610754e-01 2.02382599507436e-02
2.92500000000000e-01 2.30940384776005e-01 1.98952264120417e-02
2.97500000000000e-01 2.29954050969550e-01 1.95637620433628e-02
3.02500000000000e-01 2.28984008571669e-01 1.92432927561045e-02
3.07500000000000e-01 2.28029721693939e-01 1.89332818174370e-02
3.12500000000000e-01 2.27090680389925e-01 1.86332268605172e-02
3.17500000000000e-01 2.26166399007887e-01 1.83426571773404e-02
3.22500000000000e-01 2.25256414672191e-01 1.80611312635326e-02
3.27500000000000e-01 2.24360285881534e-01 1.77882345881447e-02
3.32500000000000e-01 2.23477591213377e-01 1.75235775647684e-02
3.37500000000000e-01 2.22607928125057e-01 1.72667937030629e-02
3.42500000000000e-01 2.21750911843070e-01 1.70175379222601e-02
3.47500000000000e-01 2.20906174332831e-01 1.67754850103322e-02
3.52500000000000e-01 2.20073363342037e-01 1.65403282143456e-02
3.57500000000000e-01 2.19252141511397e-01 1.63117779491428e-02
3.62500000000000e-01 2.18442185547123e-01 1.60895606129394e-02
3.67500000000000e-01 2.17643185450103e-01 1.58734174996447e-02
3.72500000000000e-01 2.16854843797158e-01 1.56631037988039e-02
3.77500000000000e-01 2.16076875070222e-01 1.54583876750505e-02
3.82500000000000e-01 2.15309005029653e-01 1.52590494197843e-02
3.87500000000000e-01 2.14550970128244e-01 1.50648806685405e-02
3.92500000000000e-01 2.13802516962799e-01 1.48756836782007e-02
3.97500000000000e-01 2.13063401760424e-01 1.46912706587757e-02
4.02500000000000e-01 2.12333389896922e-01 1.45114631550025e-02
4.07500000000000e-01 2.11612255444924e-01 1.43360914734864e-02
4.12500000000000e-01 2.10899780749573e-01 1.41649941515198e-02
4.17500000000000e-01 2.10195756029772e-01 1.39980174640755e-02
4.22500000000000e-01 2.09499979003165e-01 1.38350149658192e-02
4.27500000000000e-01 2.08812254533190e-01 1.36758470652745e-02
4.32500000000000e-01 2.08132394296638e-01 1.35203806285267e-02
4.37500000000000e-01 2.07460216470337e-01 1.33684886101129e-02
4.42500000000000e-01 2.06795545435627e-01 1.32200497089480e-02
4.47500000000000e-01 2.06138211499442e-01 1.30749480473163e-02
4.52500000000000e-01 2.05488050630895e-01 1.29330728711527e-02
4.57500000000000e-01 2.04844904212327e-01 1.27943182699816e-02
4.62500000000000e-01 2.04208618803897e-01 1.26585829150305e-02
4.67500000000000e-01 2.03579045920824e-01 1.25257698141509e-02
4.72500000000000e-01 2.02956041822482e-01 1.23957860823065e-02
4.77500000000000e-01 2.02339467312593e-01 1.22685427264818e-02
4.82500000000000e-01 2.01729187549834e-01 1.21439544439653e-02
4.87500000000000e-01 2.01125071868197e-01 1.20219394330548e-02
4.92500000000000e-01 2.00526993606528e-01 1.19024192152933e-02
4.97500000000000e-01 1.99934829946667e-01 1.17853184684250e-02
5.02500000000000e-01 1.99348461759686e-01 1.16705648693269e-02
5.07500000000000e-01 1.98767773459735e-01 1.15580889462327e-02
5.12500000000000e-01 1.98192652865062e-01 1.14478239396060e-02
5.17500000000000e-01 1.97622991065774e-01 1.13397056710757e-02
5.22500000000000e-01 1.97058682297955e-01 1.12336724199030e-02
5.27500000000000e-01 1.96499623823784e-01 1.11296648064763e-02
5.32500000000000e-01 1.95945715817307e-01 1.10276256823685e-02
5.37500000000000e-01 1.95396861255547e-01 1.09275000265358e-02
5.42500000000000e-01 1.94852965814654e-01 1.08292348472541e-02
5.47500000000000e-01 1.94313937770822e-01 1.07327790894313e-02
5.52500000000000e-01 1.93779687905710e-01 1.06380835469541e-02
5.57500000000000e-01 1.93250129416126e-01 1.05451007797505e-02
5.62500000000000e-01 1.92725177827735e-01 1.04537850352798e-02
5.67500000000000e-01 1.92204750912598e-01 1.03640921741738e-02
5.72500000000000e-01 1.91688768610318e-01 1.02759795997698e-02
5.77500000000000e-01 1.91177152952621e-01 1.01894061913094e-02
5.82500000000000e-01 1.90669827991187e-01 1.01043322405792e-02
5.87500000000000e-01 1.90166719728563e-01 1.00207193917881e-02
5.92500000000000e-01 1.89667756052008e-01 9.93853058448652e-03
5.97500000000000e-01 1.89172866670115e-01 9.85772999934964e-03
6.02500000000000e-01 1.88681983052073e-01 9.77828300666672e-03
6.07500000000000e-01 1.88195038369448e-01 9.70015611737512e-03
6.12500000000000e-01 1.87711967440336e-01 9.62331693648760e-03
6.17500000000000e-01 1.87232706675799e-01 9.54773411878634e-03
6.22500000000000e-01 1.86757194028457e-01 9.47337732665005e-03
6.27500000000000e-01 1.86285368943134e-01 9.40021718990131e-03
6.32500000000000e-01 1.85817172309467e-01 9.32822526755778e-03
6.37500000000000e-01 1.85352546416378e-01 9.25737401138049e-03
6.42500000000000e-01 1.84891434908329e-01 9.18763673112777e-03
6.47500000000000e-01 1.84433782743266e-01 9.11898756142088e-03
6.52500000000000e-01 1.83979536152187e-01 9.05140143012739e-03
6.57500000000000e-01 1.83528642600253e-01 8.98485402819310e-03
6.62500000000000e-01 1.83081050749368e-01 8.91932178083754e-03
6.67500000000000e-01 1.82636710422169e-01 8.85478182004462e-03
6.72500000000000e-01 1.82195572567363e-01 8.79121195828281e-03
6.77500000000000e-01 1.81757589226341e-01 8.72859066338660e-03
6.82500000000000e-01 1.81322713501024e-01 8.66689703454326e-03
6.87500000000000e-01 1.80890899522887e-01 8.60611077932699e-03
6.92500000000000e-01 1.80462102423092e-01 8.54621219173124e-03
6.97500000000000e-01 1.80036278303713e-01 8.48718213113941e-03
7.02500000000000e-01 1.79613384209978e-01 8.42900200220209e-03
7.07500000000000e-01 1.79193378103493e-01 8.37165373556326e-03
7.12500000000000e-01 1.78776218836422e-01 8.31511976939703e-03
7.17500000000000e-01 1.78361866126553e-01 8.25938303171819e-03
7.22500000000000e-01 1.77950280533250e-01 8.20442692342938e-03
7.27500000000000e-01 1.77541423434211e-01 8.15023530206266e-03
7.32500000000000e-01 1.77135257003043e-01 8.09679246619205e-03
7.37500000000000e-01 1.76731744187591e-01 8.04408314047850e-03
7.42500000000000e-01 1.76330848688996e-01 7.99209246131582e-03
7.47500000000000e-01 1.75932534941460e-01 7.94080596305952e-03
7.52500000000000e-01 1.75536768092690e-01 7.89020956479952e-03
7.57500000000000e-01 1.75143513984980e-01 7.84028955765959e-03
7.62500000000000e-01 1.74752739136924e-01 7.79103259259173e-03
7.67500000000000e-01 1.74364410725721e-01 7.74242566865396e-03
7.72500000000000e-01 1.73978496570058e-01 7.69445612174319e-03
7.77500000000000e-01 1.73594965113546e-01 7.64711161375720e-03
7.82500000000000e-01 1.73213785408683e-01 7.60038012217745e-03
7.87500000000000e-01 1.72834927101329e-01 7.55424993004572e-03
7.92500000000000e-01 1.72458360415678e-01 7.50870961632205e-03
7.97500000000000e-01 1.72084056139696e-01 7.46374804660777e-03
8.02500000000000e-01 1.71711985611017e-01 7.41935436421009e-03
8.07500000000000e-01 1.71342120703275e-01 7.37551798153824e-03
8.12500000000000e-01 1.70974433812863e-01 7.33222857182525e-03
8.17500000000000e-01 1.70608897846093e-01 7.28947606114833e-03
8.22500000000000e-01 1.70245486206749e-01 7.24725062073939e-03
8.27500000000000e-01 1.69884172784019e-01 7.20554265957629e-03
8.32500000000000e-01 1.69524931940791e-01 7.16434281723966e-03
8.37500000000000e-01 1.69167738502295e-01 7.12364195702669e-03
8.42500000000000e-01 1.68812567745088e-01 7.08343115931237e-03
8.47500000000000e-01 1.68459395386364e-01 7.04370171514312e-03
8.52500000000000e-01 1.68108197573574e-01 7.00444512005294e-03
8.57500000000000e-01 1.67758950874358e-01 6.96565306810254e-03
8.62500000000000e-01 1.67411632266764e-01 6.92731744612179e-03
8.67500000000000e-01 1.67066219129746e-01 6.88943032815220e-03
8.72500000000000e-01 1.66722689233948e-01 6.85198397008174e-03
8.77500000000000e-01 1.66381020732738e-01 6.81497080445903e-03
8.82500000000000e-01 1.66041192153503e-01 6.77838343548925e-03
8.87500000000000e-01 1.65703182389189e-01 6.74221463419528e-03
8.92500000000000e-01 1.65366970690083e-01 6.70645733374359e-03
8.97500000000000e-01 1.65032536655815e-01 6.67110462492765e-03
9.02500000000000e-01 1.64699860227590e-01 6.63614975179805e-03
9.07500000000000e-01 1.64368921680635e-01 6.60158610743672e-03
9.12500000000000e-01 1.64039701616847e-01 6.56740722987548e-03
9.17500000000000e-01 1.63712180957647e-01 6.53360679814391e-03
9.22500000000000e-01 1.63386340937032e-01 6.50017862844437e-03
9.27500000000000e-01 1.63062163094803e-01 6.46711667045524e-03
9.32500000000000e-01 1.62739629269987e-01 6.43441500375069e-03
9.37500000000000e-01 1.62418721594428e-01 6.40206783433572e-03
9.42500000000000e-01 1.62099422486553e-01 6.37006949128854e-03
9.47500000000000e-01 1.61781714645299e-01 6.33841442351429e-03
9.52500000000000e-01 1.61465581044202e-01 6.30709719659839e-03
9.57500000000000e-01 1.61151004925639e-01 6.27611248975729e-03
9.62500000000000e-01 1.60837969795226e-01 6.24545509288615e-03
9.67500000000000e-01 1.60526459416351e-01 6.21511990369861e-03
9.72500000000000e-01 1.60216457804856e-01 6.18510192495175e-03
9.77500000000000e-01 1.59907949223855e-01 6.15539626175943e-03
9.82500000000000e-01 1.59600918178680e-01 6.12599811898762e-03
9.87500000000000e-01 1.59295349411957e-01 6.09690279872704e-03
9.92500000000000e-01 1.58991227898807e-01 6.06810569784177e-03
9.97500000000000e-01 1.58688538842172e-01 6.03960230559336e-03
1.00250000000000e+00 1.58387267668248e-01 6.01138820133740e-03
1.00750000000000e+00 1.58087400022039e-01 5.98345905228476e-03
1.01250000000000e+00 1.57788921763020e-01 5.95581061133138e-03
1.01750000000000e+00 1.57491818960906e-01 5.92843871495247e-03
1.02250000000000e+00 1.57196077891524e-01 5.90133928115688e-03
1.02750000000000e+00 1.56901685032790e-01 5.87450830750541e-03
1.03250000000000e+00 1.56608627060774e-01 5.84794186918119e-03
1.03750000000000e+00 1.56316890845872e-01 5.82163611711650e-03
1.04250000000000e+00 1.56026463449062e-01 5.79558727617863e-03
1.04750000000000e+00 1.55737332118254e-01 5.76979164340380e-03
1.05250000000000e+00 1.55449484284722e-01 5.74424558627856e-03
1.05750000000000e+00 1.55162907559626e-01 5.71894554107694e-03
1.06250000000000e+00 1.54877589730614e-01 5.69388801124115e-03
1.06750000000000e+00 1.54593518758502e-01 5.66906956580820e-03
1.07250000000000e+00 1.54310682774033e-01 5.64448683787688e-03
1.07750000000000e+00 1.54029070074714e-01 5.62013652312149e-03
1.08250000000000e+00 1.53748669121721e-01 5.59601537834881e-03
1.08750000000000e+00 1.53469468536879e-01 5.57212022008785e-03
1.09250000000000e+00 1.53191457099712e-01 5.54844792322456e-03
1.09750000000000e+00 1.52914623744557e-01 5.52499541967261e-03
1.10250000000000e+00 1.52638957557745e-01 5.50175969707800e-03
1.10750000000000e+00 1.52364447774849e-01 5.47873779756070e-03
1.11250000000000e+00 1.52091083777989e-01 5.45592681648888e-03
1.11750000000000e+00 1.51818855093200e-01 5.43332390128853e-03
1.12250000000000e+00 1.51547751387860e-01 5.41092625028355e-03
1.12750000000000e+00 1.51277762468172e-01 5.38873111156440e-03
1.13250000000000e+00 1.51008878276704e-01 5.36673578189095e-03
1.13750000000000e+00 1.50741088889983e-01 5.34493760562193e-03
1.14250000000000e+00 1.50474384516142e-01 5.32333397367135e-03
1.14750000000000e+00 1.50208755492616e-01 5.30192232249316e-03
1.15250000000000e+00 1.49944192283892e-01 5.28070013309484e-03
1.15750000000000e+00 1.49680685479306e-01 5.25966493007429e-03
1.16250000000000e+00 1.49418225790885e-01 5.23881428068140e-03
1.16750000000000e+00 1.49156804051238e-01 5.21814579390295e-03
1.17250000000000e+00 1.48896411211494e-01 5.19765711957332e-03
1.17750000000000e+00 1.48637038339281e-01 5.17734594750713e-03
1.18250000000000e+00 1.48378676616744e-01 5.15721000665131e-03
1.18750000000000e+00 1.48121317338616e-01 5.13724706426327e-03
1.19250000000000e+00 1.47864951910317e-01 5.11745492510679e-03
1.19750000000000e+00 1.47609571846105e-01 5.09783143066683e-03
1.20250000000000e+00 1.47355168767251e-01 5.07837445838655e-03
1.20750000000000e+00 1.47101734400266e-01 5.05908192092314e-03
1.21250000000000e+00 1.46849260575158e-01 5.03995176542066e-03
1.21750000000000e+00 1.46597739223724e-01 5.02098197280004e-03
1.22250000000000e+00 1.46347162377878e-01 5.00217055706936e-03
1.22750000000000e+00 1.46097522168017e-01 4.98351556464938e-03
1.23250000000000e+00 1.45848810821414e-01 4.96501507371572e-03
1.23750000000000e+00 1.45601020660646e-01 4.94666719355608e-03
1.24250000000000e+00 1.45354144102058e-01 4.92847006394403e-03
1.24750000000000e+00 1.45108173654251e-01 4.91042185452983e-03
1.25250000000000e+00 1.44863101916605e-01 4.89252076424029e-03
1.25750000000000e+00 1.44618921577827e-01 4.87476502069789e-03
1.26250000000000e+00 1.44375625414535e-01 4.85715287965177e-03
1.26750000000000e+00 1.44133206289862e-01 4.83968262442291e-03
1.27250000000000e+00 1.43891657152093e-01 4.82235256536317e-03
1.27750000000000e+00 1.43650971033326e-01 4.80516103932432e-03
1.28250000000000e+00 1.43411141048160e-01 4.78810640914068e-03
1.28750000000000e+00 1.43172160392412e-01 4.77118706312479e-03
1.29250000000000e+00 1.42934022341848e-01 4.75440141457589e-03
1.29750000000000e+00 1.42696720250954e-01 4.73774790129583e-03
1.30250000000000e+00 1.42460247551718e-01 4.72122498511834e-03
1.30750000000000e+00 1.42224597752442e-01 4.70483115145137e-03
1.31250000000000e+00 1.41989764436573e-01 4.68856490882685e-03
1.31750000000000e+00 1.41755741261560e-01 4.67242478845942e-03
1.32250000000000e+00 1.41522521957727e-01 4.65640934382006e-03
1.32750000000000e+00 1.41290100327178e-01 4.64051715021674e-03
1.33250000000000e+00 1.41058470242706e-01 4.62474680438141e-03
1.33750000000000e+00 1.40827625646739e-01 4.60909692407196e-03
1.34250000000000e+00 1.40597560550298e-01 4.59356614767953e-03
1.34750000000000e+00 1.40368269031971e-01 4.57815313384402e-03
1.35250000000000e+00 1.40139745236914e-01 4.56285656108196e-03
1.35750000000000e+00 1.39911983375863e-01 4.54767512742010e-03
1.36250000000000e+00 1.39684977724172e-01 4.53260755003404e-03
1.36750000000000e+00 1.39458722620860e-01 4.51765256490044e-03
1.37250000000000e+00 1.39233212467682e-01 4.50280892645455e-03
1.37750000000000e+00 1.39008441728214e-01 4.48807540725321e-03
1.38250000000000e+00 1.38784404926957e-01 4.47345079764933e-03
1.38750000000000e+00 1.38561096648449e-01 4.45893390546626e-03
1.39250000000000e+00 1.38338511536410e-01 4.44452355568975e-03
1.39750000000000e+00 1.38116644292881e-01 4.43021859015763e-03
1.40250000000000e+00 1.37895489677394e-01 4.41601786725698e-03
1.40750000000000e+00 1.37675042506155e-01 4.40192026163633e-03
1.41250000000000e+00 1.37455297651231e-01 4.38792466390975e-03
1.41750000000000e+00 1.37236250039764e-01 4.37402998038044e-03
1.42250000000000e+00 1.37017894653193e-01 4.36023513276540e-03
1.42750000000000e+00 1.36800226526487e-01 4.34653905791976e-03
1.43250000000000e+00 1.36583240747401e-01 4.33294070757706e-03
1.43750000000000e+00 1.36366932455730e-01 4.31943904808940e-03
1.44250000000000e+00 1.36151296842592e-01 4.30603306017241e-03
1.44750000000000e+00 1.35936329149712e-01 4.29272173865763e-03
1.45250000000000e+00 1.35722024668726e-01 4.27950409225136e-03
1.45750000000000e+00 1.35508378740487e-01 4.26637914329314e-03
1.46250000000000e+00 1.35295386754397e-01 4.25334592752402e-03
1.46750000000000e+00 1.35083044147735e-01 4.24040349385868e-03
1.47250000000000e+00 1.34871346405011e-01 4.22755090415977e-03
1.47750000000000e+00 1.34660289057319e-01 4.21478723302143e-03
1.48250000000000e+00 1.34449867681709e-01 4.20211156755140e-03
1.48750000000000e+00 1.34240077900564e-01 4.18952300716230e-03
1.49250000000000e+00 1.34030915380992e-01 4.17702066336456e-03
1.49750000000000e+00 1.33822375834227e-01 4.16460365956578e-03
1.50250000000000e+00 1.33614455015036e-01 4.15227113087030e-03
1.50750000000000e+00 1.33407148721140e-01 4.14002222388438e-03
1.51250000000000e+00 1.33200452792647e-01 4.12785609653049e-03
1.51750000000000e+00 1.32994363111487e-01 4.11577191785667e-03
1.52250000000000e+00 1.32788875600862e-01 4.10376886785413e-03
1.52750000000000e+00 1.32583986224702e-01 4.09184613727936e-03
1.53250000000000e+00 1.32379690987134e-01 4.08000292747790e-03
1.53750000000000e+00 1.32175985931954e-01 4.06823845021165e-03
1.54250000000000e+00 1.31972867142113e-01 4.05655192748933e-03
1.54750000000000e+00 1.31770330739205e-01 4.04494259140048e-03
1.55250000000000e+00 1.31568372882972e-01 4.03340968395532e-03
1.55750000000000e+00 1.31366989770809e-01 4.02195245692405e-03
1.56250000000000e+00 1.31166177637280e-01 4.01057017168027e-03
1.56750000000000e+00 1.30965932753641e-01 3.99926209904727e-03
1.57250000000000e+00 1.30766251427375e-01 3.98802751914729e-03
1.57750000000000e+00 1.30567130001727e-01 3.97686572125688e-03
