Energy (eV)          EEDF (eV^-(3/2))     First Anisotropy
1.85000000000000e-03 2.19011968541210e+00 1.04222373190152e-03
5.55000000000000e-03 2.17752260581995e+00 1.72184669772240e-03
9.25000000000000e-03 2.16499798182445e+00 2.27525672140188e-03
1.29500000000000e-02 2.15254539667223e+00 2.69704313219298e-03
1.66500000000000e-02 2.14016443601100e+00 3.04994295848060e-03
2.03500000000000e-02 2.12785468787234e+00 3.35763743775568e-03
2.40500000000000e-02 2.11561574265758e+00 3.63236261425298e-03
2.77500000000000e-02 2.10344719312403e+00 3.88149628234725e-03
3.14500000000000e-02 2.09134863437139e+00 4.10992419484375e-03
3.51500000000000e-02 2.07931966382830e+00 4.32109435354272e-03
3.88500000000000e-02 2.06735988123889e+00 4.51755535401049e-03
4.25500000000000e-02 2.05546888864948e+00 4.70125868654470e-03
4.62500000000000e-02 2.04364629039533e+00 4.87374088911082e-03
4.99500000000000e-02 2.03189169308749e+00 5.03623946274636e-03
5.36500000000000e-02 2.02020470559968e+00 5.18976992610965e-03
5.73500000000000e-02 2.00858493905531e+00 5.33517890174784e-03
6.10500000000000e-02 1.99703200681452e+00 5.47318179841834e-03
6.47500000000000e-02 1.98554552446130e+00 5.60439024603006e-03
6.84500000000000e-02 1.97412510979074e+00 5.72933251028561e-03
7.21500000000000e-02 1.96277038279626e+00 5.84846897437346e-03
7.58500000000000e-02 1.95148096565702e+00 5.96220407695366e-03
7.95500000000000e-02 1.94025648272530e+00 6.07089565441983e-03
8.32500000000000e-02 1.92909656051404e+00 6.17486234871219e-03
8.69500000000000e-02 1.91800082768438e+00 6.27438955107390e-03
9.06500000000000e-02 1.90696891503332e+00 6.36973422227812e-03
9.43500000000000e-02 1.89600045548145e+00 6.46112883976139e-03
9.80500000000000e-02 1.88509508406069e+00 6.54878465848992e-03
1.01750000000000e-01 1.87425243790220e+00 6.63289442676259e-03
1.05450000000000e-01 1.86347215622427e+00 6.71363466494630e-03
1.09150000000000e-01 1.85275388032033e+00 6.79116759064771e-03
1.12850000000000e-01 1.84209725354701e+00 6.86564275554479e-03
1.16550000000000e-01 1.83150192131226e+00 6.93719844528803e-03
1.20250000000000e-01 1.82096753106358e+00 7.00596288335911e-03
1.23950000000000e-01 1.81049373227628e+00 7.07205527165442e-03
1.27650000000000e-01 1.80008017644178e+00 7.13558669425526e-03
1.31350000000000e-01 1.78972651705608e+00 7.19666090590845e-03
1.35050000000000e-01 1.77943240960816e+00 7.25537502283149e-03
1.38750000000000e-01 1.76919751156857e+00 7.31182013034946e-03
1.42450000000000e-01 1.75902148237802e+00 7.36608181938223e-03
1.46150000000000e-01 1.74890398343601e+00 7.41824066179345e-03
1.49850000000000e-01 1.73884467808964e+00 7.46837263297755e-03
1.53550000000000e-01 1.72884323162231e+00 7.51654948873784e-03
1.57250000000000e-01 1.71889931124268e+00 7.56283910240929e-03
1.60950000000000e-01 1.70901258607353e+00 7.60730576728658e-03
1.64650000000000e-01 1.69918272714078e+00 7.65001046866566e-03
1.68350000000000e-01 1.68940940736252e+00 7.69101112918731e-03
1.72050000000000e-01 1.67969230153816e+00 7.73036283065003e-03
1.75750000000000e-01 1.67003108633758e+00 7.76811801502457e-03
1.79450000000000e-01 1.66042544029040e+00 7.80432666703208e-03
1.83150000000000e-01 1.65087504377523e+00 7.83903648033357e-03
1.86850000000000e-01 1.64137957900912e+00 7.87229300911557e-03
1.90550000000000e-01 1.63193873003690e+00 7.90413980663054e-03
1.94250000000000e-01 1.62255218272070e+00 7.93461855205598e-03
1.97950000000000e-01 1.61321962472954e+00 7.96376916686811e-03
2.01650000000000e-01 1.60394074552885e+00 7.99162992178651e-03
2.05350000000000e-01 1.59471523637022e+00 8.01823753521854e-03
2.09050000000000e-01 1.58554279028108e+00 8.04362726402769e-03
2.12750000000000e-01 1.57642310205450e+00 8.06783298735401e-03
2.16450000000000e-01 1.56735586823903e+00 8.09088728413551e-03
2.20150000000000e-01 1.55834078712860e+00 8.11282150491353e-03
2.23850000000000e-01 1.54937755875250e+00 8.13366583843017e-03
2.27550000000000e-01 1.54046588486536e+00 8.15344937348085e-03
2.31250000000000e-01 1.53160546893729e+00 8.17220015644041e-03
2.34950000000000e-01 1.52279601614393e+00 8.18994524482809e-03
2.38650000000000e-01 1.51403723335671e+00 8.20671075724852e-03
2.42350000000000e-01 1.50532882913307e+00 8.22252192000741e-03
2.46050000000000e-01 1.49667051370676e+00 8.23740311067484e-03
2.49750000000000e-01 1.48806199897819e+00 8.25137789884250e-03
2.53450000000000e-01 1.47950299850486e+00 8.26446908429196e-03
2.57150000000000e-01 1.47099322749183e+00 8.27669873278258e-03
2.60850000000000e-01 1.46253240278223e+00 8.28808820963704e-03
2.64550000000000e-01 1.45412024284786e+00 8.29865821129410e-03
2.68250000000000e-01 1.44575646777978e+00 8.30842879497828e-03
2.71950000000000e-01 1.43744079927904e+00 8.31741940662526e-03
2.75650000000000e-01 1.42917296064742e+00 8.32564890719115e-03
2.79350000000000e-01 1.42095267677816e+00 8.33313559745651e-03
2.83050000000000e-01 1.41277967414691e+00 8.33989724143773e-03
2.86750000000000e-01 1.40465368080252e+00 8.34595108849789e-03
2.90450000000000e-01 1.39657442635808e+00 8.35131389424747e-03
2.94150000000000e-01 1.38854164198186e+00 8.35600194031668e-03
2.97850000000000e-01 1.38055506038841e+00 8.36003105307609e-03
3.01550000000000e-01 1.37261441582963e+00 8.36341662137387e-03
3.05250000000000e-01 1.36471944408595e+00 8.36617361335098e-03
3.08950000000000e-01 1.35686988245753e+00 8.36831659240006e-03
3.12650000000000e-01 1.34906546975552e+00 8.36985973231649e-03
3.16350000000000e-01 1.34130594629339e+00 8.37081683169465e-03
3.20050000000000e-01 1.33359105387823e+00 8.37120132761430e-03
3.23750000000000e-01 1.32592053580224e+00 8.37102630866331e-03
3.27450000000000e-01 1.31829413683411e+00 8.37030452733679e-03
3.31150000000000e-01 1.31071160321058e+00 8.36904841184483e-03
3.34850000000000e-01 1.30317268262799e+00 8.36727007737112e-03
3.38550000000000e-01 1.29567712423386e+00 8.36498133680719e-03
3.42250000000000e-01 1.28822467861855e+00 8.36219371099778e-03
3.45950000000000e-01 1.28081509780699e+00 8.35891843852540e-03
3.49650000000000e-01 1.27344813525039e+00 8.35516648505433e-03
3.53350000000000e-01 1.26612354581807e+00 8.35094855226382e-03
3.57050000000000e-01 1.25884108578926e+00 8.34627508639169e-03
3.60750000000000e-01 1.25160051284506e+00 8.34115628641059e-03
3.64450000000000e-01 1.24440158606028e+00 8.33560211185446e-03
3.68150000000000e-01 1.23724406589552e+00 8.32962229031329e-03
3.71850000000000e-01 1.23012771418915e+00 8.32322632461879e-03
3.75550000000000e-01 1.22305229414938e+00 8.31642349973256e-03
3.79250000000000e-01 1.21601757034640e+00 8.30922288935165e-03
3.82950000000000e-01 1.20902330870454e+00 8.30163336224797e-03
3.86650000000000e-01 1.20206927649448e+00 8.29366358835673e-03
3.90350000000000e-01 1.19515524232551e+00 8.28532204462201e-03
3.94050000000000e-01 1.18828097613783e+00 8.27661702061437e-03
3.97750000000000e-01 1.18144624919487e+00 8.26755662393216e-03
4.01450000000000e-01 1.17465083407574e+00 8.25814878539365e-03
4.05150000000000e-01 1.16789450466760e+00 8.24840126403520e-03
4.08850000000000e-01 1.16117703615815e+00 8.23832165192123e-03
4.12550000000000e-01 1.15449820502819e+00 8.22791737877279e-03
4.16250000000000e-01 1.14785778904413e+00 8.21719571642801e-03
4.19950000000000e-01 1.14125556725063e+00 8.20616378314223e-03
4.23650000000000e-01 1.13469131996323e+00 8.19482854772946e-03
4.27350000000000e-01 1.12816482876104e+00 8.18319683355805e-03
4.31050000000000e-01 1.12167587647950e+00 8.17127532240351e-03
4.34750000000000e-01 1.11522424720310e+00 8.15907055816685e-03
4.38450000000000e-01 1.10880972625826e+00 8.14658895046651e-03
4.42150000000000e-01 1.10243210020613e+00 8.13383677810279e-03
4.45850000000000e-01 1.09609115683553e+00 8.12082019240598e-03
4.49550000000000e-01 1.08978668515585e+00 8.10754522047174e-03
4.53250000000000e-01 1.08351847539008e+00 8.09401776828914e-03
4.56950000000000e-01 1.07728631896778e+00 8.08024362376317e-03
4.60650000000000e-01 1.07109000851816e+00 8.06622845963826e-03
4.64350000000000e-01 1.06492933786320e+00 8.05197783632891e-03
4.68050000000000e-01 1.05880410201074e+00 8.03749720465716e-03
4.71750000000000e-01 1.05271409714771e+00 8.02279190850040e-03
4.75450000000000e-01 1.04665912063333e+00 8.00786718736020e-03
4.79150000000000e-01 1.04063897099235e+00 7.99272817884790e-03
4.82850000000000e-01 1.03465344790837e+00 7.97737992109046e-03
4.86550000000000e-01 1.02870235221716e+00 7.96182735506593e-03
4.90250000000000e-01 1.02278548590004e+00 7.94607532686445e-03
4.93950000000000e-01 1.01690265207730e+00 7.93012858988401e-03
4.97650000000000e-01 1.01105365500163e+00 7.91399180695578e-03
5.01350000000000e-01 1.00523830005160e+00 7.89766955240832e-03
5.05050000000000e-01 9.99456393725215e-01 7.88116631407191e-03
5.08750000000000e-01 9.93707743633465e-01 7.86448649521964e-03
5.12450000000000e-01 9.87992158493908e-01 7.84763441645686e-03
5.16150000000000e-01 9.82309448124319e-01 7.83061431755376e-03
5.19850000000000e-01 9.76659423436360e-01 7.81343035922390e-03
5.23550000000000e-01 9.71041896429285e-01 7.79608662485430e-03
5.27250000000000e-01 9.65456680183688e-01 7.77858712218709e-03
5.30950000000000e-01 9.59903588855280e-01 7.76093578495151e-03
5.34650000000000e-01 9.54382437668709e-01 7.74313647445129e-03
5.38350000000000e-01 9.48893042911407e-01 7.72519298111050e-03
5.42050000000000e-01 9.43435221927481e-01 7.70710902597494e-03
5.45750000000000e-01 9.38008793111635e-01 7.68888826217220e-03
5.49450000000000e-01 9.32613575903125e-01 7.67053427633402e-03
5.53150000000000e-01 9.27249390779752e-01 7.65205058997970e-03
5.56850000000000e-01 9.21916059251888e-01 7.63344066086239e-03
5.60550000000000e-01 9.16613403856539e-01 7.61470788428077e-03
5.64250000000000e-01 9.11341248151438e-01 7.59585559435518e-03
5.67950000000000e-01 9.06099416709175e-01 7.57688706527197e-03
5.71650000000000e-01 9.00887735111358e-01 7.55780551249450e-03
5.75350000000000e-01 8.95706029942811e-01 7.53861409394313e-03
5.79050000000000e-01 8.90554128785805e-01 7.51931591114626e-03
5.82750000000000e-01 8.85431860214318e-01 7.49991401036072e-03
5.86450000000000e-01 8.80339053788330e-01 7.48041138366396e-03
5.90150000000000e-01 8.75275540048159e-01 7.46081097002184e-03
5.93850000000000e-01 8.70241150508814e-01 7.44111565632743e-03
5.97550000000000e-01 8.65235717654391e-01 7.42132827841311e-03
6.01250000000000e-01 8.60259074932503e-01 7.40145162204053e-03
6.04950000000000e-01 8.55311056748733e-01 7.38148842386588e-03
6.08650000000000e-01 8.50391498461127e-01 7.36144137238095e-03
6.12350000000000e-01 8.45500236374715e-01 7.34131310883160e-03
6.16050000000000e-01 8.40637107736063e-01 7.32110622811506e-03
6.19750000000000e-01 8.35801950727860e-01 7.30082327965714e-03
6.23450000000000e-01 8.30994604463532e-01 7.28046676826666e-03
6.27150000000000e-01 8.26214908981885e-01 7.26003915496994e-03
6.30850000000000e-01 8.21462705241791e-01 7.23954285782708e-03
6.34550000000000e-01 8.16737835116888e-01 7.21898025272906e-03
6.38250000000000e-01 8.12040141390324e-01 7.19835367417723e-03
6.41950000000000e-01 8.07369467749519e-01 7.17766541604293e-03
6.45650000000000e-01 8.02725658780973e-01 7.15691773231207e-03
6.49350000000000e-01 7.98108559965086e-01 7.13611283781201e-03
6.53050000000000e-01 7.93518017671023e-01 7.11525290892203e-03
6.56750000000000e-01 7.88953879151597e-01 7.09434008426853e-03
6.60450000000000e-01 7.84415992538191e-01 7.07337646540351e-03
6.64150000000000e-01 7.79904206835700e-01 7.05236411747056e-03
6.67850000000000e-01 7.75418371917511e-01 7.03130506985437e-03
6.71550000000000e-01 7.70958338520505e-01 7.01020131681593e-03
6.75250000000000e-01 7.66523958240091e-01 6.98905481811522e-03
6.78950000000000e-01 7.62115083525268e-01 6.96786749961910e-03
6.82650000000000e-01 7.57731567673716e-01 6.94664125389827e-03
6.86350000000000e-01 7.53373264826915e-01 6.92537794081005e-03
6.90050000000000e-01 7.49040029965287e-01 6.90407938806815e-03
6.93750000000000e-01 7.44731718903378e-01 6.88274739180218e-03
6.97450000000000e-01 7.40448188285056e-01 6.86138371710442e-03
7.01150000000000e-01 7.36189295578739e-01 6.83999009856554e-03
7.04850000000000e-01 7.31954899072657e-01 6.81856824079869e-03
7.08550000000000e-01 7.27744857870133e-01 6.79711981895309e-03
7.12250000000000e-01 7.23559031884900e-01 6.77564647921848e-03
7.15950000000000e-01 7.19397281836430e-01 6.75414983931739e-03
7.19650000000000e-01 7.15259469245311e-01 6.73263148898755e-03
7.23350000000000e-01 7.11145456428630e-01 6.71109299045545e-03
7.27050000000000e-01 7.07055106495397e-01 6.68953587890018e-03
7.30750000000000e-01 7.02988283341987e-01 6.66796166290779e-03
7.34450000000000e-01 6.98944851647616e-01 6.64637182491679e-03
7.38150000000000e-01 6.94924676869832e-01 6.62476782165505e-03
7.41850000000000e-01 6.90927625240041e-01 6.60315108456734e-03
7.45550000000000e-01 6.86953563759058e-01 6.58152302023513e-03
7.49250000000000e-01 6.83002360192678e-01 6.55988501078801e-03
7.52950000000000e-01 6.79073883067279e-01 6.53823841430753e-03
7.56650000000000e-01 6.75168001665444e-01 6.51658456522237e-03
7.60350000000000e-01 6.71284586021615e-01 6.49492477469684e-03
7.64050000000000e-01 6.67423506917767e-01 6.47326033101151e-03
7.67750000000000e-01 6.63584635879107e-01 6.45159249993605e-03
7.71450000000000e-01 6.59767845169801e-01 6.42992252509714e-03
7.75150000000000e-01 6.55973007788723e-01 6.40825162833648e-03
7.78850000000000e-01 6.52199997465230e-01 6.38658101006397e-03
7.82550000000000e-01 6.48448688654958e-01 6.36491184960354e-03
7.86250000000000e-01 6.44718956535647e-01 6.34324530553289e-03
7.89950000000000e-01 6.41010677002986e-01 6.32158251601790e-03
7.93650000000000e-01 6.37323726666486e-01 6.29992459913873e-03
7.97350000000000e-01 6.33657982845371e-01 6.27827265321120e-03
8.01050000000000e-01 6.30013323564499e-01 6.25662775710207e-03
8.04750000000000e-01 6.26389627550299e-01 6.23499097053965e-03
8.08450000000000e-01 6.22786774226740e-01 6.21336333441641e-03
8.12150000000000e-01 6.19204643711320e-01 6.19174587108764e-03
8.15850000000000e-01 6.15643116811070e-01 6.17013958466621e-03
8.19550000000000e-01 6.12102075018595e-01 6.14854546130849e-03
8.23250000000000e-01 6.08581400508128e-01 6.12696446949769e-03
8.26950000000000e-01 6.05080976131608e-01 6.10539756032264e-03
8.30650000000000e-01 6.01600685414785e-01 6.08384566774881e-03
8.34350000000000e-01 5.98140412553342e-01 6.06230970888714e-03
8.38050000000000e-01 5.94700042409043e-01 6.04079058425812e-03
8.41750000000000e-01 5.91279460505902e-01 6.01928917804964e-03
8.45450000000000e-01 5.87878553026373e-01 5.99780635837126e-03
8.49150000000000e-01 5.84497206807562e-01 5.97634297750380e-03
8.52850000000000e-01 5.81135309337464e-01 5.95489987214483e-03
8.56550000000000e-01 5.77792748751217e-01 5.93347786365017e-03
8.60250000000000e-01 5.74469413827381e-01 5.91207775827099e-03
8.63950000000000e-01 5.71165193984238e-01 5.89070034738675e-03
8.67650000000000e-01 5.67879979276111e-01 5.86934640773428e-03
8.71350000000000e-01 5.64613660389704e-01 5.84801670163251e-03
8.75050000000000e-01 5.61366128640469e-01 5.82671197720495e-03
8.78750000000000e-01 5.58137275968986e-01 5.80543296859538e-03
8.82450000000000e-01 5.54926994937369e-01 5.78418039618298e-03
8.86150000000000e-01 5.51735178725690e-01 5.76295496679392e-03
8.89850000000000e-01 5.48561721128428e-01 5.74175737390585e-03
8.93550000000000e-01 5.45406516550930e-01 5.72058829785325e-03
8.97250000000000e-01 5.42269460005900e-01 5.69944840602663e-03
9.00950000000000e-01 5.39150447109906e-01 5.67833835306883e-03
9.04650000000000e-01 5.36049374079906e-01 5.65725878106930e-03
9.08350000000000e-01 5.32966137729796e-01 5.63621031975435e-03
9.12050000000000e-01 5.29900635466973e-01 5.61519358667441e-03
9.15750000000000e-01 5.26852765288927e-01 5.59420918738755e-03
9.19450000000000e-01 5.23822425779841e-01 5.57325771564186e-03
9.23150000000000e-01 5.20809516107221e-01 5.55233975355231e-03
9.26850000000000e-01 5.17813936018537e-01 5.53145587177683e-03
9.30550000000000e-01 5.14835585837891e-01 5.51060662968981e-03
9.34250000000000e-01 5.11874366462697e-01 5.48979257555032e-03
9.37950000000000e-01 5.08930179360387e-01 5.46901424666931e-03
9.41650000000000e-01 5.06002926565128e-01 5.44827216957421e-03
9.45350000000000e-01 5.03092510674566e-01 5.42756686017179e-03
9.49050000000000e-01 5.00198834846583e-01 5.40689882390597e-03
9.52750000000000e-01 4.97321802796076e-01 5.38626855591493e-03
9.56450000000000e-01 4.94461318791752e-01 5.36567654118620e-03
9.60150000000000e-01 4.91617287652943e-01 5.34512325470702e-03
9.63850000000000e-01 4.88789614746439e-01 5.32460916161452e-03
9.67550000000000e-01 4.85978205983339e-01 5.30413471734274e-03
9.71250000000000e-01 4.83182967815920e-01 5.28370036776709e-03
9.74950000000000e-01 4.80403807234525e-01 5.26330654934740e-03
9.78650000000000e-01 4.77640631764468e-01 5.24295368926830e-03
9.82350000000000e-01 4.74893349462956e-01 5.22264220557616e-03
9.86050000000000e-01 4.72161868916032e-01 5.20237250731684e-03
9.89750000000000e-01 4.69446099235531e-01 5.18214499466894e-03
9.93450000000000e-01 4.66745950056055e-01 5.16196005907478e-03
9.97150000000000e-01 4.64061331531969e-01 5.14181808337139e-03
1.00085000000000e+00 4.61392154334410e-01 5.12171944191793e-03
1.00455000000000e+00 4.58738329648314e-01 5.10166450072151e-03
1.00825000000000e+00 4.56099769169461e-01 5.08165361756096e-03
1.01195000000000e+00 4.53476385101540e-01 5.06168714210934e-03
1.01565000000000e+00 4.50868090153222e-01 5.04176541605520e-03
1.01935000000000e+00 4.48274797535259e-01 5.02188877321958e-03
1.02305000000000e+00 4.45696420957595e-01 5.00205753967269e-03
1.02675000000000e+00 4.43132874626496e-01 4.98227203384955e-03
1.03045000000000e+00 4.40584073241693e-01 4.96253256666263e-03
1.03415000000000e+00 4.38049931993548e-01 4.94283944161438e-03
1.03785000000000e+00 4.35530366560226e-01 4.92319295490569e-03
1.04155000000000e+00 4.33025293104893e-01 4.90359339554495e-03
1.04525000000000e+00 4.30534628272928e-01 4.88404104545478e-03
1.04895000000000e+00 4.28058289189144e-01 4.86453617957645e-03
1.05265000000000e+00 4.25596193455035e-01 4.84507906597396e-03
1.05635000000000e+00 4.23148259146034e-01 4.82566996593524e-03
1.06005000000000e+00 4.20714404808783e-01 4.80630913407330e-03
1.06375000000000e+00 4.18294549458429e-01 4.78699681842534e-03
1.06745000000000e+00 4.15888612575924e-01 4.76773326054923e-03
1.07115000000000e+00 4.13496514105346e-01 4.74851869562065e-03
1.07485000000000e+00 4.11118174451239e-01 4.72935335252745e-03
1.07855000000000e+00 4.08753514475963e-01 4.71023745396295e-03
1.08225000000000e+00 4.06402455497058e-01 4.69117121651772e-03
1.08595000000000e+00 4.04064919284628e-01 4.67215485077003e-03
1.08965000000000e+00 4.01740828058739e-01 4.65318856137637e-03
1.09335000000000e+00 3.99430104486829e-01 4.63427254715786e-03
1.09705000000000e+00 3.97132671681137e-01 4.61540700118766e-03
1.10075000000000e+00 3.94848453196142e-01 4.59659211087709e-03
1.10445000000000e+00 3.92577373026020e-01 4.57782805805861e-03
1.10815000000000e+00 3.90319355602118e-01 4.55911501906984e-03
1.11185000000000e+00 3.88074325790434e-01 4.54045316483569e-03
1.11555000000000e+00 3.85842208889122e-01 4.52184266094784e-03
1.11925000000000e+00 3.83622930626004e-01 4.50328366774547e-03
1.12295000000000e+00 3.81416417156099e-01 4.48477634039335e-03
1.12665000000000e+00 3.79222595059164e-01 4.46632082895819e-03
1.13035000000000e+00 3.77041391337257e-01 4.44791727848587e-03
1.13405000000000e+00 3.74872733412299e-01 4.42956582907676e-03
1.13775000000000e+00 3.72716549123667e-01 4.41126661595875e-03
1.14145000000000e+00 3.70572766725790e-01 4.39301976956119e-03
1.14515000000000e+00 3.68441314885760e-01 4.37482541558679e-03
1.14885000000000e+00 3.66322122680960e-01 4.35668367508145e-03
1.15255000000000e+00 3.64215119596705e-01 4.33859466450552e-03
1.15625000000000e+00 3.62120235523895e-01 4.32055849580216e-03
1.15995000000000e+00 3.60037400756680e-01 4.30257527646548e-03
1.16365000000000e+00 3.57966545990144e-01 4.28464510960776e-03
1.16735000000000e+00 3.55907602317997e-01 4.26676809402527e-03
