Energy (eV)          EEDF (eV^-(3/2))     First Anisotropy
4.44827586206897e-03 1.73271990275039e+00 1.18370414825978e-03
1.33448275862069e-02 1.71224131654458e+00 1.94963563047883e-03
2.22413793103448e-02 1.69200476169469e+00 2.56053762910460e-03
3.11379310344828e-02 1.67200737759496e+00 3.01668826305974e-03
4.00344827586207e-02 1.65224633763587e+00 3.39059598578630e-03
4.89310344827586e-02 1.63271884851022e+00 3.70988040875209e-03
5.78275862068965e-02 1.61342214993512e+00 3.98893623075898e-03
6.67241379310345e-02 1.59435351422409e+00 4.23651604920217e-03
7.56206896551724e-02 1.57551024599114e+00 4.45846414060875e-03
8.45172413793103e-02 1.55688968167123e+00 4.65893874771783e-03
9.34137931034483e-02 1.53848918918073e+00 4.84103830404225e-03
1.02310344827586e-01 1.52030616752699e+00 5.00715424969607e-03
1.11206896551724e-01 1.50233804644357e+00 5.15918430129943e-03
1.20103448275862e-01 1.48458228623206e+00 5.29866865523740e-03
1.29000000000000e-01 1.46703637690092e+00 5.42688078221044e-03
1.37896551724138e-01 1.44969783827886e+00 5.54489017085830e-03
1.46793103448276e-01 1.43256421950674e+00 5.65360705228936e-03
1.55689655172414e-01 1.41563309880190e+00 5.75381506786178e-03
1.64586206896552e-01 1.39890208277925e+00 5.84619562865732e-03
1.73482758620690e-01 1.38236880645295e+00 5.93134643779261e-03
1.82379310344828e-01 1.36603093287816e+00 6.00979589252521e-03
1.91275862068966e-01 1.34988615254923e+00 6.08201432881744e-03
2.00172413793103e-01 1.33393218334734e+00 6.14842297185600e-03
2.09068965517241e-01 1.31816677012455e+00 6.20940117273132e-03
2.17965517241379e-01 1.30258768445745e+00 6.26529229638080e-03
2.26862068965517e-01 1.28719272411575e+00 6.31640853657328e-03
2.35758620689655e-01 1.27197971296914e+00 6.36303490515561e-03
2.44655172413793e-01 1.25694650060667e+00 6.40543259350952e-03
2.53551724137931e-01 1.24209096209073e+00 6.44384180193727e-03
2.62448275862069e-01 1.22741099747980e+00 6.47848411747132e-03
2.71344827586207e-01 1.21290453171011e+00 6.50956453551452e-03
2.80241379310345e-01 1.19856951429330e+00 6.53727324603931e-03
2.89137931034483e-01 1.18440391887350e+00 6.56178712814610e-03
2.98034482758621e-01 1.17040574309508e+00 6.58327105049478e-03
3.06931034482759e-01 1.15657300826759e+00 6.60187902711102e-03
3.15827586206897e-01 1.14290375912895e+00 6.61775522840883e-03
3.24724137931034e-01 1.12939606343967e+00 6.63103485265722e-03
3.33620689655172e-01 1.11604801184019e+00 6.64184489409785e-03
3.42517241379310e-01 1.10285771753739e+00 6.65030484381678e-03
3.51413793103448e-01 1.08982331607416e+00 6.65652731202804e-03
3.60310344827586e-01 1.07694296495500e+00 6.66061856714990e-03
3.69206896551724e-01 1.06421484349755e+00 6.66267901328408e-03
3.78103448275862e-01 1.05163715257033e+00 6.66280365738052e-03
3.87000000000000e-01 1.03920811423964e+00 6.66108249359674e-03
3.95896551724138e-01 1.02692597161781e+00 6.65760085360820e-03
4.04793103448276e-01 1.01478898858136e+00 6.65243974065289e-03
4.13689655172414e-01 1.00279544955407e+00 6.64567613171218e-03
4.22586206896552e-01 9.90943659178319e-01 6.63738323859059e-03
4.31482758620690e-01 9.79231942162274e-01 6.62763074167224e-03
4.40379310344828e-01 9.67658643039639e-01 6.61648503615104e-03
4.49275862068966e-01 9.56222125858051e-01 6.60400942636459e-03
4.58172413793103e-01 9.44920774026099e-01 6.59026430698553e-03
4.67068965517241e-01 9.33752990058355e-01 6.57530734393570e-03
4.75965517241379e-01 9.22717195372345e-01 6.55919364008641e-03
4.84862068965517e-01 9.11811829996839e-01 6.54197587621121e-03
4.93758620689655e-01 9.01035352420470e-01 6.52370444059048e-03
5.02655172413793e-01 8.90386239350639e-01 6.50442756224255e-03
5.11551724137931e-01 8.79862985518245e-01 6.48419143356582e-03
5.20448275862069e-01 8.69464103404052e-01 6.46304031313464e-03
5.29344827586207e-01 8.59188123089781e-01 6.44101661795241e-03
5.38241379310345e-01 8.49033592048166e-01 6.41816103524647e-03
5.47137931034483e-01 8.38999074882020e-01 6.39451260175168e-03
5.56034482758621e-01 8.29083153177385e-01 6.37010878009146e-03
5.64931034482759e-01 8.19284425284151e-01 6.34498554162954e-03
5.73827586206897e-01 8.09601506134402e-01 6.31917744322247e-03
5.82724137931035e-01 8.00033026996876e-01 6.29271768949645e-03
5.91620689655172e-01 7.90577635333653e-01 6.26563819080178e-03
6.00517241379310e-01 7.81233994592166e-01 6.23796962826916e-03
6.09413793103448e-01 7.72000784030975e-01 6.20974151422399e-03
6.18310344827586e-01 7.62876698488370e-01 6.18098224004330e-03
6.27206896551724e-01 7.53860448242988e-01 6.15171911861303e-03
6.36103448275862e-01 7.44950758829997e-01 6.12197844525742e-03
6.45000000000000e-01 7.36146370819737e-01 6.09178553496653e-03
6.53896551724138e-01 7.27446039681232e-01 6.06116475952497e-03
6.62793103448276e-01 7.18848535592301e-01 6.03013959188878e-03
6.71689655172414e-01 7.10352643278024e-01 5.99873264750953e-03
6.80586206896552e-01 7.01957161801729e-01 5.96696571558866e-03
6.89482758620690e-01 6.93660904432766e-01 5.93485978640673e-03
6.98379310344828e-01 6.85462698477548e-01 5.90243509555853e-03
7.07275862068966e-01 6.77361385079358e-01 5.86971114812155e-03
7.16172413793103e-01 6.69355819089262e-01 5.83670674336931e-03
7.25068965517241e-01 6.61444868892526e-01 5.80344000638809e-03
7.33965517241379e-01 6.53627416259035e-01 5.76992841755688e-03
7.42862068965517e-01 6.45902356153940e-01 5.73618883367000e-03
7.51758620689655e-01 6.38268596612993e-01 5.70223750776786e-03
7.60655172413793e-01 6.30725058577612e-01 5.66809011563125e-03
7.69551724137931e-01 6.23270675751741e-01 5.63376178048766e-03
7.78448275862069e-01 6.15904394422656e-01 5.59926709009036e-03
7.87344827586207e-01 6.08625173340719e-01 5.56462011116309e-03
7.96241379310345e-01 6.01431983571334e-01 5.52983441825604e-03
8.05137931034483e-01 5.94323808323004e-01 5.49492310663005e-03
8.14034482758621e-01 5.87299642830312e-01 5.45989880603698e-03
8.22931034482759e-01 5.80358494202901e-01 5.42477370060348e-03
8.31827586206897e-01 5.73499381293136e-01 5.38955954736646e-03
8.40724137931035e-01 5.66721334533220e-01 5.35426768827910e-03
8.49620689655172e-01 5.60023395822530e-01 5.31890906149338e-03
8.58517241379310e-01 5.53404618384015e-01 5.28349421844940e-03
8.67413793103448e-01 5.46864066637650e-01 5.24803333979529e-03
8.76310344827586e-01 5.40400816046057e-01 5.21253624526859e-03
8.85206896551724e-01 5.34013953006147e-01 5.17701240166194e-03
8.94103448275862e-01 5.27702574719316e-01 5.14147094293992e-03
9.03000000000000e-01 5.21465789043160e-01 5.10592067736096e-03
9.11896551724138e-01 5.15302714386203e-01 5.07037009554720e-03
9.20793103448276e-01 5.09212479576280e-01 5.03482738380025e-03
9.29689655172414e-01 5.03194223743664e-01 4.99930043648864e-03
9.38586206896552e-01 4.97247096180401e-01 4.96379686318062e-03
9.47482758620690e-01 4.91370256239193e-01 4.92832399415778e-03
9.56379310344828e-01 4.85562873214012e-01 4.89288889680035e-03
9.65275862068966e-01 4.79824126204929e-01 4.85749838051330e-03
9.74172413793103e-01 4.74153204019976e-01 4.82215900257294e-03
9.83068965517241e-01 4.68549305054450e-01 4.78687707869599e-03
9.91965517241379e-01 4.63011637183020e-01 4.75165869285419e-03
1.00086206896552e+00 4.57539417631411e-01 4.71650969717344e-03
1.00975862068966e+00 4.52131872907888e-01 4.68143574126583e-03
1.01865517241379e+00 4.46788238570192e-01 4.64644224432510e-03
1.02755172413793e+00 4.41507759328612e-01 4.61153441094523e-03
1.03644827586207e+00 4.36289688768391e-01 4.57671727160053e-03
1.04534482758621e+00 4.31133289296372e-01 4.54199565256498e-03
1.05424137931034e+00 4.26037832036953e-01 4.50737420269988e-03
1.06313793103448e+00 4.21002596683300e-01 4.47285736996122e-03
1.07203448275862e+00 4.16026871534012e-01 4.43844942671585e-03
1.08093103448276e+00 4.11109953252440e-01 4.40415449528266e-03
1.08982758620690e+00 4.06251146814490e-01 4.36997652279037e-03
1.09872413793103e+00 4.01449765410347e-01 4.33591929646283e-03
1.10762068965517e+00 3.96705130347512e-01 4.30198645733583e-03
1.11651724137931e+00 3.92016570914355e-01 4.26818147838401e-03
1.12541379310345e+00 3.87383424407988e-01 4.23450768700671e-03
1.13431034482759e+00 3.82805035916511e-01 4.20096828774609e-03
1.14320689655172e+00 3.78280758268245e-01 4.16756633898877e-03
1.15210344827586e+00 3.73809951940271e-01 4.13430476641216e-03
1.16100000000000e+00 3.69391984968084e-01 4.10118637503670e-03
1.16989655172414e+00 3.65026232820306e-01 4.06821382892041e-03
1.17879310344828e+00 3.60712078419342e-01 4.03538967121255e-03
1.18768965517241e+00 3.56448911943995e-01 4.00271634443830e-03
1.19658620689655e+00 3.52236130780362e-01 3.97019616895210e-03
1.20548275862069e+00 3.48073139436706e-01 3.93783135482409e-03
1.21437931034483e+00 3.43959349459294e-01 3.90562401248216e-03
1.22327586206897e+00 3.39894179317220e-01 3.87357613390187e-03
1.23217241379310e+00 3.35877054417157e-01 3.84168961055101e-03
1.24106896551724e+00 3.31907406924110e-01 3.80996625156176e-03
1.24996551724138e+00 3.27984675714147e-01 3.77840776383124e-03
1.25886206896552e+00 3.24108306295163e-01 3.74701576257213e-03
1.26775862068966e+00 3.20277750728475e-01 3.71579178074953e-03
1.27665517241379e+00 3.16492467522848e-01 3.68473725168155e-03
1.28555172413793e+00 3.12751921644404e-01 3.65385352514428e-03
1.29444827586207e+00 3.09055584353601e-01 3.62314188369576e-03
1.30334482758621e+00 3.05402933159891e-01 3.59260352431579e-03
1.31224137931034e+00 3.01793451747972e-01 3.56223957395681e-03
1.32113793103448e+00 2.98226629878751e-01 3.53205107325680e-03
1.33003448275862e+00 2.94701963396048e-01 3.50203899129330e-03
1.33893103448276e+00 2.91218954075649e-01 3.47220424055091e-03
1.34782758620690e+00 2.87777109581729e-01 3.44254765975858e-03
1.35672413793103e+00 2.84375943397235e-01 3.41307002243551e-03
1.36562068965517e+00 2.81014974755180e-01 3.38377204451704e-03
1.37451724137931e+00 2.77693728547392e-01 3.35465436931504e-03
1.38341379310345e+00 2.74411735327860e-01 3.32571758081635e-03
1.39231034482759e+00 2.71168531175116e-01 3.29696221718340e-03
1.40120689655172e+00 2.67963657650655e-01 3.26838875493538e-03
1.41010344827586e+00 2.64796661734141e-01 3.23999761660069e-03
1.41900000000000e+00 2.61667095759400e-01 3.21178917754008e-03
1.42789655172414e+00 2.58574517330280e-01 3.18376375206654e-03
1.43679310344828e+00 2.55518489321284e-01 3.15592160545449e-03
1.44568965517241e+00 2.52498579751942e-01 3.12826296613999e-03
1.45458620689655e+00 2.49514361747240e-01 3.10078801114464e-03
1.46348275862069e+00 2.46565413477307e-01 3.07349687294455e-03
1.47237931034483e+00 2.43651318097787e-01 3.04638964558939e-03
1.48127586206897e+00 2.40771663672218e-01 3.01946637189718e-03
1.49017241379310e+00 2.37926043170460e-01 2.99272705431774e-03
1.49906896551724e+00 2.35114054353905e-01 2.96617166597542e-03
1.50796551724138e+00 2.32335299737884e-01 2.93980013724068e-03
1.51686206896552e+00 2.29589386535522e-01 2.91361236190826e-03
1.52575862068966e+00 2.26875926602202e-01 2.88760820269613e-03
1.53465517241379e+00 2.24194536363901e-01 2.86178747943511e-03
1.54355172413793e+00 2.21544836813873e-01 2.83614997891029e-03
1.55244827586207e+00 2.18926453407643e-01 2.81069546487073e-03
1.56134482758621e+00 2.16339016027361e-01 2.78542366565904e-03
1.57024137931034e+00 2.13782158929536e-01 2.76033428376329e-03
1.57913793103448e+00 2.11255520677914e-01 2.73542698477910e-03
1.58803448275862e+00 2.08758744139054e-01 2.71070140648774e-03
1.59693103448276e+00 2.06291476384696e-01 2.68615716809459e-03
1.60582758620690e+00 2.03853368657749e-01 2.66179385867482e-03
1.61472413793103e+00 2.01444076322985e-01 2.63761104227844e-03
1.62362068965517e+00 1.99063258818357e-01 2.61360826246672e-03
1.63251724137931e+00 1.96710579592973e-01 2.58978503213342e-03
1.64141379310345e+00 1.94385706101539e-01 2.56614084174781e-03
1.65031034482759e+00 1.92088309714908e-01 2.54267516774770e-03
1.65920689655172e+00 1.89818065687915e-01 2.51938746189495e-03
1.66810344827586e+00 1.87574653113474e-01 2.49627715588853e-03
1.67700000000000e+00 1.85357754877237e-01 2.47334366546050e-03
1.68589655172414e+00 1.83167057600256e-01 2.45058638098983e-03
1.69479310344828e+00 1.81002251632553e-01 2.42800467499544e-03
1.70368965517241e+00 1.78863030971101e-01 2.40559790976892e-03
1.71258620689655e+00 1.76749093229437e-01 2.38336542756755e-03
1.72148275862069e+00 1.74660139594935e-01 2.36130655478789e-03
1.73037931034483e+00 1.72595874786571e-01 2.33942060566944e-03
1.73927586206897e+00 1.70556007001900e-01 2.31770687363899e-03
1.74817241379310e+00 1.68540247909973e-01 2.29616463812844e-03
1.75706896551724e+00 1.66548312576071e-01 2.27479317152248e-03
1.76596551724138e+00 1.64579919433040e-01 2.25359173012245e-03
1.77486206896552e+00 1.62634790241508e-01 2.23255955792696e-03
1.78375862068966e+00 1.60712650050549e-01 2.21169588998421e-03
1.79265517241379e+00 1.58813227148634e-01 2.19099994440976e-03
1.80155172413793e+00 1.56936253056074e-01 2.17047092859546e-03
1.81044827586207e+00 1.55081462455907e-01 2.15010804553926e-03
1.81934482758621e+00 1.53248593166876e-01 2.12991048551787e-03
1.82824137931034e+00 1.51437386106393e-01 2.10987743213191e-03
1.83713793103448e+00 1.49647585244534e-01 2.09000805484465e-03
1.84603448275862e+00 1.47878937596239e-01 2.07030151473219e-03
1.85493103448276e+00 1.46131193156877e-01 2.05075697034766e-03
1.86382758620690e+00 1.44404104876557e-01 2.03137356993987e-03
1.87272413793103e+00 1.42697428625205e-01 2.01215045461278e-03
1.88162068965517e+00 1.41010923158071e-01 1.99308676112264e-03
1.89051724137931e+00 1.39344350073140e-01 1.97418161499568e-03
1.89941379310345e+00 1.37697473803116e-01 1.95543413577229e-03
1.90831034482759e+00 1.36070061556188e-01 1.93684344235689e-03
1.91720689655172e+00 1.34461883291849e-01 1.91840864584499e-03
1.92610344827586e+00 1.32872711688385e-01 1.90012885239319e-03
1.93500000000000e+00 1.31302322110745e-01 1.88200316575781e-03
1.94389655172414e+00 1.29750492571113e-01 1.86403068094642e-03
1.95279310344828e+00 1.28217003720777e-01 1.84621048900361e-03
1.96168965517241e+00 1.26701638795640e-01 1.82854168189466e-03
1.97058620689655e+00 1.25204183593484e-01 1.81102334589275e-03
1.97948275862069e+00 1.23724426443697e-01 1.79365456418776e-03
1.98837931034483e+00 1.22262158177352e-01 1.77643441919267e-03
1.99727586206897e+00 1.20817172090689e-01 1.75936198668588e-03
2.00617241379310e+00 1.19389263936952e-01 1.74243634018179e-03
2.01506896551724e+00 1.17978231876256e-01 1.72565655539230e-03
2.02396551724138e+00 1.16583876454202e-01 1.70902170412838e-03
2.03286206896552e+00 1.15206000573704e-01 1.69253085667351e-03
2.04175862068965e+00 1.13844409467114e-01 1.67618308388055e-03
2.05065517241379e+00 1.12498910662397e-01 1.65997745176657e-03
2.05955172413793e+00 1.11169313975010e-01 1.64391302550628e-03
2.06844827586207e+00 1.09855431461744e-01 1.62798887350995e-03
2.07734482758621e+00 1.08557077400636e-01 1.61220406179873e-03
2.08624137931034e+00 1.07274068264733e-01 1.59655765790076e-03
2.09513793103448e+00 1.06006222690324e-01 1.58104872579604e-03
2.10403448275862e+00 1.04753361468929e-01 1.56567632962388e-03
2.11293103448276e+00 1.03515307504168e-01 1.55043953747000e-03
2.12182758620690e+00 1.02291885792719e-01 1.53533741610735e-03
2.13072413793103e+00 1.01082923399579e-01 1.52036903299326e-03
2.13962068965517e+00 9.98882494336258e-02 1.50553345803149e-03
2.14851724137931e+00 9.87076950181755e-02 1.49082975890636e-03
2.15741379310345e+00 9.75410932831111e-02 1.47625700447359e-03
2.16631034482759e+00 9.63882793251390e-02 1.46181426822483e-03
2.17520689655172e+00 9.52490901899151e-02 1.44750062343553e-03
2.18410344827586e+00 9.41233648490125e-02 1.43331514498509e-03
2.19300000000000e+00 9.30109441771626e-02 1.41925691096179e-03
2.20189655172414e+00 9.19116709249615e-02 1.40532499835517e-03
2.21079310344828e+00 9.08253897111752e-02 1.39151848615888e-03
2.21968965517241e+00 8.97519469861019e-02 1.37783645854189e-03
2.22858620689655e+00 8.86911910148034e-02 1.36427800037080e-03
2.23748275862069e+00 8.76429718556607e-02 1.35084219886973e-03
2.24637931034483e+00 8.66071413391802e-02 1.33752814508264e-03
2.25527586206897e+00 8.55835530426860e-02 1.32433492989617e-03
2.26417241379310e+00 8.45720622828315e-02 1.31126164688016e-03
2.27306896551724e+00 8.35725260818120e-02 1.29830739519141e-03
2.28196551724138e+00 8.25848031516388e-02 1.28547127544113e-03
2.29086206896552e+00 8.16087538741743e-02 1.27275239120897e-03
2.29975862068965e+00 8.06442402813945e-02 1.26014985037658e-03
2.30865517241379e+00 7.96911260319191e-02 1.24766276145475e-03
2.31755172413793e+00 7.87492764037520e-02 1.23529023618474e-03
2.32644827586207e+00 7.78185582631100e-02 1.22303139219838e-03
2.33534482758621e+00 7.68988400496820e-02 1.21088534920317e-03
2.34424137931034e+00 7.59899917580398e-02 1.19885123152431e-03
2.35313793103448e+00 7.50918849155878e-02 1.18692816466735e-03
2.36203448275862e+00 7.42043925755166e-02 1.17511527773766e-03
2.37093103448276e+00 7.33273892876388e-02 1.16341170591501e-03
2.37982758620690e+00 7.24607510844314e-02 1.15181658688396e-03
2.38872413793103e+00 7.16043554635112e-02 1.14032906211402e-03
2.39762068965517e+00 7.07580813703235e-02 1.12894827798554e-03
2.40651724137931e+00 6.99218091776876e-02 1.11767338261463e-03
2.41541379310345e+00 6.90954206790024e-02 1.10650352807039e-03
2.42431034482759e+00 6.82787990613258e-02 1.09543787264339e-03
2.43320689655172e+00 6.74718288922980e-02 1.08447557754936e-03
2.44210344827586e+00 6.66743961038255e-02 1.07361580809872e-03
2.45100000000000e+00 6.58863879759596e-02 1.06285773472421e-03
2.45989655172414e+00 6.51076931179186e-02 1.05220053004754e-03
2.46879310344828e+00 6.43382014615556e-02 1.04164337091215e-03
2.47768965517241e+00 6.35778042364991e-02 1.03118544046327e-03
2.48658620689655e+00 6.28263939579068e-02 1.02082592510381e-03
2.49548275862069e+00 6.20838644112737e-02 1.01056401556285e-03
2.50437931034483e+00 6.13501106374194e-02 1.00039890783408e-03
2.51327586206897e+00 6.06250289148781e-02 9.90329800465489e-04
2.52217241379310e+00 5.99085167536316e-02 9.80355896423463e-04
2.53106896551724e+00 5.92004728721487e-02 9.70476405000915e-04
2.53996551724138e+00 5.85007971859176e-02 9.60690539005266e-04
2.54886206896552e+00 5.78093907933023e-02 9.50997515735158e-04
2.55775862068965e+00 5.71261559615617e-02 9.41396557837850e-04
2.56665517241379e+00 5.64509961105069e-02 9.31886890804418e-04
2.57555172413793e+00 5.57838158065015e-02 9.22467744679846e-04
2.58444827586207e+00 5.51245207412471e-02 9.13138355813789e-04
2.59334482758621e+00 5.44730177210501e-02 9.03897964262757e-04
2.60224137931034e+00 5.38292146536525e-02 8.94745815463152e-04
2.61113793103448e+00 5.31930205328699e-02 8.85681157885636e-04
2.62003448275862e+00 5.25643454328197e-02 8.76703244627793e-04
2.62893103448276e+00 5.19431004880507e-02 8.67811335044848e-04
2.63782758620690e+00 5.13291978833906e-02 8.59004692317171e-04
2.64672413793103e+00 5.07225508415316e-02 8.50282584278911e-04
2.65562068965517e+00 5.01230736107676e-02 8.41644284144215e-04
2.66451724137931e+00 4.95306814507337e-02 8.33089068339054e-04
2.67341379310345e+00 4.89452906268986e-02 8.24616217962916e-04
2.68231034482759e+00 4.83668183921973e-02 8.16225020285876e-04
2.69120689655172e+00 4.77951829775314e-02 8.07914766500647e-04
2.70010344827586e+00 4.72303035802111e-02 7.99684752480799e-04
2.70900000000000e+00 4.66721003525348e-02 7.91534279444734e-04
2.71789655172414e+00 4.61204943885512e-02 7.83462651951135e-04
2.72679310344828e+00 4.55754077188103e-02 7.75469179240928e-04
2.73568965517241e+00 4.50367632933825e-02 7.67553176612011e-04
2.74458620689655e+00 4.45044849729711e-02 7.59713963341607e-04
2.75348275862069e+00 4.39784975181516e-02 7.51950863380099e-04
2.76237931034483e+00 4.34587265787367e-02 7.44263205958340e-04
2.77127586206897e+00 4.29450986814846e-02 7.36650323734085e-04
2.78017241379310e+00 4.24375412251055e-02 7.29111554024444e-04
2.78906896551724e+00 4.19359824645570e-02 7.21646240068524e-04
2.79796551724138e+00 4.14403515027327e-02 7.14253729106836e-04
2.80686206896552e+00 4.09505782804426e-02 7.06933373016483e-04
