Energy (eV)          EEDF (eV^-(3/2))     First Anisotropy
2.84166666666667e-02 1.11634619628189e+00 1.64764005547752e-03
8.52500000000000e-02 1.05390633262793e+00 2.65355458928694e-03
1.42083333333333e-01 9.94958876850775e-01 3.32944805848725e-03
1.98916666666667e-01 9.39308490941014e-01 3.74746877537552e-03
2.55750000000000e-01 8.86770761830687e-01 4.02392744841757e-03
3.12583333333333e-01 8.37171591129039e-01 4.20630264447161e-03
3.69416666666667e-01 7.90346618556832e-01 4.32080044385356e-03
4.26250000000000e-01 7.46140676666223e-01 4.38412047501026e-03
4.83083333333333e-01 7.04407276826927e-01 4.40783582917990e-03
5.39916666666667e-01 6.65008124052764e-01 4.40041505677625e-03
5.96750000000000e-01 6.27812658412348e-01 4.36829207701591e-03
6.53583333333333e-01 5.92697622453081e-01 4.31648890241576e-03
7.10416666666667e-01 5.59546652915825e-01 4.24900468172252e-03
7.67250000000000e-01 5.28249894948043e-01 4.16907241427500e-03
8.24083333333333e-01 4.98703638105739e-01 4.07933588282090e-03
8.80916666666667e-01 4.70809972788613e-01 3.98197602607409e-03
9.37750000000000e-01 4.44476465669116e-01 3.87880388226883e-03
9.94583333333333e-01 4.19615853410416e-01 3.77133064215372e-03
1.05141666666667e+00 3.96145753570663e-01 3.66082157582948e-03
1.10825000000000e+00 3.73988391579471e-01 3.54833829805838e-03
1.16508333333333e+00 3.53070342742042e-01 3.43477236004812e-03
1.22191666666667e+00 3.33322289547048e-01 3.32087236063795e-03
1.27875000000000e+00 3.14678791376499e-01 3.20726606912747e-03
1.33558333333333e+00 2.97078067739714e-01 3.09447858597360e-03
1.39241666666667e+00 2.80461793942183e-01 2.98294748558452e-03
1.44925000000000e+00 2.64774907383043e-01 2.87303549195828e-03
1.50608333333333e+00 2.49965425151855e-01 2.76504111532372e-03
1.56291666666667e+00 2.35984272063575e-01 2.65920771187726e-03
1.61975000000000e+00 2.22785117717444e-01 2.55573120179746e-03
1.67658333333333e+00 2.10324223012395e-01 2.45476663813662e-03
1.73341666666667e+00 1.98560295427917e-01 2.35643388529391e-03
1.79025000000000e+00 1.87454351951571e-01 2.26082251369984e-03
1.84708333333333e+00 1.76969589929929e-01 2.16799600286142e-03
1.90391666666667e+00 1.67071265282520e-01 2.07799541252093e-03
1.96075000000000e+00 1.57726577186491e-01 1.99084257131088e-03
2.01758333333333e+00 1.48904559405552e-01 1.90654282842859e-03
2.07441666666667e+00 1.40575977805408e-01 1.82508747433958e-03
2.13125000000000e+00 1.32713233339258e-01 1.74645585277688e-03
2.18808333333333e+00 1.25290270608332e-01 1.67061718655138e-03
2.24491666666667e+00 1.18282491621366e-01 1.59753219128404e-03
2.30175000000000e+00 1.11666674174758e-01 1.52715448598143e-03
2.35858333333333e+00 1.05420894912680e-01 1.45943181112836e-03
2.41541666666667e+00 9.95244567569543e-02 1.39430710809703e-03
2.47225000000000e+00 9.39578202377807e-02 1.33171946212252e-03
2.52908333333333e+00 8.87025387544562e-02 1.27160491327339e-03
2.58591666666667e+00 8.37411975093950e-02 1.21389717555362e-03
2.64275000000000e+00 7.90573557337852e-02 1.15852826309239e-03
2.69958333333333e+00 7.46354922143642e-02 1.10542902453616e-03
2.75641666666667e+00 7.04609539083795e-02 1.05452961619192e-03
2.81325000000000e+00 6.65199073350725e-02 1.00575991134434e-03
2.87008333333333e+00 6.27992927406609e-02 9.59049845132022e-04
2.92691666666667e+00 5.92867808598297e-02 9.14329718583774e-04
2.98375000000000e+00 5.59707320185285e-02 8.71530458633040e-04
3.04058333333333e+00 5.28401575674008e-02 8.30583832642150e-04
3.09741666666667e+00 4.98846834984976e-02 7.91422635876352e-04
3.15425000000000e+00 4.70945160357989e-02 7.53980848630344e-04
3.21108333333333e+00 4.44604091845148e-02 7.18193761173647e-04
3.26791666666667e+00 4.19736341163283e-02 6.83998081048092e-04
3.32475000000000e+00 3.96259502182821e-02 6.51332019555005e-04
3.38158333333333e+00 3.74095777881276e-02 6.20135355504227e-04
3.43841666666667e+00 3.53171722736209e-02 5.90349487757344e-04
3.49525000000000e+00 3.33417999137886e-02 5.61917473656570e-04
3.55208333333333e+00 3.14769147642810e-02 5.34784051464266e-04
3.60891666666667e+00 2.97163370211839e-02 5.08895656013736e-04
3.66575000000000e+00 2.80542325261024e-02 4.84200424963241e-04
3.72258333333333e+00 2.64850934348769e-02 4.60648193906274e-04
3.77941666666667e+00 2.50037199783460e-02 4.38190487710669e-04
3.83625000000000e+00 2.36052032182984e-02 4.16780505785991e-04
3.89308333333333e+00 2.22849087817900e-02 3.96373099694119e-04
3.94991666666667e+00 2.10384615139437e-02 3.76924749031934e-04
4.00675000000000e+00 1.98617309690740e-02 3.58393533579375e-04
4.06358333333333e+00 1.87508177244618e-02 3.40739100299596e-04
4.12041666666667e+00 1.77020404666596e-02 3.23922629973373e-04
4.17725000000000e+00 1.67119237839118e-02 3.07906801731084e-04
4.23408333333333e+00 1.57771866503355e-02 2.92655754237408e-04
4.29091666666667e+00 1.48947315598897e-02 2.78135047395563e-04
4.34775000000000e+00 1.40616342550504e-02 2.64311623076758e-04
4.40458333333333e+00 1.32751340372103e-02 2.51153763787877e-04
4.46141666666667e+00 1.25326246236428e-02 2.38631052410739e-04
4.51825000000000e+00 1.18316455053000e-02 2.26714331732610e-04
4.57508333333333e+00 1.11698737938273e-02 2.15375662824951e-04
4.63191666666667e+00 1.05451165283239e-02 2.04588284814079e-04
4.68875000000000e+00 9.95530340385771e-03 1.94326574950255e-04
4.74558333333333e+00 9.39847991141268e-03 1.84566008161151e-04
4.80241666666667e+00 8.87280086456547e-03 1.75283118157872e-04
4.85925000000000e+00 8.37652428129947e-03 1.66455459162014e-04
4.91608333333333e+00 7.90800561184882e-03 1.58061567553639e-04
4.97291666666667e+00 7.46569229185639e-03 1.50080925124093e-04
5.02975000000000e+00 7.04811859455913e-03 1.42493923141632e-04
5.08658333333333e+00 6.65390077400650e-03 1.35281826629537e-04
5.14341666666667e+00 6.28173248193533e-03 1.28426740229441e-04
5.20025000000000e+00 5.93038043641519e-03 1.21911574977441e-04
5.25708333333333e+00 5.59868033527785e-03 1.15720015479512e-04
5.31391666666667e+00 5.28553299975211e-03 1.09836488606421e-04
5.37075000000000e+00 4.98990073007123e-03 1.04246133137978e-04
5.42758333333333e+00 4.71080386697042e-03 9.89347699182315e-05
5.48441666666667e+00 4.44731754684050e-03 9.38888734366442e-05
5.54125000000000e+00 4.19856863534011e-03 8.90955443522275e-05
5.59808333333333e+00 3.96373283418804e-03 8.45424825869782e-05
5.65491666666667e+00 3.74203195086724e-03 8.02179617366637e-05
5.71175000000000e+00 3.53273131856700e-03 7.61108043901191e-05
5.76858333333333e+00 3.33513736179480e-03 7.22103580389591e-05
5.82541666666667e+00 3.14859529903805e-03 6.85064721897176e-05
5.88225000000000e+00 2.97248697190204e-03 6.49894763325826e-05
5.93908333333333e+00 2.80622879677970e-03 6.16501584962256e-05
5.99591666666667e+00 2.64926983181612e-03 5.84797448897878e-05
6.05275000000000e+00 2.50108995034244e-03 5.54698803396310e-05
6.10958333333333e+00 2.36119811738064e-03 5.26126092910438e-05
6.16641666666667e+00 2.22913076314234e-03 4.99003577853768e-05
6.22325000000000e+00 2.10445024615248e-03 4.73259161655116e-05
6.28008333333333e+00 1.98674340307527e-03 4.48824223145658e-05
6.33691666666667e+00 1.87562018013893e-03 4.25633457642887e-05
6.39375000000000e+00 1.77071234000405e-03 4.03624724644070e-05
6.45058333333333e+00 1.67167224156600e-03 3.82738900473978e-05
6.50741666666667e+00 1.57817168840524e-03 3.62919738646164e-05
6.56425000000000e+00 1.48990084074223e-03 3.44113736174876e-05
6.62108333333333e+00 1.40656718874554e-03 3.26270004434078e-05
6.67791666666667e+00 1.32789458359282e-03 3.09340146827542e-05
6.73475000000000e+00 1.25362232198564e-03 2.93278141781494e-05
6.79158333333333e+00 1.18350428227616e-03 2.78040229870330e-05
6.84841666666667e+00 1.11730810918108e-03 2.63584806933688e-05
6.90525000000000e+00 1.05481444348861e-03 2.49872321928347e-05
6.96208333333333e+00 9.95816195183127e-04 2.36865178507268e-05
7.01891666666667e+00 9.40117857446275e-04 2.24527641851688e-05
7.07575000000000e+00 8.87534858528934e-04 2.12825749695736e-05
7.13258333333333e+00 8.37892950147868e-04 2.01727226690214e-05
7.18941666666667e+00 7.91027630272164e-04 1.91201403358966e-05
7.24625000000000e+00 7.46783597784993e-04 1.81219138752863e-05
7.30308333333333e+00 7.05014237871873e-04 1.71752746078959e-05
7.35991666666667e+00 6.65581136341470e-04 1.62775922334770e-05
7.41675000000000e+00 6.28353620775039e-04 1.54263681192464e-05
7.47358333333333e+00 5.93208327524828e-04 1.46192288521574e-05
7.53041666666667e+00 5.60028793053896e-04 1.38539201396744e-05
7.58725000000000e+00 5.28705067856604e-04 1.31283009953359e-05
7.64408333333333e+00 4.99133352124951e-04 1.24403381573731e-05
7.70091666666667e+00 4.71215651893865e-04 1.17881008099787e-05
7.75775000000000e+00 4.44859454191544e-04 1.11697555534790e-05
7.81458333333333e+00 4.19977420483975e-04 1.05835615796380e-05
7.87141666666667e+00 3.96487097348925e-04 1.00278661093331e-05
7.92825000000000e+00 3.74310643145335e-04 9.50110004725657e-06
7.98508333333333e+00 3.53374570073250e-04 9.00177381662616e-06
8.04191666666667e+00 3.33609500729369e-04 8.52847342098334e-06
8.09875000000000e+00 3.14949938124842e-04 8.07985669483165e-06
8.15558333333333e+00 2.97334048650883e-04 7.65464971181127e-06
8.21241666666667e+00 2.80703457240008e-04 7.25164338914157e-06
8.26925000000000e+00 2.65003053857408e-04 6.86969025607095e-06
8.32608333333333e+00 2.50180810885175e-04 6.50770135986617e-06
8.38291666666667e+00 2.36187610767155e-04 6.16464334121246e-06
8.43975000000000e+00 2.22977083189382e-04 5.83953565181394e-06
8.49658333333333e+00 2.10505451424619e-04 5.53144789181874e-06
8.55341666666667e+00 1.98731387309563e-04 5.23949729329904e-06
8.61025000000000e+00 1.87615874247239e-04 4.96284632683671e-06
8.66708333333333e+00 1.77122077919161e-04 4.70070041230024e-06
8.72391666666667e+00 1.67215224260509e-04 4.45230575540418e-06
8.78075000000000e+00 1.57862484189284e-04 4.21694729069588e-06
8.83758333333333e+00 1.49032864821725e-04 3.99394671498325e-06
8.89441666666667e+00 1.40697106798424e-04 3.78266062897840e-06
8.95125000000000e+00 1.32827587294518e-04 3.58247877083379e-06
9.00808333333333e+00 1.25398228486839e-04 3.39282232806061e-06
9.06491666666667e+00 1.18384411162268e-04 3.21314234246467e-06
9.12175000000000e+00 1.11762893109728e-04 3.04291819433287e-06
9.17858333333333e+00 1.05511732103168e-04 2.88165615445447e-06
9.23541666666667e+00 9.96102132101136e-05 2.72888801602776e-06
9.29225000000000e+00 9.40387801260037e-05 2.58416979484259e-06
9.34908333333333e+00 8.87789703710138e-05 2.44708048809261e-06
9.40591666666667e+00 8.38133541261953e-05 2.31722090174120e-06
9.46275000000000e+00 7.91254764575995e-05 2.19421253665066e-06
9.51958333333333e+00 7.46998027899946e-05 2.07769652532458e-06
9.57641666666667e+00 7.05216674425289e-05 1.96733262743682e-06
9.63325000000000e+00 6.65772250156080e-05 1.86279827589063e-06
9.69008333333333e+00 6.28534045117285e-05 1.76378766652261e-06
9.74691666666667e+00 5.93378660324999e-05 1.67001089818354e-06
9.80375000000000e+00 5.60189598751319e-05 1.58119315623329e-06
9.86058333333333e+00 5.28856879290734e-05 1.49707393363360e-06
9.91741666666667e+00 4.99276672401474e-05 1.41740629518350e-06
9.97425000000000e+00 4.71350955939662e-05 1.34195617987508e-06
1.00310833333333e+01 4.44987190270178e-05 1.27050173131449e-06
1.00879166666667e+01 4.20098011993977e-05 1.20283267204779e-06
1.01447500000000e+01 3.96600943965632e-05 1.13874971040466e-06
1.02015833333333e+01 3.74418121975583e-05 1.07806395943471e-06
1.02584166666667e+01 3.53476037368535e-05 1.02059640573308e-06
1.03152500000000e+01 3.33705292781000e-05 9.66177405825671e-07
1.03720833333333e+01 3.15040372237700e-05 9.14646186423616e-07
1.04289166666667e+01 2.97419424578366e-05 8.65850391363846e-07
1.04857500000000e+01 2.80784057941415e-05 8.19645651267660e-07
1.05425833333333e+01 2.65079146319052e-05 7.75895157002957e-07
1.05994166666667e+01 2.50252647322457e-05 7.34469272646927e-07
1.06562500000000e+01 2.36255429265236e-05 6.95245167919088e-07
1.07130833333333e+01 2.23041108395534e-05 6.58106454267811e-07
1.07699166666667e+01 2.10565895555345e-05 6.22942854374954e-07
1.08267500000000e+01 1.98788450692428e-05 5.89649888337326e-07
1.08835833333333e+01 1.87669745904617e-05 5.58128563296788e-07
1.09404166666667e+01 1.77172936412115e-05 5.28285091340561e-07
1.09972500000000e+01 1.67263238146945e-05 5.00030621677513e-07
1.10540833333333e+01 1.57907812516094e-05 4.73280976025973e-07
1.11109166666667e+01 1.49075657831974e-05 4.47956407915100e-07
1.11677500000000e+01 1.40737506318670e-05 4.23981374200470e-07
1.12245833333333e+01 1.32865727149710e-05 4.01284309538200e-07
1.12814166666667e+01 1.25434235093010e-05 3.79797421085986e-07
1.13382500000000e+01 1.18418403853921e-05 3.59456493649072e-07
1.13950833333333e+01 1.11794984489588e-05 3.40200697527737e-07
1.14519166666667e+01 1.05542028538975e-05 3.21972413472229e-07
1.15087500000000e+01 9.96388151113015e-06 3.04717066565412e-07
1.15655833333333e+01 9.40657822385204e-06 2.88382962554150e-07
1.16224166666667e+01 8.88044621937717e-06 2.72921138648873e-07
1.16792500000000e+01 8.38374201448604e-06 2.58285221950531e-07
1.17360833333333e+01 7.91481963930946e-06 2.44431290083490e-07
1.17929166666667e+01 7.47212519476343e-06 2.31317744063700e-07
1.18497500000000e+01 7.05419169095396e-06 2.18905187680598e-07
1.19065833333333e+01 6.65963418705790e-06 2.07156308855661e-07
1.19634166666667e+01 6.28714521173407e-06 1.96035771347359e-07
1.20202500000000e+01 5.93549042023787e-06 1.85510112016489e-07
1.20770833333333e+01 5.60350450503762e-06 1.75547639854640e-07
1.21339166666667e+01 5.29008734237120e-06 1.66118343761243e-07
1.21907500000000e+01 4.99420033820684e-06 1.57193805065393e-07
1.22475833333333e+01 4.71486298736910e-06 1.48747111614044e-07
1.23044166666667e+01 4.45114963110542e-06 1.40752779257309e-07
1.23612500000000e+01 4.20218638262875e-06 1.33186677381091e-07
1.24180833333333e+01 3.96714823191064e-06 1.26025955826387e-07
1.24749166666667e+01 3.74525631737667e-06 1.19248978062658e-07
1.25317500000000e+01 3.53577533909901e-06 1.12835257812399e-07
1.25885833333333e+01 3.33801112272274e-06 1.06765396899472e-07
1.26454166666667e+01 3.15130832377037e-06 1.01021028384826e-07
1.27022500000000e+01 2.97504825113466e-06 9.55847626440995e-08
1.27590833333333e+01 2.80864681732715e-06 9.04401345222348e-08
1.28159166666667e+01 2.65155260679740e-06 8.55715549579558e-08
1.28727500000000e+01 2.50324504464566e-06 8.09642651152160e-08
1.29295833333333e+01 2.36323267192935e-06 7.66042914601124e-08
1.29864166666667e+01 2.23105152027849e-06 7.24784046163746e-08
1.30432500000000e+01 2.10626357107100e-06 6.85740803565472e-08
1.31000833333333e+01 1.98845530424835e-06 6.48794614213001e-08
1.31569166666667e+01 1.87723633066026e-06 6.13833225327746e-08
1.32137500000000e+01 1.77223809563118e-06 5.80750372268165e-08
1.32705833333333e+01 1.67311265791082e-06 5.49445454090756e-08
1.33274166666667e+01 1.57953153888214e-06 5.19823236109014e-08
1.33842500000000e+01 1.49118463175506e-06 4.91793567938857e-08
1.34410833333333e+01 1.40777917415630e-06 4.65271107859665e-08
1.34979166666667e+01 1.32903877981410e-06 4.40175069994563e-08
1.35547500000000e+01 1.25470252076409e-06 4.16428984672849e-08
1.36115833333333e+01 1.18452406287026e-06 3.93960464293293e-08
1.36684166666667e+01 1.11827085105235e-06 3.72700988473881e-08
1.37252500000000e+01 1.05572333706188e-06 3.52585700419437e-08
1.37820833333333e+01 9.96674252096099e-07 3.33553208073012e-08
1.38389166666667e+01 9.40927921221588e-07 3.15545401567131e-08
1.38957500000000e+01 8.88299613631435e-07 2.98507280219049e-08
1.39525833333333e+01 8.38614930611268e-07 2.82386783680179e-08
1.40094166666667e+01 7.91709228673206e-07 2.67134636860697e-08
1.40662500000000e+01 7.47427072867237e-07 2.52704202972166e-08
1.41230833333333e+01 7.05621721806392e-07 2.39051340172823e-08
1.41799166666667e+01 6.66154642273301e-07 2.26134269853923e-08
1.42367500000000e+01 6.28895049240335e-07 2.13913451829636e-08
1.42935833333333e+01 5.93719472561857e-07 2.02351462647493e-08
1.43504166666667e+01 5.60511348548956e-07 1.91412883735989e-08
1.44072500000000e+01 5.29160632945489e-07 1.81064195421701e-08
1.44640833333333e+01 4.99563436336292e-07 1.71273673646304e-08
1.45209166666667e+01 4.71621680485530e-07 1.62011294996014e-08
1.45777500000000e+01 4.45242772697158e-07 1.53248646720403e-08
1.46345833333333e+01 4.20339299041813e-07 1.44958839084645e-08
1.46914166666667e+01 3.96828735189418e-07 1.37116424745561e-08
1.47482500000000e+01 3.74633172417955e-07 1.29697322367990e-08
1.48050833333333e+01 3.53679059489903e-07 1.22678742255916e-08
1.48619166666667e+01 3.33896959338079e-07 1.16039117918279e-08
1.49187500000000e+01 3.15221318530887e-07 1.09758041237848e-08
1.49755833333333e+01 2.97590250083231e-07 1.03816199378088e-08
1.50324166666667e+01 2.80945328724745e-07 9.81953167042787e-09
1.50892500000000e+01 2.65231396928995e-07 9.28780997656542e-09
1.51460833333333e+01 2.50396382167287e-07 8.78481837754901e-09
1.52029166666667e+01 2.36391124641349e-07 8.30900833276155e-09
1.52597500000000e+01 2.23169214077173e-07 7.85891457129827e-09
1.53165833333333e+01 2.10686835959615e-07 7.43315055262472e-09
1.53734166666667e+01 1.98902626581668e-07 7.03040428514747e-09
1.54302500000000e+01 1.87777535723488e-07 6.64943436559873e-09
1.54870833333333e+01 1.77274697271856e-07 6.28906612942977e-09
1.55439166666667e+01 1.67359307254494e-07 5.94818810357512e-09
1.56007500000000e+01 1.57998508298702e-07 5.62574864671529e-09
1.56575833333333e+01 1.49161280768639e-07 5.32075268499713e-09
1.57144166666667e+01 1.40818340139937e-07 5.03225870319336e-09
1.57712500000000e+01 1.32942039783588e-07 4.75937589504639e-09
1.58280833333333e+01 1.25506279367221e-07 4.50126139564166e-09
1.58849166666667e+01 1.18486418503233e-07 4.25711772956560e-09
1.59417500000000e+01 1.11859194951442e-07 4.02619039418851e-09
1.59985833333333e+01 1.05602647546552e-07 3.80776551339305e-09
1.60554166666667e+01 9.96960435393013e-08 3.60116767358244e-09
1.61122500000000e+01 9.41198097723921e-08 3.40575787437375e-09
1.61690833333333e+01 8.88554678305118e-08 3.22093153975198e-09
1.62259166666667e+01 8.38855729031857e-08 3.04611668319644e-09
1.62827500000000e+01 7.91936558763638e-08 2.88077217013019e-09
1.63395833333333e+01 7.47641687666852e-08 2.72438603223090e-09
1.63964166666667e+01 7.05824332790272e-08 2.57647391179859e-09
1.64532500000000e+01 6.66345920824815e-08 2.43657758870125e-09
1.65100833333333e+01 6.29075628979354e-08 2.30426355178158e-09
1.65669166666667e+01 5.93889952130153e-08 2.17912168011623e-09
1.66237500000000e+01 5.60672292857747e-08 2.06076399433233e-09
1.66805833333333e+01 5.29312575133064e-08 1.94882344602127e-09
1.67374166666667e+01 4.99706880105477e-08 1.84295279993634e-09
1.67942500000000e+01 4.71757101160400e-08 1.74282357561789e-09
1.68510833333333e+01 4.45370618869090e-08 1.64812502164659e-09
1.69079166666667e+01 4.20459994531152e-08 1.55856316826178e-09
1.69647500000000e+01 3.96942679940377e-08 1.47385993038393e-09
1.70215833333333e+01 3.74740743882708e-08 1.39375223856816e-09
1.70784166666667e+01 3.53780614274955e-08 1.31799123614292e-09
1.71352500000000e+01 3.33992833961983e-08 1.24634151909410e-09
1.71920833333333e+01 3.15311830588097e-08 1.17858039984886e-09
1.72489166666667e+01 2.97675699625905e-08 1.11449722695595e-09
1.73057500000000e+01 2.81025998904214e-08 1.05389274101229e-09
1.73625833333333e+01 2.65307554974421e-08 9.96578451031135e-10
1.74194166666667e+01 2.50468280545482e-08 9.42376058016019e-10
1.74762500000000e+01 2.36459001599724e-08 8.91116909266484e-10
1.75330833333333e+01 2.23233294466696e-08 8.42641470160407e-10
1.75899166666667e+01 2.10747332208340e-08 7.96798835801707e-10
1.76467500000000e+01 1.98959739154232e-08 7.53446268721231e-10
1.77035833333333e+01 1.87831453813140e-08 7.12448751513641e-10
1.77604166666667e+01 1.77325599617663e-08 6.73678573139674e-10
1.78172500000000e+01 1.67407362530144e-08 6.37014937312920e-10
1.78740833333333e+01 1.58043875694453e-08 6.02343583646591e-10
1.79309166666667e+01 1.49204110677323e-08 5.69556437229121e-10
