Energy (eV)          EEDF (eV^-(3/2))     First Anisotropy
3.11956521739130e-02 4.69933795508676e-02 2.59928049458746e-05
9.35869565217391e-02 4.66415342110728e-02 4.29050680307175e-05
1.55978260869565e-01 4.62923231800214e-02 5.65960138620931e-05
2.18369565217391e-01 4.59457267373258e-02 6.69706717320392e-05
2.80760869565217e-01 4.56017253061548e-02 7.56013943848573e-05
3.43152173913043e-01 4.52602994561548e-02 8.30831995036786e-05
4.05543478260870e-01 4.49214299048169e-02 8.97242705655012e-05
4.67934782608696e-01 4.45850975126384e-02 9.57108645484483e-05
5.30326086956522e-01 4.42512832828983e-02 1.01166610997657e-04
5.92717391304348e-01 4.39199683624882e-02 1.06178959404312e-04
6.55108695652174e-01 4.35911340386971e-02 1.10812696586679e-04
7.17500000000000e-01 4.32647617385028e-02 1.15117543863588e-04
7.79891304347826e-01 4.29408330289049e-02 1.19132739265718e-04
8.42282608695652e-01 4.26193296140044e-02 1.22889955957465e-04
9.04673913043478e-01 4.23002333357354e-02 1.26415243969648e-04
9.67065217391304e-01 4.19835261715329e-02 1.29730369319715e-04
1.02945652173913e+00 4.16691902334678e-02 1.32853764965163e-04
1.09184782608696e+00 4.13572077693218e-02 1.35801224673693e-04
1.15423913043478e+00 4.10475611555101e-02 1.38586418478047e-04
1.21663043478261e+00 4.07402329059630e-02 1.41221285106558e-04
1.27902173913043e+00 4.04352056602384e-02 1.43716334356942e-04
1.34141304347826e+00 4.01324621929024e-02 1.46080883936992e-04
1.40380434782609e+00 3.98319854026945e-02 1.48323247565137e-04
1.46619565217391e+00 3.95337583209646e-02 1.50450885660563e-04
1.52858695652174e+00 3.92377641037117e-02 1.52470528990804e-04
1.59097826086957e+00 3.89439860312915e-02 1.54388277580756e-04
1.65336956521739e+00 3.86524075130081e-02 1.56209684811521e-04
1.71576086956522e+00 3.83630120787576e-02 1.57939826462926e-04
1.77815217391304e+00 3.80757833852358e-02 1.59583358833473e-04
1.84054347826087e+00 3.77907052081428e-02 1.61144567981806e-04
1.90293478260870e+00 3.75077614478894e-02 1.62627411337061e-04
1.96532608695652e+00 3.72269361237457e-02 1.64035554421054e-04
2.02771739130435e+00 3.69482133733077e-02 1.65372400412203e-04
2.09010869565217e+00 3.66715774557161e-02 1.66641117682536e-04
2.15250000000000e+00 3.63970127452739e-02 1.67844662826396e-04
2.21489130434783e+00 3.61245037358821e-02 1.68985800891929e-04
2.27728260869565e+00 3.58540350350103e-02 1.70067123195916e-04
2.33967391304348e+00 3.55855913678240e-02 1.71091062940857e-04
2.40206521739130e+00 3.53191575714753e-02 1.72059909086734e-04
2.46445652173913e+00 3.50547185989483e-02 1.72975818415066e-04
2.52684782608696e+00 3.47922595146985e-02 1.73840827174869e-04
2.58923913043478e+00 3.45317654940241e-02 1.74656859771158e-04
2.65163043478261e+00 3.42732218252579e-02 1.75425738191600e-04
2.71402173913043e+00 3.40166139048942e-02 1.76149189696792e-04
2.77641304347826e+00 3.37619272406991e-02 1.76828853852786e-04
2.83880434782609e+00 3.35091474470604e-02 1.77466288936376e-04
2.90119565217391e+00 3.32582602479074e-02 1.78062977528002e-04
2.96358695652174e+00 3.30092514731127e-02 1.78620332376789e-04
3.02597826086957e+00 3.27621070578466e-02 1.79139700236858e-04
3.08836956521739e+00 3.25168130442321e-02 1.79622366812125e-04
3.15076086956522e+00 3.22733555772877e-02 1.80069560585499e-04
3.21315217391304e+00 3.20317209073362e-02 1.80482456419979e-04
3.27554347826087e+00 3.17918953861123e-02 1.80862178906853e-04
3.33793478260870e+00 3.15538654690348e-02 1.81209805262367e-04
3.40032608695652e+00 3.13176177121656e-02 1.81526368690901e-04
3.46271739130435e+00 3.10831387715608e-02 1.81812860158107e-04
3.52510869565217e+00 3.08504154045461e-02 1.82070231314687e-04
3.58750000000000e+00 3.06194344662651e-02 1.82299396588472e-04
3.64989130434783e+00 3.03901829115814e-02 1.82501235209463e-04
3.71228260869565e+00 3.01626477917539e-02 1.82676593128010e-04
3.77467391304348e+00 2.99368162562383e-02 1.82826284756625e-04
3.83706521739130e+00 2.97126755494823e-02 1.82951094628969e-04
3.89945652173913e+00 2.94902130126311e-02 1.83051778790689e-04
3.96184782608696e+00 2.92694160809984e-02 1.83129066702636e-04
4.02423913043478e+00 2.90502722834362e-02 1.83183661861638e-04
4.08663043478261e+00 2.88327692432668e-02 1.83216243505273e-04
4.14902173913043e+00 2.86168946754023e-02 1.83227467670598e-04
4.21141304347826e+00 2.84026363877896e-02 1.83217968264450e-04
4.27380434782609e+00 2.81899822786248e-02 1.83188358101212e-04
4.33619565217391e+00 2.79789203377254e-02 1.83139229740276e-04
4.39858695652174e+00 2.77694386443137e-02 1.83071156816795e-04
4.46097826086956e+00 2.75615253664068e-02 1.82984694253429e-04
4.52336956521739e+00 2.73551687615459e-02 1.82880379473949e-04
4.58576086956522e+00 2.71503571742702e-02 1.82758733061878e-04
4.64815217391304e+00 2.69470790372870e-02 1.82620259453679e-04
4.71054347826087e+00 2.67453228690236e-02 1.82465447623182e-04
4.77293478260870e+00 2.65450772747407e-02 1.82294771605478e-04
4.83532608695652e+00 2.63463309445704e-02 1.82108691483584e-04
4.89771739130435e+00 2.61490726529272e-02 1.81907653381304e-04
4.96010869565217e+00 2.59532912590809e-02 1.81692090375049e-04
5.02250000000000e+00 2.57589757049199e-02 1.81462422918486e-04
5.08489130434783e+00 2.55661150159056e-02 1.81219059310843e-04
5.14728260869565e+00 2.53746982989011e-02 1.80962396168248e-04
5.20967391304348e+00 2.51847147430804e-02 1.80692818845181e-04
5.27206521739130e+00 2.49961536178199e-02 1.80410701861275e-04
5.33445652173913e+00 2.48090042735640e-02 1.80116409198745e-04
5.39684782608696e+00 2.46232561401227e-02 1.79810295021217e-04
5.45923913043478e+00 2.44388987261131e-02 1.79492703522714e-04
5.52163043478261e+00 2.42559216193814e-02 1.79163969600773e-04
5.58402173913043e+00 2.40743144850633e-02 1.78824419106360e-04
5.64641304347826e+00 2.38940670663294e-02 1.78474369141412e-04
5.70880434782609e+00 2.37151691824989e-02 1.78114128366273e-04
5.77119565217391e+00 2.35376107297499e-02 1.77743997195126e-04
5.83358695652174e+00 2.33613816795865e-02 1.77364268379345e-04
5.89597826086957e+00 2.31864720783051e-02 1.76975226803291e-04
5.95836956521739e+00 2.30128720473221e-02 1.76577150035030e-04
6.02076086956522e+00 2.28405717814303e-02 1.76170308495059e-04
6.08315217391304e+00 2.26695615494115e-02 1.75754965672247e-04
6.14554347826087e+00 2.24998316923392e-02 1.75331378351868e-04
6.20793478260870e+00 2.23313726241629e-02 1.74899796744627e-04
6.27032608695652e+00 2.21641748303206e-02 1.74460464972862e-04
6.33271739130435e+00 2.19982288672288e-02 1.74013620840058e-04
6.39510869565217e+00 2.18335253625344e-02 1.73559496292331e-04
6.45750000000000e+00 2.16700550135394e-02 1.73098317533498e-04
6.51989130434783e+00 2.15078085877050e-02 1.72630305185518e-04
6.58228260869565e+00 2.13467769211166e-02 1.72155674461788e-04
6.64467391304348e+00 2.11869509189645e-02 1.71674635315024e-04
6.70706521739130e+00 2.10283215540468e-02 1.71187392598273e-04
6.76945652173913e+00 2.08708798672280e-02 1.70694146139641e-04
6.83184782608696e+00 2.07146169662083e-02 1.70195091139436e-04
6.89423913043478e+00 2.05595240250432e-02 1.69690417926786e-04
6.95663043478261e+00 2.04055922843209e-02 1.69180312338749e-04
7.01902173913043e+00 2.02528130497675e-02 1.68664955790330e-04
7.08141304347826e+00 2.01011776926422e-02 1.68144525387193e-04
7.14380434782609e+00 1.99506776483771e-02 1.67619194051318e-04
7.20619565217391e+00 1.98013044169538e-02 1.67089130568886e-04
7.26858695652174e+00 1.96530495617788e-02 1.66554499935007e-04
7.33097826086957e+00 1.95059047092265e-02 1.66015463111236e-04
7.39336956521739e+00 1.93598615487678e-02 1.65472177355858e-04
7.45576086956522e+00 1.92149118316990e-02 1.64924796271045e-04
7.51815217391304e+00 1.90710473714665e-02 1.64373469890156e-04
7.58054347826087e+00 1.89282600424251e-02 1.63818344777581e-04
7.64293478260870e+00 1.87865417801471e-02 1.63259564057896e-04
7.70532608695652e+00 1.86458845803917e-02 1.62697267718845e-04
7.76771739130435e+00 1.85062804986698e-02 1.62131592374604e-04
7.83010869565217e+00 1.83677216503331e-02 1.61562671556734e-04
7.89250000000000e+00 1.82302002094123e-02 1.60990635745225e-04
7.95489130434783e+00 1.80937084088816e-02 1.60415612437060e-04
8.01728260869565e+00 1.79582385395229e-02 1.59837726226797e-04
8.07967391304348e+00 1.78237829501786e-02 1.59257098870715e-04
8.14206521739130e+00 1.76903340466402e-02 1.58673849362817e-04
8.20445652173913e+00 1.75578842918891e-02 1.58088093947653e-04
8.26684782608696e+00 1.74264262051701e-02 1.57499946381158e-04
8.32923913043478e+00 1.72959523615820e-02 1.56909517704426e-04
8.39163043478261e+00 1.71664553921291e-02 1.56316916494792e-04
8.45402173913043e+00 1.70379279826784e-02 1.55722248882463e-04
8.51641304347826e+00 1.69103628741644e-02 1.55125618601736e-04
8.57880434782609e+00 1.67837528615696e-02 1.54527127053356e-04
8.64119565217391e+00 1.66580907941186e-02 1.53926873309029e-04
8.70358695652174e+00 1.65333695744247e-02 1.53324954345096e-04
8.76597826086956e+00 1.64095821581002e-02 1.52721464826746e-04
8.82836956521739e+00 1.62867215537827e-02 1.52116497333404e-04
8.89076086956522e+00 1.61647808221759e-02 1.51510142367780e-04
8.95315217391304e+00 1.60437530762142e-02 1.50902488397148e-04
9.01554347826087e+00 1.59236314801245e-02 1.50293621905080e-04
9.07793478260870e+00 1.58044092495824e-02 1.49683627390047e-04
9.14032608695652e+00 1.56860796509228e-02 1.49072587576129e-04
9.20271739130435e+00 1.55686360007702e-02 1.48460583208221e-04
9.26510869565217e+00 1.54520716660439e-02 1.47847693255450e-04
9.32750000000000e+00 1.53363800630739e-02 1.47233994914762e-04
9.38989130434783e+00 1.52215546577314e-02 1.46619563644480e-04
9.45228260869565e+00 1.51075889645644e-02 1.46004473207707e-04
9.51467391304348e+00 1.49944765469203e-02 1.45388795704027e-04
9.57706521739130e+00 1.48822110160993e-02 1.44772601610869e-04
9.63945652173913e+00 1.47707860314708e-02 1.44155959776768e-04
9.70184782608696e+00 1.46601952997580e-02 1.43538937607554e-04
9.76423913043478e+00 1.45504325746914e-02 1.42921600875351e-04
9.82663043478261e+00 1.44414916569932e-02 1.42304013898521e-04
9.88902173913043e+00 1.43333663935781e-02 1.41686239540194e-04
9.95141304347826e+00 1.42260506776491e-02 1.41068339234298e-04
1.00138043478261e+01 1.41195384479150e-02 1.40450373020623e-04
1.00761956521739e+01 1.40138236886802e-02 1.39832399535528e-04
1.01385869565217e+01 1.39089004291810e-02 1.39214476148021e-04
1.02009782608696e+01 1.38047627433584e-02 1.38596658880709e-04
1.02633695652174e+01 1.37014047495223e-02 1.37979002473372e-04
1.03257608695652e+01 1.35988206100195e-02 1.37361560409525e-04
1.03881521739130e+01 1.34970045309043e-02 1.36744384942501e-04
1.04505434782609e+01 1.33959507616110e-02 1.36127527120900e-04
1.05129347826087e+01 1.32956535946290e-02 1.35511036813444e-04
1.05753260869565e+01 1.31961073651806e-02 1.34894962733251e-04
1.06377173913043e+01 1.30973064509011e-02 1.34279352461551e-04
1.07001086956522e+01 1.29992452715212e-02 1.33664252470821e-04
1.07625000000000e+01 1.29019182885517e-02 1.33049708449462e-04
1.08248913043478e+01 1.28053200040822e-02 1.32435764412282e-04
1.08872826086957e+01 1.27094449631552e-02 1.31822463332669e-04
1.09496739130435e+01 1.26142877507543e-02 1.31209847781583e-04
1.10120652173913e+01 1.25198429924060e-02 1.30597959017006e-04
1.10744565217391e+01 1.24261053538762e-02 1.29986837316421e-04
1.11368478260870e+01 1.23330695408689e-02 1.29376521996551e-04
1.11992391304348e+01 1.22407302987272e-02 1.28767051432609e-04
1.12616304347826e+01 1.21490824121366e-02 1.28158463077166e-04
1.13240217391304e+01 1.20581207048301e-02 1.27550793478573e-04
1.13864130434783e+01 1.19678400392962e-02 1.26944078298997e-04
1.14488043478261e+01 1.18782353164886e-02 1.26338352332063e-04
1.15111956521739e+01 1.17893014755384e-02 1.25733649520206e-04
1.15735869565217e+01 1.17010334934676e-02 1.25130002971347e-04
1.16359782608696e+01 1.16134263849062e-02 1.24527444975408e-04
1.16983695652174e+01 1.15264752018103e-02 1.23926007020676e-04
1.17607608695652e+01 1.14401750331828e-02 1.23325719809513e-04
1.18231521739130e+01 1.13545210047956e-02 1.22726613273835e-04
1.18855434782609e+01 1.12695082789148e-02 1.22128716590261e-04
1.19479347826087e+01 1.11851320540272e-02 1.21532058194946e-04
1.20103260869565e+01 1.11013875645691e-02 1.20936665798090e-04
1.20727173913043e+01 1.10182700806572e-02 1.20342566398167e-04
1.21351086956522e+01 1.09357749078215e-02 1.19749786295821e-04
1.21975000000000e+01 1.08538973867400e-02 1.19158351346239e-04
1.22598913043478e+01 1.07726328923158e-02 1.18568286252048e-04
1.23222826086957e+01 1.06919768354090e-02 1.17979615058775e-04
1.23846739130435e+01 1.06119246605707e-02 1.17392361656039e-04
1.24470652173913e+01 1.05324718464592e-02 1.16806549054278e-04
1.25094565217391e+01 1.04536139055845e-02 1.16222199643770e-04
1.25718478260870e+01 1.03753463840553e-02 1.15639335206681e-04
1.26342391304348e+01 1.02976648613271e-02 1.15057976928865e-04
1.26966304347826e+01 1.02205649499523e-02 1.14478145411399e-04
1.27590217391304e+01 1.01440422953332e-02 1.13899860681908e-04
1.28214130434783e+01 1.00680925754750e-02 1.13323142205669e-04
1.28838043478261e+01 9.99271150074264e-03 1.12748008896466e-04
1.29461956521739e+01 9.91789481361785e-03 1.12174479127321e-04
1.30085869565217e+01 9.84363828845891e-03 1.11602570740805e-04
1.30709782608696e+01 9.76993773126216e-03 1.11032301059276e-04
1.31333695652174e+01 9.69678897942499e-03 1.10463686895048e-04
1.31957608695652e+01 9.62418790151072e-03 1.09896744560168e-04
1.32581521739130e+01 9.55213039701530e-03 1.09331489876051e-04
1.33205434782609e+01 9.48061239613564e-03 1.08767938182948e-04
1.33829347826087e+01 9.40962985953983e-03 1.08206104349207e-04
1.34453260869565e+01 9.33917877813892e-03 1.07646002780375e-04
1.35077173913043e+01 9.26925517286056e-03 1.07087647428117e-04
1.35701086956522e+01 9.19985509442419e-03 1.06531051798962e-04
1.36325000000000e+01 9.13097462311805e-03 1.05976229152871e-04
1.36948913043478e+01 9.06260986808090e-03 1.05423191938315e-04
1.37572826086957e+01 8.99475696858269e-03 1.04871952184358e-04
1.38196739130435e+01 8.92741209229610e-03 1.04322521897429e-04
1.38820652173913e+01 8.86057143558695e-03 1.03774912483759e-04
1.39444565217391e+01 8.79423122329933e-03 1.03229134953509e-04
1.40068478260870e+01 8.72838770854245e-03 1.02685199928401e-04
1.40692391304348e+01 8.66303717247894e-03 1.02143117649215e-04
1.41316304347826e+01 8.59817592411485e-03 1.01602897983156e-04
1.41940217391304e+01 8.53380030009119e-03 1.01064550431054e-04
1.42564130434783e+01 8.46990666447700e-03 1.00528084134454e-04
1.43188043478261e+01 8.40649140856398e-03 9.99935078825691e-05
1.43811956521739e+01 8.34355095066274e-03 9.94608301191436e-05
1.44435869565217e+01 8.28108173590029e-03 9.89300589490514e-05
1.45059782608696e+01 8.21908023601959e-03 9.84012021448593e-05
1.45683695652174e+01 8.15754294918008e-03 9.78742671533771e-05
1.46307608695652e+01 8.09646639975996e-03 9.73492611019370e-05
1.46931521739130e+01 8.03584713815984e-03 9.68261908046027e-05
1.47555434782609e+01 7.97568174060791e-03 9.63050627682574e-05
1.48179347826087e+01 7.91596680896661e-03 9.57858831985940e-05
1.48803260869565e+01 7.85669897054064e-03 9.52686580059920e-05
1.49427173913043e+01 7.79787487788652e-03 9.47533928112816e-05
1.50051086956522e+01 7.73949120862352e-03 9.42400929514102e-05
1.50675000000000e+01 7.68154466524596e-03 9.37287636370446e-05
1.51298913043478e+01 7.62403197455878e-03 9.32194094992322e-05
1.51922826086957e+01 7.56694988863473e-03 9.27120349018677e-05
1.52546739130435e+01 7.51029518348141e-03 9.22066442579895e-05
1.53170652173913e+01 7.45406465924488e-03 9.17032415664677e-05
1.53794565217391e+01 7.39825514002890e-03 9.12018305741638e-05
1.54418478260870e+01 7.34286347371559e-03 9.07024147808984e-05
1.55042391304348e+01 7.28788653178735e-03 9.02049974443461e-05
1.55666304347826e+01 7.23332120915022e-03 8.97095815848379e-05
1.56290217391304e+01 7.17916442395845e-03 8.92161699900675e-05
1.56914130434783e+01 7.12541311744050e-03 8.87247652197307e-05
1.57538043478261e+01 7.07206425372620e-03 8.82353696100832e-05
1.58161956521739e+01 7.01911481967538e-03 8.77479852784313e-05
1.58785869565217e+01 6.96656182470749e-03 8.72626141274509e-05
1.59409782608696e+01 6.91440230063298e-03 8.67792578494958e-05
1.60033695652174e+01 6.86263330148549e-03 8.62979179309043e-05
1.60657608695652e+01 6.81125190335548e-03 8.58185956561239e-05
1.61281521739130e+01 6.76025520422510e-03 8.53412921117914e-05
1.61905434782609e+01 6.70964032380429e-03 8.48660081907392e-05
1.62529347826087e+01 6.65940440336808e-03 8.43927445959345e-05
1.63153260869565e+01 6.60954460559514e-03 8.39215018443636e-05
1.63777173913043e+01 6.56005811440752e-03 8.34522802708261e-05
1.64401086956522e+01 6.51094213481162e-03 8.29850800316647e-05
1.65025000000000e+01 6.46219389274030e-03 8.25199012306718e-05
1.65648913043478e+01 6.41381063460562e-03 8.20567435538886e-05
1.66272826086957e+01 6.36578962802063e-03 8.15956065199770e-05
1.66896739130435e+01 6.31812816076215e-03 8.11364897337626e-05
1.67520652173913e+01 6.27082354091374e-03 8.06793925130774e-05
1.68144565217391e+01 6.22387309671370e-03 8.02243140183597e-05
1.68768478260870e+01 6.17727417640415e-03 7.97712532559639e-05
1.69392391304348e+01 6.13102414808126e-03 7.93202090814007e-05
1.70016304347826e+01 6.08512039954657e-03 7.88711802025082e-05
1.70640217391304e+01 6.03956033815953e-03 7.84241651825911e-05
1.71264130434783e+01 5.99434139069100e-03 7.79791624434993e-05
1.71888043478261e+01 5.94946100317793e-03 7.75361702686335e-05
1.72511956521739e+01 5.90491664077911e-03 7.70951868059457e-05
1.73135869565217e+01 5.86070578763198e-03 7.66562100708066e-05
1.73759782608696e+01 5.81682594671058e-03 7.62192379488570e-05
1.74383695652174e+01 5.77327463968455e-03 7.57842681988848e-05
1.75007608695652e+01 5.73004940677907e-03 7.53512984555640e-05
1.75631521739130e+01 5.68714780663600e-03 7.49203262321738e-05
1.76255434782609e+01 5.64456741617591e-03 7.44913489232644e-05
1.76879347826087e+01 5.60230583046132e-03 7.40643638072761e-05
1.77503260869565e+01 5.56036066256082e-03 7.36393680491264e-05
1.78127173913043e+01 5.51872954341422e-03 7.32163587027388e-05
1.78751086956522e+01 5.47741012169884e-03 7.27953327135317e-05
1.79375000000000e+01 5.43640006369660e-03 7.23762870195120e-05
1.79998913043478e+01 5.39569705293736e-03 7.19592182560704e-05
1.80622826086957e+01 5.35529879074706e-03 7.15441229574917e-05
1.81246739130435e+01 5.31520299543464e-03 7.11309977610747e-05
1.81870652173913e+01 5.27540740239233e-03 7.07198391055666e-05
1.82494565217391e+01 5.23590976396779e-03 7.03106433352679e-05
1.83118478260870e+01 5.19670784933713e-03 6.99034067022245e-05
1.83742391304348e+01 5.15779944437891e-03 6.94981253684005e-05
1.84366304347826e+01 5.11918235154912e-03 6.90947954077964e-05
1.84990217391304e+01 5.08085438975703e-03 6.86934128085374e-05
1.85614130434783e+01 5.04281339424201e-03 6.82939734749429e-05
1.86238043478261e+01 5.00505721645128e-03 6.78964732295265e-05
1.86861956521739e+01 4.96758372391854e-03 6.75009078149987e-05
1.87485869565217e+01 4.93039080014351e-03 6.71072728961935e-05
1.88109782608696e+01 4.89347634447243e-03 6.67155640619659e-05
1.88733695652174e+01 4.85683827197943e-03 6.63257768271127e-05
1.89357608695652e+01 4.82047451334873e-03 6.59379066342030e-05
1.89981521739130e+01 4.78438301475779e-03 6.55519488553961e-05
1.90605434782609e+01 4.74856173776130e-03 6.51678987942378e-05
1.91229347826087e+01 4.71300865917604e-03 6.47857516873954e-05
1.91853260869565e+01 4.67772177096663e-03 6.44055027063809e-05
1.92477173913043e+01 4.64269908013209e-03 6.40271469592549e-05
1.93101086956522e+01 4.60793860859332e-03 6.36506794922873e-05
1.93725000000000e+01 4.57343839308132e-03 6.32760953714507e-05
1.94348913043478e+01 4.53919648485112e-03 6.29033894431028e-05
1.94972826086957e+01 4.50521095010061e-03 6.25325564967753e-05
1.95596739130435e+01 4.47147986932917e-03 6.21635914300856e-05
1.96220652173913e+01 4.43800133740769e-03 6.17964890042970e-05
1.96844565217391e+01 4.40477346347102e-03 6.14312439282726e-05
