Energy (eV)          EEDF (eV^-(3/2))     First Anisotropy
1.28750000000000e-02 6.59125921432798e+00 1.13621910937203e-02
3.86250000000000e-02 6.04782119564766e+00 1.80494297246008e-02
6.43750000000000e-02 5.54918870964984e+00 2.20107649821322e-02
9.01250000000000e-02 5.09166761700326e+00 2.40784402239634e-02
1.15875000000000e-01 4.67186835382924e+00 2.51285774326515e-02
1.41625000000000e-01 4.28668081997804e+00 2.55297000646766e-02
1.67375000000000e-01 3.93325133772362e+00 2.54880633990541e-02
1.93125000000000e-01 3.60896151017466e+00 2.51352114968470e-02
2.18875000000000e-01 3.31140882277311e+00 2.45613881661903e-02
2.44625000000000e-01 3.03838884416612e+00 2.38313461199658e-02
2.70375000000000e-01 2.78787889458542e+00 2.29929150746100e-02
2.96125000000000e-01 2.55802306074090e+00 2.20821028903660e-02
3.21875000000000e-01 2.34711844621046e+00 2.11263487269487e-02
3.47625000000000e-01 2.15360255546163e+00 2.01467087170027e-02
3.73375000000000e-01 1.97604171803905e+00 1.91593851750205e-02
3.99125000000000e-01 1.81312046715776e+00 1.81768313655667e-02
4.24875000000000e-01 1.66363179401327e+00 1.72085703993276e-02
4.50625000000000e-01 1.52646820560709e+00 1.62618149638858e-02
4.76375000000000e-01 1.40061351983921e+00 1.53419443179553e-02
5.02125000000000e-01 1.28513533708105e+00 1.44528765237181e-02
5.27875000000000e-01 1.17917813245443e+00 1.35973622207882e-02
5.53625000000000e-01 1.08195691764021e+00 1.27772186228563e-02
5.79375000000000e-01 9.92751425259944e-01 1.19935172973252e-02
6.05125000000000e-01 9.10900772745358e-01 1.12467357612183e-02
6.30875000000000e-01 8.35798566162552e-01 1.05368804428069e-02
6.56625000000000e-01 7.66888407717555e-01 9.86358677415736e-03
6.82375000000000e-01 7.03659773660326e-01 9.22620087509651e-03
7.08125000000000e-01 6.45644232048504e-01 8.62384631965092e-03
7.33875000000000e-01 5.92411972350050e-01 8.05547874522757e-03
7.59625000000000e-01 5.43568621174192e-01 7.51993050669172e-03
7.85375000000000e-01 4.98752320539911e-01 7.01594714623049e-03
8.11125000000000e-01 4.57631047036157e-01 6.54221711307300e-03
8.36875000000000e-01 4.19900152012728e-01 6.09739590155072e-03
8.62625000000000e-01 3.85280104578179e-01 5.68012556473611e-03
8.88375000000000e-01 3.53514420683689e-01 5.28905039155178e-03
9.14125000000000e-01 3.24367762950411e-01 4.92282939852436e-03
9.39875000000000e-01 2.97624197162796e-01 4.58014617627308e-03
9.65625000000000e-01 2.73085592511057e-01 4.25971654004828e-03
9.91375000000000e-01 2.50570153730892e-01 3.96029435907246e-03
1.01712500000000e+00 2.29911074265774e-01 3.68067587790638e-03
1.04287500000000e+00 2.10955300473704e-01 3.41970279207807e-03
1.06862500000000e+00 1.93562397722986e-01 3.17626429780831e-03
1.09437500000000e+00 1.77603509976473e-01 2.94929830028479e-03
1.12012500000000e+00 1.62960405156302e-01 2.73779193532881e-03
1.14587500000000e+00 1.49524599216671e-01 2.54078153445961e-03
1.17162500000000e+00 1.37196552435311e-01 2.35735214247811e-03
1.19737500000000e+00 1.25884931969351e-01 2.18663667910154e-03
1.22312500000000e+00 1.15505935212184e-01 2.02781482134072e-03
1.24887500000000e+00 1.05982668938404e-01 1.88011167077644e-03
1.27462500000000e+00 9.72445796371733e-02 1.74279625929327e-03
1.30037500000000e+00 8.92269308136270e-02 1.61517993786119e-03
1.32612500000000e+00 8.18703233858845e-02 1.49661468536437e-03
1.35187500000000e+00 7.51202556245008e-02 1.38649136805057e-03
1.37762500000000e+00 6.89267193741570e-02 1.28423797473398e-03
1.40337500000000e+00 6.32438295661798e-02 1.18931784828202e-03
1.42912500000000e+00 5.80294842771184e-02 1.10122793002441e-03
1.45487500000000e+00 5.32450528149088e-02 1.01949703043601e-03
1.48062500000000e+00 4.88550895217987e-02 9.43684136672363e-04
1.50637500000000e+00 4.48270711737307e-02 8.73376765202776e-04
1.53212500000000e+00 4.11311560306958e-02 8.08189365825255e-04
1.55787500000000e+00 3.77399627529725e-02 7.47761781705076e-04
1.58362500000000e+00 3.46283675453423e-02 6.91757768707548e-04
1.60937500000000e+00 3.17733180264166e-02 6.39863576155324e-04
1.63512500000000e+00 2.91536624441194e-02 5.91786590197145e-04
1.66087500000000e+00 2.67499929720597e-02 5.47254040198785e-04
1.68662500000000e+00 2.45445019258490e-02 5.06011767933255e-04
1.71237500000000e+00 2.25208498341381e-02 4.67823058834473e-04
1.73812500000000e+00 2.06640443869694e-02 4.32467534168142e-04
1.76387500000000e+00 1.89603293646304e-02 3.99740102649915e-04
1.78962500000000e+00 1.73970827241331e-02 3.69449969790439e-04
1.81537500000000e+00 1.59627230882880e-02 3.41419703058026e-04
1.84112500000000e+00 1.46466239445936e-02 3.15484350812651e-04
1.86687500000000e+00 1.34390349182803e-02 2.91490612871144e-04
1.89262500000000e+00 1.23310095362573e-02 2.69296060505682e-04
1.91837500000000e+00 1.13143389467973e-02 2.48768403649736e-04
1.94412500000000e+00 1.03814911039205e-02 2.29784803082174e-04
1.96987500000000e+00 9.52555496592127e-03 2.12231225376844e-04
1.99562500000000e+00 8.74018929463042e-03 1.96001838437658e-04
2.02137500000000e+00 8.01957567609123e-03 1.80998445484920e-04
2.04712500000000e+00 7.35837541459948e-03 1.67129955414342e-04
2.07287500000000e+00 6.75168998075631e-03 1.54311887513837e-04
2.09862500000000e+00 6.19502472051113e-03 1.42465908592456e-04
2.12437500000000e+00 5.68425555633183e-03 1.31519400649417e-04
2.15012500000000e+00 5.21559843380632e-03 1.21405057287402e-04
2.17587500000000e+00 4.78558128731940e-03 1.12060507152145e-04
2.20162500000000e+00 4.39101831711150e-03 1.03427962758826e-04
2.22737500000000e+00 4.02898638714981e-03 9.54538931441129e-05
2.25312500000000e+00 3.69680336895445e-03 8.80887188602147e-05
2.27887500000000e+00 3.39200827093904e-03 8.12865279035231e-05
2.30462500000000e+00 3.11234300605308e-03 7.50048112448849e-05
2.33037500000000e+00 2.85573566265093e-03 6.92042167009851e-05
2.35612500000000e+00 2.62028515464895e-03 6.38483199564296e-05
2.38187500000000e+00 2.40424713725084e-03 5.89034116137612e-05
2.40762500000000e+00 2.20602108389738e-03 5.43382992136717e-05
2.43337500000000e+00 2.02413842869932e-03 5.01241232300102e-05
2.45912500000000e+00 1.85725168650652e-03 4.62341861037803e-05
2.48487500000000e+00 1.70412447000862e-03 4.26437934371784e-05
2.51062500000000e+00 1.56362232990869e-03 3.93301065228277e-05
2.53637500000000e+00 1.43470435030882e-03 3.62720054347688e-05
2.56212500000000e+00 1.31641543704179e-03 3.34499619565255e-05
2.58787500000000e+00 1.20787924181656e-03 3.08459216677177e-05
2.61362500000000e+00 1.10829166975579e-03 2.84431945543425e-05
2.63937500000000e+00 1.01691492222582e-03 2.62263535490530e-05
2.66512500000000e+00 9.33072030825075e-04 2.41811404466270e-05
2.69087500000000e+00 8.56141842035727e-04 2.22943786764272e-05
2.71662500000000e+00 7.85554415382257e-04 2.05538924481026e-05
2.74237500000000e+00 7.20786801003949e-04 1.89484318191647e-05
2.76812500000000e+00 6.61359165359280e-04 1.74676032634863e-05
2.79387500000000e+00 6.06831236359344e-04 1.61018053483148e-05
2.81962500000000e+00 5.56799041593933e-04 1.48421691541509e-05
2.84537500000000e+00 5.10891915485274e-04 1.36805030969234e-05
2.87112500000000e+00 4.68769753196817e-04 1.26092418353658e-05
2.89687500000000e+00 4.30120490952530e-04 1.16213989684700e-05
2.92262500000000e+00 3.94657794099549e-04 1.07105232484359e-05
2.94837500000000e+00 3.62118935786092e-04 9.87065805373336e-06
2.97412500000000e+00 3.32262850538752e-04 9.09630388482577e-06
2.99987500000000e+00 3.04868348318992e-04 8.38238366184459e-06
3.02562500000000e+00 2.79732475827629e-04 7.72421061912595e-06
3.05137500000000e+00 2.56669012916944e-04 7.11745860608851e-06
3.07712500000000e+00 2.35507092971046e-04 6.55813461751304e-06
3.10287500000000e+00 2.16089937033500e-04 6.04255338894096e-06
3.12862500000000e+00 1.98273692303963e-04 5.56731390469723e-06
3.15437500000000e+00 1.81926366398784e-04 5.12927767701871e-06
3.18012500000000e+00 1.66926849479985e-04 4.72554866498714e-06
3.20587500000000e+00 1.53164017008036e-04 4.35345471147042e-06
3.23162500000000e+00 1.40535906471121e-04 4.01053038511864e-06
3.25737500000000e+00 1.28948961991662e-04 3.69450112268207e-06
3.28312500000000e+00 1.18317341213750e-04 3.40326857456060e-06
3.30887500000000e+00 1.08562279336502e-04 3.13489706359643e-06
3.33462500000000e+00 9.96115055817961e-05 2.88760107371880e-06
3.36037500000000e+00 9.13987077732253e-05 2.65973369117746e-06
3.38612500000000e+00 8.38630410596070e-05 2.44977592679143e-06
3.41187500000000e+00 7.69486771433939e-05 2.25632685292130e-06
3.43762500000000e+00 7.06043906744302e-05 2.07809449377491e-06
3.46337500000000e+00 6.47831797448324e-05 1.91388741220507e-06
3.48912500000000e+00 5.94419176734172e-05 1.76260694037656e-06
3.51487500000000e+00 5.45410334999056e-05 1.62324000559327e-06
3.54062500000000e+00 5.00442188218322e-05 1.49485250620470e-06
3.56637500000000e+00 4.59181588022485e-05 1.37658319587483e-06
3.59212500000000e+00 4.21322853553800e-05 1.26763803761487e-06
3.61787500000000e+00 3.86585506817021e-05 1.16728499187064e-06
3.64362500000000e+00 3.54712194746611e-05 1.07484920563288e-06
3.66937500000000e+00 3.25466782595942e-05 9.89708572019403e-07
3.69512500000000e+00 2.98632604523293e-05 9.11289632075147e-07
3.72087500000000e+00 2.74010858414027e-05 8.39063792664357e-07
3.74662500000000e+00 2.51419133046927e-05 7.72543836298846e-07
3.77237500000000e+00 2.30690056693142e-05 7.11280700570724e-07
3.79812500000000e+00 2.11670057135834e-05 6.54860506546259e-07
3.82387500000000e+00 1.94218223924080e-05 6.02901817040442e-07
3.84962500000000e+00 1.78205264431982e-05 5.55053107138018e-07
3.87537500000000e+00 1.63512545988920e-05 5.10990430664982e-07
3.90112500000000e+00 1.50031216984522e-05 4.70415267552683e-07
3.92687500000000e+00 1.37661400437016e-05 4.33052538181942e-07
3.95262500000000e+00 1.26311454050496e-05 3.98648771854017e-07
3.97837500000000e+00 1.15897291279194e-05 3.66970417514954e-07
4.00412500000000e+00 1.06341758368837e-05 3.37802285765927e-07
4.02987500000000e+00 9.75740627598795e-06 3.10946112029846e-07
4.05562500000000e+00 8.95292486179062e-06 2.86219231519077e-07
4.08137500000000e+00 8.21477156056545e-06 2.63453357365037e-07
4.10712500000000e+00 7.53747773314587e-06 2.42493453932289e-07
4.13287500000000e+00 6.91602562028628e-06 2.23196697951388e-07
4.15862500000000e+00 6.34581116838579e-06 2.05431520670035e-07
4.18437500000000e+00 5.82260992016726e-06 1.89076724744434e-07
4.21012500000000e+00 5.34254571761141e-06 1.74020670075396e-07
4.23587500000000e+00 4.90206198528033e-06 1.60160523239637e-07
4.26162500000000e+00 4.49789538128167e-06 1.47401565578659e-07
4.28737500000000e+00 4.12705162066572e-06 1.35656555388126e-07
4.31312500000000e+00 3.78678329214187e-06 1.24845140002108e-07
4.33887500000000e+00 3.47456950376882e-06 1.14893313891179e-07
4.36462500000000e+00 3.18809720682269e-06 1.05732919193127e-07
4.39037500000000e+00 2.92524405948016e-06 9.73011853718695e-08
4.41612500000000e+00 2.68406270336155e-06 8.95403049557660e-08
4.44187500000000e+00 2.46276633644606e-06 8.23970425425130e-08
4.46762500000000e+00 2.25971547547521e-06 7.58223744757102e-08
4.49337500000000e+00 2.07340580977362e-06 6.97711567993043e-08
4.51912500000000e+00 1.90245705650130e-06 6.42018192817939e-08
4.54487500000000e+00 1.74560273477133e-06 5.90760834734587e-08
4.57062500000000e+00 1.60168078287399e-06 5.43587029180532e-08
4.59637500000000e+00 1.46962494909467e-06 5.00172237863802e-08
4.62212500000000e+00 1.34845689234409e-06 4.60217643338901e-08
4.64787500000000e+00 1.23727893407800e-06 4.23448117087593e-08
4.67362500000000e+00 1.13526740780865e-06 3.89610347516190e-08
4.69937500000000e+00 1.04166655693770e-06 3.58471115339470e-08
4.72512500000000e+00 9.55782935702254e-07 3.29815704797847e-08
4.75087500000000e+00 8.76980271753369e-07 3.03446440055358e-08
4.77662500000000e+00 8.04674752306104e-07 2.79181336957125e-08
4.80237500000000e+00 7.38330698938443e-07 2.56852861091603e-08
4.82812500000000e+00 6.77456598995612e-07 2.36306783810151e-08
4.85387500000000e+00 6.21601464198314e-07 2.17401128508695e-08
4.87962500000000e+00 5.70351489477470e-07 2.00005200077914e-08
4.90537500000000e+00 5.23326987282298e-07 1.83998690983196e-08
4.93112500000000e+00 4.80179574649440e-07 1.69270857947326e-08
4.95687500000000e+00 4.40589592193417e-07 1.55719763680753e-08
4.98262500000000e+00 4.04263735896888e-07 1.43251578539394e-08
5.00837500000000e+00 3.70932884155748e-07 1.31779937391185e-08
5.03412500000000e+00 3.40350103980624e-07 1.21225347342529e-08
5.05987500000000e+00 3.12288821583647e-07 1.11514642316930e-08
5.08562500000000e+00 2.86541143797196e-07 1.02580480792514e-08
5.11137500000000e+00 2.62916317888802e-07 9.43608832951550e-09
5.13712500000000e+00 2.41239318361658e-07 8.67988065111302e-09
5.16287500000000e+00 2.21349550271015e-07 7.98417511296716e-09
5.18862500000000e+00 2.03099659449908e-07 7.34414007528743e-09
5.21437500000000e+00 1.86354440829736e-07 6.75532894197948e-09
5.24012500000000e+00 1.70989836767938e-07 6.21364954845404e-09
5.26587500000000e+00 1.56892017961832e-07 5.71533597660043e-09
5.29162500000000e+00 1.43956540139532e-07 5.25692260508324e-09
5.31737500000000e+00 1.32087570280257e-07 4.83522021822842e-09
5.34312500000000e+00 1.21197176631440e-07 4.44729401068793e-09
5.36887500000000e+00 1.11204677262717e-07 4.09044333790297e-09
5.39462500000000e+00 1.02036042330519e-07 3.76218307421001e-09
5.42037500000000e+00 9.36233456249243e-08 3.46022645132923e-09
5.44612500000000e+00 8.59042613355292e-08 3.18246926001448e-09
5.47187500000000e+00 7.88216023081141e-08 2.92697530689527e-09
5.49762500000000e+00 7.23228963712528e-08 2.69196302706446e-09
5.52337500000000e+00 6.63599975940672e-08 2.47579316081884e-09
5.54912500000000e+00 6.08887295951132e-08 2.27695741019541e-09
5.57487500000000e+00 5.58685582598374e-08 2.09406799761200e-09
5.60062500000000e+00 5.12622914419182e-08 1.92584805506232e-09
5.62637500000000e+00 4.70358034237165e-08 1.77112277797284e-09
5.65212500000000e+00 4.31577820944890e-08 1.62881128304097e-09
5.67787500000000e+00 3.95994969733257e-08 1.49791911417474e-09
5.70362500000000e+00 3.63345863581962e-08 1.37753134507697e-09
5.72937500000000e+00 3.33388620241947e-08 1.26680623109018e-09
5.75512500000000e+00 3.05901300240774e-08 1.16496936667125e-09
5.78087500000000e+00 2.80680262634898e-08 1.07130830832045e-09
5.80662500000000e+00 2.57538656327341e-08 9.85167625972980e-10
5.83237500000000e+00 2.36305035773633e-08 9.05944348793060e-10
5.85812500000000e+00 2.16822090820429e-08 8.33083774010421e-10
5.88387500000000e+00 1.98945481266751e-08 7.66075609926355e-10
5.90962500000000e+00 1.82542767513660e-08 7.04450426506320e-10
5.93537500000000e+00 1.67492429380024e-08 6.47776389085367e-10
5.96112500000000e+00 1.53682965815246e-08 5.95656252654946e-10
5.98687500000000e+00 1.41012068839137e-08 5.47724595988154e-10
6.01262500000000e+00 1.29385865589020e-08 5.03645276507592e-10
6.03837500000000e+00 1.18718222858764e-08 4.63109088316564e-10
6.06412500000000e+00 1.08930108977368e-08 4.25831607210924e-10
6.08987500000000e+00 9.99490082995746e-09 3.91551207774703e-10
6.11562500000000e+00 9.17083839707161e-09 3.60027238846698e-10
6.14137500000000e+00 8.41471849856874e-09 3.31038344735318e-10
6.16712500000000e+00 7.72093938900557e-09 3.04380920562706e-10
6.19287500000000e+00 7.08436117724404e-09 2.79867691043300e-10
6.21862500000000e+00 6.50026774735589e-09 2.57326402852761e-10
6.24437500000000e+00 5.96433181908332e-09 2.36598621526544e-10
6.27012500000000e+00 5.47258288900483e-09 2.17538624548499e-10
6.29587500000000e+00 5.02137781489685e-09 2.00012382953785e-10
6.32162500000000e+00 4.60737382536447e-09 1.83896624381536e-10
6.34737500000000e+00 4.22750375478163e-09 1.69077971075369e-10
6.37312500000000e+00 3.87895332006818e-09 1.55452146847722e-10
6.39887500000000e+00 3.55914027095766e-09 1.42923247500806e-10
6.42462500000000e+00 3.26569525928966e-09 1.31403069635813e-10
6.45037500000000e+00 2.99644428559636e-09 1.20810493186012e-10
6.47612500000000e+00 2.74939259293780e-09 1.11070913381215e-10
6.50187500000000e+00 2.52270988866285e-09 1.02115718193399e-10
6.52762500000000e+00 2.31471678461066e-09 9.38818076282867e-11
6.55337500000000e+00 2.12387235529419e-09 8.63111515176798e-11
6.57912500000000e+00 1.94876272189024e-09 7.93503827342584e-11
6.60487500000000e+00 1.78809057745987e-09 7.29504229961745e-11
6.63062500000000e+00 1.64066557579649e-09 6.70661386548878e-11
6.65637500000000e+00 1.50539551269686e-09 6.16560240677596e-11
6.68212500000000e+00 1.38127823432125e-09 5.66819103484289e-11
6.70787500000000e+00 1.26739421269541e-09 5.21086974642540e-11
6.73362500000000e+00 1.16289973334962e-09 4.79041078122901e-11
6.75937500000000e+00 1.06702064462529e-09 4.40384595545559e-11
6.78512500000000e+00 9.79046622340459e-10 4.04844581307134e-11
6.81087500000000e+00 8.98325907323822e-10 3.72170044926990e-11
6.83662500000000e+00 8.24260476830021e-10 3.42130187221820e-11
6.86237500000000e+00 7.56301614063488e-10 3.14512777987808e-11
6.88812500000000e+00 6.93945842987439e-10 2.89122663854764e-11
6.91387500000000e+00 6.36731198300897e-10 2.65780395883202e-11
6.93962500000000e+00 5.84233802949713e-10 2.44320967309410e-11
6.96537500000000e+00 5.36064727815934e-10 2.24592652611181e-11
6.99112500000000e+00 4.91867110320398e-10 2.06455939773110e-11
7.01687500000000e+00 4.51313510591597e-10 1.89782548280236e-11
7.04262500000000e+00 4.14103485613897e-10 1.74454525966780e-11
7.06837500000000e+00 3.79961363383061e-10 1.60363418396903e-11
7.09412500000000e+00 3.48634200578845e-10 1.47409504960620e-11
7.11987500000000e+00 3.19889908623981e-10 1.35501096333809e-11
7.14562500000000e+00 2.93515534246379e-10 1.24553888379739e-11
7.17137500000000e+00 2.69315681806033e-10 1.14490367963873e-11
7.19712500000000e+00 2.47111065698369e-10 1.05239266516402e-11
7.22287500000000e+00 2.26737182109443e-10 9.67350575107493e-12
7.24862500000000e+00 2.08043090282663e-10 8.89174943332931e-12
7.27437500000000e+00 1.90890294267962e-10 8.17311853020641e-12
7.30012500000000e+00 1.75151716868849e-10 7.51252028520442e-12
7.32587500000000e+00 1.60710758185751e-10 6.90527241437767e-12
7.35162500000000e+00 1.47460431780858e-10 6.34707005719474e-12
7.37737500000000e+00 1.35302572064680e-10 5.83395538529378e-12
7.40312500000000e+00 1.24147107032236e-10 5.36228965564919e-12
7.42887500000000e+00 1.13911390960889e-10 4.92872751178766e-12
7.45462500000000e+00 1.04519592126098e-10 4.53019335244340e-12
7.48037500000000e+00 9.59021309989692e-11 4.16385960153353e-12
7.50612500000000e+00 8.79951647634391e-11 3.82712672666383e-12
7.53187500000000e+00 8.07401143341435e-11 3.51760486563691e-12
7.55762500000000e+00 7.40832303708478e-11 3.23309693171409e-12
7.58337500000000e+00 6.79751950742433e-11 2.97158307875727e-12
7.60912500000000e+00 6.23707568129976e-11 2.73120641692077e-12
7.63487500000000e+00 5.72283948751786e-11 2.51025987834138e-12
7.66062500000000e+00 5.25100118603477e-11 2.30717414034979e-12
7.68637500000000e+00 4.81806514333983e-11 2.12050652115327e-12
7.71212500000000e+00 4.42082393491055e-11 1.94893076977119e-12
7.73787500000000e+00 4.05633458287585e-11 1.79122767828849e-12
7.76362500000000e+00 3.72189675284309e-11 1.64627645027136e-12
7.78937500000000e+00 3.41503274835944e-11 1.51304676450543e-12
7.81512500000000e+00 3.13346915479551e-11 1.39059147810562e-12
7.84087500000000e+00 2.87511999665939e-11 1.27803991754386e-12
7.86662500000000e+00 2.63807128356116e-11 1.17459171027658e-12
7.89237500000000e+00 2.42056683033619e-11 1.07951111345773e-12
7.91812500000000e+00 2.22099524627495e-11 9.92121799721727e-13
7.94387500000000e+00 2.03787799706849e-11 9.11802063237941e-13
7.96962500000000e+00 1.86985845102604e-11 8.37980412197887e-13
7.99537500000000e+00 1.71569182841321e-11 7.70131516617556e-13
8.02112500000000e+00 1.57423597945002e-11 7.07772482840247e-13
8.04687500000000e+00 1.44444292264712e-11 6.50459428427180e-13
8.07262500000000e+00 1.32535108079176e-11 5.97784333239996e-13
8.09837500000000e+00 1.21607815706334e-11 5.49372144466085e-13
8.12412500000000e+00 1.11581459850102e-11 5.04878115127987e-13
