Energy (eV)          EEDF (eV^-(3/2))     First Anisotropy
8.85964912280702e-03 2.25954508909207e-01 1.12143938739142e-04
2.65789473684210e-02 2.24585472444905e-01 1.85243270983109e-04
4.42982456140351e-02 2.23224730835822e-01 2.44705758776008e-04
6.20175438596491e-02 2.21872233829196e-01 2.89979636000193e-04
7.97368421052631e-02 2.20527931469539e-01 3.27821286243573e-04
9.74561403508772e-02 2.19191774108275e-01 3.60782160963373e-04
1.15175438596491e-01 2.17863712399746e-01 3.90181144905107e-04
1.32894736842105e-01 2.16543697279838e-01 4.16813792064581e-04
1.50614035087719e-01 2.15231680006532e-01 4.41207150332626e-04
1.68333333333333e-01 2.13927612120627e-01 4.63733322460802e-04
1.86052631578947e-01 2.12631445457129e-01 4.84667459290904e-04
2.03771929824561e-01 2.11343132136643e-01 5.04220330675837e-04
2.21491228070175e-01 2.10062624583444e-01 5.22557956214889e-04
2.39210526315789e-01 2.08789875502721e-01 5.39814099861992e-04
2.56929824561404e-01 2.07524837886411e-01 5.56098574765500e-04
2.74649122807018e-01 2.06267465006746e-01 5.71502965861571e-04
2.92368421052632e-01 2.05017710428717e-01 5.86104694275269e-04
3.10087719298246e-01 2.03775527993545e-01 5.99969977130384e-04
3.27807017543860e-01 2.02540871822207e-01 6.13156028391440e-04
3.45526315789474e-01 2.01313696310141e-01 6.25712728269321e-04
3.63245614035088e-01 2.00093956136495e-01 6.37683912246007e-04
3.80964912280702e-01 1.98881606251135e-01 6.49108380138242e-04
3.98684210526316e-01 1.97676601876922e-01 6.60020694637259e-04
4.16403508771930e-01 1.96478898505169e-01 6.70451822223394e-04
4.34122807017544e-01 1.95288451902808e-01 6.80429654419780e-04
4.51842105263158e-01 1.94105218101685e-01 6.89979434816625e-04
4.69561403508772e-01 1.92929153400062e-01 6.99124110369617e-04
4.87280701754386e-01 1.91760214358612e-01 7.07884624106820e-04
5.05000000000000e-01 1.90598357806135e-01 7.16280162062172e-04
5.22719298245614e-01 1.89443540830453e-01 7.24328362020947e-04
5.40438596491228e-01 1.88295720779395e-01 7.32045489628930e-04
5.58157894736842e-01 1.87154855257192e-01 7.39446589108083e-04
5.75877192982456e-01 1.86020902129136e-01 7.46545614082584e-04
5.93596491228070e-01 1.84893819513653e-01 7.53355540753925e-04
6.11315789473684e-01 1.83773565782927e-01 7.59888464926771e-04
6.29035087719298e-01 1.82660099559611e-01 7.66155686737348e-04
6.46754385964912e-01 1.81553379720673e-01 7.72167786008833e-04
6.64473684210526e-01 1.80453365390387e-01 7.77934688606747e-04
6.82192982456140e-01 1.79360015940689e-01 7.83465723845789e-04
6.99912280701754e-01 1.78273290988141e-01 7.88769675422716e-04
7.17631578947368e-01 1.77193150397146e-01 7.93854827740028e-04
7.35350877192982e-01 1.76119554273667e-01 7.98729007276846e-04
7.53070175438596e-01 1.75052462965379e-01 8.03399618497638e-04
7.70789473684210e-01 1.73991837058846e-01 8.07873676125749e-04
7.88508771929824e-01 1.72937637382229e-01 8.12157835149043e-04
8.06228070175439e-01 1.71889824999602e-01 8.16258417929174e-04
8.23947368421053e-01 1.70848361210944e-01 8.20181437683923e-04
8.41666666666667e-01 1.69813207549496e-01 8.23932619822024e-04
8.59385964912281e-01 1.68784325784063e-01 8.27517422235369e-04
8.77105263157895e-01 1.67761677913817e-01 8.30941053810408e-04
8.94824561403509e-01 1.66745226168168e-01 8.34208490350113e-04
9.12543859649123e-01 1.65734933004280e-01 8.37324489175096e-04
9.30263157894737e-01 1.64730761109030e-01 8.40293603353533e-04
9.47982456140351e-01 1.63732673394230e-01 8.43120194790064e-04
9.65701754385965e-01 1.62740632996401e-01 8.45808445348287e-04
9.83421052631579e-01 1.61754603274424e-01 8.48362367135085e-04
1.00114035087719e+00 1.60774547811214e-01 8.50785812793962e-04
1.01885964912281e+00 1.59800430409306e-01 8.53082485449417e-04
1.03657894736842e+00 1.58832215088664e-01 8.55255945641816e-04
1.05429824561404e+00 1.57869866089226e-01 8.57309617394926e-04
1.07201754385965e+00 1.56913347876490e-01 8.59246802229873e-04
1.08973684210526e+00 1.55962625113295e-01 8.61070681487641e-04
1.10745614035088e+00 1.55017662685643e-01 8.62784318583033e-04
1.12517543859649e+00 1.54078425692274e-01 8.64390670866467e-04
1.14289473684211e+00 1.53144879443376e-01 8.65892593023705e-04
1.16061403508772e+00 1.52216989459343e-01 8.67292840344597e-04
1.17833333333333e+00 1.51294721477280e-01 8.68594078930389e-04
1.19605263157895e+00 1.50378041426137e-01 8.69798886470103e-04
1.21377192982456e+00 1.49466915449239e-01 8.70909752715723e-04
1.23149122807018e+00 1.48561309895026e-01 8.71929088927452e-04
1.24921052631579e+00 1.47661191315833e-01 8.72859229666638e-04
1.26692982456140e+00 1.46766526466660e-01 8.73702434570253e-04
1.28464912280702e+00 1.45877282310844e-01 8.74460896627700e-04
1.30236842105263e+00 1.44993425997954e-01 8.75136741846258e-04
1.32008771929825e+00 1.44114924883621e-01 8.75732028719613e-04
1.33780701754386e+00 1.43241746521239e-01 8.76248756053651e-04
1.35552631578947e+00 1.42373858660813e-01 8.76688862235838e-04
1.37324561403509e+00 1.41511229253994e-01 8.77054232375340e-04
1.39096491228070e+00 1.40653826434019e-01 8.77346697422281e-04
1.40868421052632e+00 1.39801618533543e-01 8.77568033140380e-04
1.42640350877193e+00 1.38954574077090e-01 8.77719966951771e-04
1.44412280701754e+00 1.38112661779875e-01 8.77804178258369e-04
1.46184210526316e+00 1.37275850546680e-01 8.77822298827249e-04
1.47956140350877e+00 1.36444109476284e-01 8.77775918925223e-04
1.49728070175439e+00 1.35617407843418e-01 8.77666586036020e-04
1.51500000000000e+00 1.34795715114654e-01 8.77495803474440e-04
1.53271929824561e+00 1.33979000941552e-01 8.77265036341108e-04
1.55043859649123e+00 1.33167235159552e-01 8.76975711448181e-04
1.56815789473684e+00 1.32360387786862e-01 8.76629217324794e-04
1.58587719298246e+00 1.31558429028384e-01 8.76226909596703e-04
1.60359649122807e+00 1.30761329259401e-01 8.75770109481933e-04
1.62131578947368e+00 1.29969059039796e-01 8.75260102209090e-04
1.63903508771930e+00 1.29181589107815e-01 8.74698142289477e-04
1.65675438596491e+00 1.28398890379007e-01 8.74085453194974e-04
1.67447368421053e+00 1.27620933945142e-01 8.73423227122692e-04
1.69219298245614e+00 1.26847691077691e-01 8.72712629786657e-04
1.70991228070175e+00 1.26079133213025e-01 8.71954798801167e-04
1.72763157894737e+00 1.25315231965190e-01 8.71150842001580e-04
1.74535087719298e+00 1.24555959120211e-01 8.70301842177002e-04
1.76307017543860e+00 1.23801286635069e-01 8.69408855399392e-04
1.78078947368421e+00 1.23051186640838e-01 8.68472915416873e-04
1.79850877192982e+00 1.22305631429022e-01 8.67495031997763e-04
1.81622807017544e+00 1.21564593463246e-01 8.66476189224474e-04
1.83394736842105e+00 1.20828045373973e-01 8.65417349850380e-04
1.85166666666667e+00 1.20095959957493e-01 8.64319454738069e-04
1.86938596491228e+00 1.19368310174925e-01 8.63183422384892e-04
1.88710526315789e+00 1.18645069155026e-01 8.62010152915648e-04
1.90482456140351e+00 1.17926210181688e-01 8.60800526416948e-04
1.92254385964912e+00 1.17211706704538e-01 8.59555401230479e-04
1.94026315789474e+00 1.16501532334060e-01 8.58275617930456e-04
1.95798245614035e+00 1.15795660840632e-01 8.56961998701527e-04
1.97570175438596e+00 1.15094066153560e-01 8.55615346801432e-04
1.99342105263158e+00 1.14396722363584e-01 8.54236450217114e-04
2.01114035087719e+00 1.13703603711428e-01 8.52826080018806e-04
2.02885964912281e+00 1.13014684597407e-01 8.51384988678586e-04
2.04657894736842e+00 1.12329939576937e-01 8.49913913725545e-04
2.06429824561403e+00 1.11649343359607e-01 8.48413576096335e-04
2.08201754385965e+00 1.10972870811463e-01 8.46884683549255e-04
2.09973684210526e+00 1.10300496944345e-01 8.45327929050235e-04
2.11745614035088e+00 1.09632196924757e-01 8.43743989127911e-04
2.13517543859649e+00 1.08967946069667e-01 8.42133527293895e-04
2.15289473684210e+00 1.08307719845589e-01 8.40497193374454e-04
2.17061403508772e+00 1.07651493867690e-01 8.38835622919799e-04
2.18833333333333e+00 1.06999243901842e-01 8.37149440362456e-04
2.20605263157895e+00 1.06350945854790e-01 8.35439257449943e-04
2.22377192982456e+00 1.05706575782257e-01 8.33705671650239e-04
2.24149122807018e+00 1.05066109885036e-01 8.31949269323135e-04
2.25921052631579e+00 1.04429524508120e-01 8.30170625049459e-04
2.27692982456140e+00 1.03796796139825e-01 8.28370301034435e-04
2.29464912280702e+00 1.03167901413646e-01 8.26548850041196e-04
2.31236842105263e+00 1.02542817099175e-01 8.24706813877338e-04
2.33008771929825e+00 1.01921520109510e-01 8.22844721856916e-04
2.34780701754386e+00 1.01303987497625e-01 8.20963093751749e-04
2.36552631578947e+00 1.00690196455532e-01 8.19062438289033e-04
2.38324561403509e+00 1.00080124315973e-01 8.17143255916618e-04
2.40096491228070e+00 9.94737485439228e-02 8.15206037339610e-04
2.41868421052632e+00 9.88710467434596e-02 8.13251262033622e-04
2.43640350877193e+00 9.82719966543567e-02 8.11279401030491e-04
2.45412280701754e+00 9.76765761512567e-02 8.09290916263448e-04
2.47184210526316e+00 9.70847632428611e-02 8.07286259978986e-04
2.48956140350877e+00 9.64965360734587e-02 8.05265877321021e-04
2.50728070175439e+00 9.59118729150442e-02 8.03230204925660e-04
2.52500000000000e+00 9.53307521736311e-02 8.01179669495646e-04
2.54271929824561e+00 9.47531523860666e-02 7.99114690405951e-04
2.56043859649123e+00 9.41790522192408e-02 7.97035679065682e-04
2.57815789473684e+00 9.36084304693011e-02 7.94943038342785e-04
2.59587719298246e+00 9.30412660630353e-02 7.92837164983963e-04
2.61359649122807e+00 9.24775380505501e-02 7.90718448268880e-04
2.63131578947368e+00 9.19172256110782e-02 7.88587268645650e-04
2.64903508771930e+00 9.13603080500004e-02 7.86444000173487e-04
2.66675438596491e+00 9.08067647980860e-02 7.84289009903907e-04
2.68447368421053e+00 9.02565754107320e-02 7.82122657321231e-04
2.70219298245614e+00 8.97097195692168e-02 7.79945296613484e-04
2.71991228070175e+00 8.91661770738865e-02 7.77757275385537e-04
2.73763157894737e+00 8.86259278495060e-02 7.75558933354300e-04
2.75535087719298e+00 8.80889519424716e-02 7.73350604643539e-04
2.77307017543860e+00 8.75552295200791e-02 7.71132616512406e-04
2.79078947368421e+00 8.70247408716738e-02 7.68905291512140e-04
2.80850877192982e+00 8.64974664022355e-02 7.66668946248313e-04
2.82622807017544e+00 8.59733866373735e-02 7.64423890126921e-04
2.84394736842105e+00 8.54524822206889e-02 7.62170427534054e-04
2.86166666666667e+00 8.49347339130613e-02 7.59908857255552e-04
2.87938596491228e+00 8.44201225919393e-02 7.57639471949782e-04
2.89710526315789e+00 8.39086292523849e-02 7.55362560177609e-04
2.91482456140351e+00 8.34002350010873e-02 7.53078405220655e-04
2.93254385964912e+00 8.28949210609785e-02 7.50787283884531e-04
2.95026315789474e+00 8.23926687687570e-02 7.48489468552209e-04
2.96798245614035e+00 8.18934595742013e-02 7.46185226625734e-04
2.98570175438596e+00 8.13972750394847e-02 7.43874820018277e-04
3.00342105263158e+00 8.09040968401228e-02 7.41558507067728e-04
3.02114035087719e+00 8.04139067593813e-02 7.39236541409097e-04
3.03885964912281e+00 7.99266866925458e-02 7.36909170832970e-04
3.05657894736842e+00 7.94424186445943e-02 7.34576639221931e-04
3.07429824561404e+00 7.89610847295368e-02 7.32239185437674e-04
3.09201754385965e+00 7.84826671712868e-02 7.29897045144466e-04
3.10973684210526e+00 7.80071482983778e-02 7.27550449726069e-04
3.12745614035088e+00 7.75345105479626e-02 7.25199625189286e-04
3.14517543859649e+00 7.70647364636048e-02 7.22844794009565e-04
3.16289473684211e+00 7.65978086946339e-02 7.20486174612989e-04
3.18061403508772e+00 7.61337099955067e-02 7.18123980903240e-04
3.19833333333333e+00 7.56724232265993e-02 7.15758423983934e-04
3.21605263157895e+00 7.52139313492602e-02 7.13389711125926e-04
3.23377192982456e+00 7.47582174295181e-02 7.11018044721744e-04
3.25149122807018e+00 7.43052646360015e-02 7.08643624029664e-04
3.26921052631579e+00 7.38550562393191e-02 7.06266644677734e-04
3.28692982456140e+00 7.34075756114420e-02 7.03887298209955e-04
3.30464912280702e+00 7.29628062264237e-02 7.01505773714741e-04
3.32236842105263e+00 7.25207316557636e-02 6.99122256840373e-04
3.34008771929825e+00 7.20813355718477e-02 6.96736928798249e-04
3.35780701754386e+00 7.16446017459883e-02 6.94349968012568e-04
3.37552631578947e+00 7.12105140478266e-02 6.91961549148833e-04
3.39324561403509e+00 7.07790564459964e-02 6.89571844668861e-04
3.41096491228070e+00 7.03502130037315e-02 6.87181023885434e-04
3.42868421052632e+00 6.99239678820974e-02 6.84789252005254e-04
3.44640350877193e+00 6.95003053381259e-02 6.82396691704928e-04
3.46412280701754e+00 6.90792097242326e-02 6.80003502672492e-04
3.48184210526316e+00 6.86606654876419e-02 6.77609841187536e-04
3.49956140350877e+00 6.82446571709886e-02 6.75215861594110e-04
3.51728070175439e+00 6.78311694081945e-02 6.72821715399087e-04
3.53500000000000e+00 6.74201869274727e-02 6.70427550360116e-04
3.55271929824561e+00 6.70116945495657e-02 6.68033511978180e-04
3.57043859649123e+00 6.66056771871855e-02 6.65639743059483e-04
3.58815789473684e+00 6.62021198444573e-02 6.63246383313658e-04
3.60587719298246e+00 6.58010076174676e-02 6.60853570749244e-04
3.62359649122807e+00 6.54023256903878e-02 6.58461440814370e-04
3.64131578947368e+00 6.50060593382704e-02 6.56070125527278e-04
3.65903508771930e+00 6.46121939253840e-02 6.53679754890986e-04
3.67675438596491e+00 6.42207149046744e-02 6.51290456474793e-04
3.69447368421053e+00 6.38316078172265e-02 6.48902355029582e-04
3.71219298245614e+00 6.34448582927639e-02 6.46515573811398e-04
3.72991228070175e+00 6.30604520460016e-02 6.44130233762133e-04
3.74763157894737e+00 6.26783748792510e-02 6.41746452680271e-04
3.76535087719298e+00 6.22986126808447e-02 6.39364346563211e-04
3.78307017543860e+00 6.19211514246178e-02 6.36984028799051e-04
3.80078947368421e+00 6.15459771703661e-02 6.34605611433437e-04
3.81850877192982e+00 6.11730760603830e-02 6.32229204382623e-04
3.83622807017544e+00 6.08024343219111e-02 6.29854914637290e-04
3.85394736842105e+00 6.04340382656406e-02 6.27482847547102e-04
3.87166666666667e+00 6.00678742852037e-02 6.25113106435141e-04
3.88938596491228e+00 5.97039288566726e-02 6.22745792243199e-04
3.90710526315789e+00 5.93421885389774e-02 6.20381004734337e-04
3.92482456140351e+00 5.89826399706425e-02 6.18018841742474e-04
3.94254385964912e+00 5.86252698720743e-02 6.15659398413241e-04
3.96026315789474e+00 5.82700650441382e-02 6.13302768423640e-04
3.97798245614035e+00 5.79170123676724e-02 6.10949043613741e-04
3.99570175438596e+00 5.75660988030029e-02 6.08598313647534e-04
4.01342105263158e+00 5.72173113903233e-02 6.06250667155187e-04
4.03114035087719e+00 5.68706372466183e-02 6.03906191017318e-04
4.04885964912281e+00 5.65260635677994e-02 6.01564969641067e-04
4.06657894736842e+00 5.61835776273553e-02 5.99227086118823e-04
4.08429824561403e+00 5.58431667758848e-02 5.96892621522056e-04
4.10201754385965e+00 5.55048184414448e-02 5.94561655996138e-04
4.11973684210526e+00 5.51685201266229e-02 5.92234268072734e-04
4.13745614035088e+00 5.48342594105521e-02 5.89910533974172e-04
4.15517543859649e+00 5.45020239476215e-02 5.87590528723941e-04
4.17289473684210e+00 5.41718014670210e-02 5.85274325807665e-04
4.19061403508772e+00 5.38435797722885e-02 5.82961996860549e-04
4.20833333333333e+00 5.35173467416272e-02 5.80653612708104e-04
4.22605263157895e+00 5.31930903251420e-02 5.78349242710184e-04
4.24377192982456e+00 5.28707985467219e-02 5.76048954097383e-04
4.26149122807018e+00 5.25504595028175e-02 5.73752813026920e-04
4.27921052631579e+00 5.22320613620020e-02 5.71460884258824e-04
4.29692982456140e+00 5.19155923645343e-02 5.69173230857189e-04
4.31464912280702e+00 5.16010408226469e-02 5.66889915179851e-04
4.33236842105263e+00 5.12883951179358e-02 5.64610998252655e-04
4.35008771929825e+00 5.09776437031209e-02 5.62336539136331e-04
4.36780701754386e+00 5.06687751008852e-02 5.60066595930805e-04
4.38552631578947e+00 5.03617779034520e-02 5.57801225157611e-04
4.40324561403509e+00 5.00566407728498e-02 5.55540482709272e-04
4.42096491228070e+00 4.97533524384239e-02 5.53284423247815e-04
4.43868421052632e+00 4.94519016985000e-02 5.51033099596338e-04
4.45640350877193e+00 4.91522774192732e-02 5.48786563702428e-04
4.47412280701754e+00 4.88544685343971e-02 5.46544866340076e-04
4.49184210526316e+00 4.85584640445755e-02 5.44308056834583e-04
4.50956140350877e+00 4.82642530178022e-02 5.42076183966208e-04
4.52728070175439e+00 4.79718245870087e-02 5.39849295396050e-04
4.54500000000000e+00 4.76811679516209e-02 5.37627437085196e-04
4.56271929824561e+00 4.73922723765042e-02 5.35410654211961e-04
4.58043859649123e+00 4.71051271915669e-02 5.33198990887143e-04
4.59815789473684e+00 4.68197217913667e-02 5.30992489890903e-04
4.61587719298246e+00 4.65360456353275e-02 5.28791193533228e-04
4.63359649122807e+00 4.62540882455144e-02 5.26595143105964e-04
4.65131578947368e+00 4.59738392080915e-02 5.24404378328356e-04
4.66903508771930e+00 4.56952881723188e-02 5.22218938220259e-04
4.68675438596491e+00 4.54184248501709e-02 5.20038860830317e-04
4.70447368421053e+00 4.51432390159565e-02 5.17864182984503e-04
4.72219298245614e+00 4.48697205065147e-02 5.15694941105391e-04
4.73991228070175e+00 4.45978592191093e-02 5.13531170689123e-04
4.75763157894737e+00 4.43276451127945e-02 5.11372905776104e-04
4.77535087719298e+00 4.40590682074612e-02 5.09220179782865e-04
4.79307017543860e+00 4.37921185834692e-02 5.07073024985686e-04
4.81078947368421e+00 4.35267863818266e-02 5.04931473307596e-04
4.82850877192982e+00 4.32630618021791e-02 5.02795555815257e-04
4.84622807017544e+00 4.30009351041027e-02 5.00665302210026e-04
4.86394736842105e+00 4.27403966061895e-02 4.98540741626713e-04
4.88166666666667e+00 4.24814366856900e-02 4.96421902383183e-04
4.89938596491228e+00 4.22240457781587e-02 4.94308811748743e-04
4.91710526315789e+00 4.19682143776149e-02 4.92201496693958e-04
4.93482456140351e+00 4.17139330346390e-02 4.90099983410278e-04
4.95254385964912e+00 4.14611923575841e-02 4.88004296823941e-04
4.97026315789474e+00 4.12099830117062e-02 4.85914461357235e-04
4.98798245614035e+00 4.09602957188196e-02 4.83830500689236e-04
5.00570175438596e+00 4.07121212569544e-02 4.81752437534422e-04
5.02342105263158e+00 4.04654504605022e-02 4.79680294357371e-04
5.04114035087719e+00 4.02202742184110e-02 4.77614092913857e-04
5.05885964912281e+00 3.99765834753224e-02 4.75553853786741e-04
5.07657894736842e+00 3.97343692307430e-02 4.73499597111609e-04
5.09429824561404e+00 3.94936225387131e-02 4.71451342123769e-04
5.11201754385965e+00 3.92543345079390e-02 4.69409107845182e-04
5.12973684210526e+00 3.90164963000677e-02 4.67372912643085e-04
5.14745614035088e+00 3.87800991307643e-02 4.65342773783278e-04
5.16517543859649e+00 3.85451342689172e-02 4.63318708127549e-04
5.18289473684210e+00 3.83115930363155e-02 4.61300731913354e-04
5.20061403508772e+00 3.80794668073291e-02 4.59288860549566e-04
5.21833333333333e+00 3.78487470090275e-02 4.57283109271696e-04
5.23605263157895e+00 3.76194251195435e-02 4.55283492720091e-04
5.25377192982456e+00 3.73914926690844e-02 4.53290024513219e-04
5.27149122807018e+00 3.71649412391750e-02 4.51302717912772e-04
5.28921052631579e+00 3.69397624623469e-02 4.49321585613069e-04
5.30692982456140e+00 3.67159480218296e-02 4.47346639545867e-04
5.32464912280702e+00 3.64934896516568e-02 4.45377891505238e-04
5.34236842105263e+00 3.62723791351136e-02 4.43415352744578e-04
5.36008771929825e+00 3.60526083056870e-02 4.41459033568911e-04
5.37780701754386e+00 3.58341690463437e-02 4.39508943969384e-04
5.39552631578947e+00 3.56170532892307e-02 4.37565093225306e-04
5.41324561403509e+00 3.54012530157723e-02 4.35627490505011e-04
5.43096491228070e+00 3.51867602551839e-02 4.33696144477974e-04
5.44868421052632e+00 3.49735670853730e-02 4.31771062922477e-04
5.46640350877193e+00 3.47616656322462e-02 4.29852253335777e-04
5.48412280701754e+00 3.45510480694184e-02 4.27939722739913e-04
5.50184210526316e+00 3.43417066179239e-02 4.26033477501714e-04
5.51956140350877e+00 3.41336335463023e-02 4.24133523906259e-04
5.53728070175439e+00 3.39268211691878e-02 4.22239867786197e-04
5.55500000000000e+00 3.37212618481556e-02 4.20352514146621e-04
5.57271929824561e+00 3.35169479910615e-02 4.18471467747364e-04
5.59043859649123e+00 3.33138720517612e-02 4.16596732917460e-04
