Energy (eV)          EEDF (eV^-(3/2))     First Anisotropy
1.91111111111111e-02 1.01519904003772e-01 5.67527711913551e-05
5.73333333333333e-02 1.00741768159063e-01 9.36707026381388e-05
9.55555555555555e-02 9.99695966166429e-02 1.23538763363640e-04
1.33777777777778e-01 9.92033436576303e-02 1.46158569173503e-04
1.72000000000000e-01 9.84429639225200e-02 1.64964940446357e-04
2.10222222222222e-01 9.76884123926329e-02 1.81258041475857e-04
2.48444444444444e-01 9.69396443951178e-02 1.95711447438116e-04
2.86666666666667e-01 9.61966155970962e-02 2.08732345693020e-04
3.24888888888889e-01 9.54592820115257e-02 2.20591075267102e-04
3.63111111111111e-01 9.47275999852018e-02 2.31478906687661e-04
4.01333333333333e-01 9.40015261995173e-02 2.41537575526262e-04
4.39555555555556e-01 9.32810176680214e-02 2.50875884168699e-04
4.77777777777778e-01 9.25660317322464e-02 2.59579714702940e-04
5.16000000000000e-01 9.18565260639087e-02 2.67718407616460e-04
5.54222222222222e-01 9.11524586574477e-02 2.75349006294954e-04
5.92444444444444e-01 9.04537878292895e-02 2.82519183621959e-04
6.30666666666667e-01 8.97604722142637e-02 2.89269321450939e-04
6.68888888888889e-01 8.90724707665993e-02 2.95634026466857e-04
7.07111111111111e-01 8.83897427539118e-02 3.01643259326705e-04
7.45333333333333e-01 8.77122477560144e-02 3.07323191267514e-04
7.83555555555556e-01 8.70399456625597e-02 3.12696865805351e-04
8.21777777777778e-01 8.63727966698286e-02 3.17784716623229e-04
8.60000000000000e-01 8.57107612808791e-02 3.22604979065657e-04
8.98222222222222e-01 8.50538003006287e-02 3.27174020679919e-04
9.36444444444444e-01 8.44018748344242e-02 3.31506609180278e-04
9.74666666666667e-01 8.37549462850724e-02 3.35616132125507e-04
1.01288888888889e+00 8.31129763526017e-02 3.39514778900307e-04
1.05111111111111e+00 8.24759270298938e-02 3.43213692311220e-04
1.08933333333333e+00 8.18437606022845e-02 3.46723095950260e-04
1.12755555555556e+00 8.12164396429629e-02 3.50052402703384e-04
1.16577777777778e+00 8.05939270066607e-02 3.53210303819575e-04
1.20400000000000e+00 7.99761858437760e-02 3.56204849092812e-04
1.24222222222222e+00 7.93631795815099e-02 3.59043515937209e-04
1.28044444444444e+00 7.87548719274031e-02 3.61733266189967e-04
1.31866666666667e+00 7.81512268626139e-02 3.64280595669165e-04
1.35688888888889e+00 7.75522086537825e-02 3.66691579984022e-04
1.39511111111111e+00 7.69577818366294e-02 3.68971914874505e-04
1.43333333333333e+00 7.63679112186730e-02 3.71126948361524e-04
1.47155555555556e+00 7.57825618772247e-02 3.73161712393821e-04
1.50977777777778e+00 7.52016991534398e-02 3.75080947900045e-04
1.54800000000000e+00 7.46252886619649e-02 3.76889129976876e-04
1.58622222222222e+00 7.40532962769912e-02 3.78590490507003e-04
1.62444444444444e+00 7.34856881342863e-02 3.80189035957890e-04
1.66266666666667e+00 7.29224306258106e-02 3.81688563505725e-04
1.70088888888889e+00 7.23634904080377e-02 3.83092677685195e-04
1.73911111111111e+00 7.18088343894919e-02 3.84404805531028e-04
1.77733333333333e+00 7.12584297323199e-02 3.85628207463143e-04
1.81555555555556e+00 7.07122438503937e-02 3.86765989881189e-04
1.85377777777778e+00 7.01702444044426e-02 3.87821114060241e-04
1.89200000000000e+00 6.96323993090010e-02 3.88796406721544e-04
1.93022222222222e+00 6.90986767215080e-02 3.89694569776322e-04
1.96844444444444e+00 6.85690450434750e-02 3.90518187160508e-04
2.00666666666667e+00 6.80434729160062e-02 3.91269731217179e-04
2.04488888888889e+00 6.75219292258880e-02 3.91951570383273e-04
2.08311111111111e+00 6.70043830956807e-02 3.92565976340114e-04
2.12133333333333e+00 6.64908038846034e-02 3.93115128197744e-04
2.15955555555556e+00 6.59811611867497e-02 3.93601118686870e-04
2.19777777777778e+00 6.54754248269811e-02 3.94025957684055e-04
2.23600000000000e+00 6.49735648660999e-02 3.94391577604622e-04
2.27422222222222e+00 6.44755515920195e-02 3.94699838470630e-04
2.31244444444444e+00 6.39813555203948e-02 3.94952530826064e-04
2.35066666666667e+00 6.34909473907996e-02 3.95151378547705e-04
2.38888888888889e+00 6.30042981713099e-02 3.95298043045445e-04
2.42711111111111e+00 6.25213790503841e-02 3.95394127237028e-04
2.46533333333333e+00 6.20421614373075e-02 3.95441177177976e-04
2.50355555555556e+00 6.15666169605216e-02 3.95440685605521e-04
2.54177777777778e+00 6.10947174640858e-02 3.95394093340499e-04
2.58000000000000e+00 6.06264350116160e-02 3.95302792458261e-04
2.61822222222222e+00 6.01617418789538e-02 3.95168129313384e-04
2.65644444444444e+00 5.97006105544440e-02 3.94991405820011e-04
2.69466666666667e+00 5.92430137356163e-02 3.94773880741562e-04
2.73288888888889e+00 5.87889243327016e-02 3.94516772289898e-04
2.77111111111111e+00 5.83383154618317e-02 3.94221260618107e-04
2.80933333333333e+00 5.78911604451928e-02 3.93888488352299e-04
2.84755555555556e+00 5.74474328094613e-02 3.93519562862447e-04
2.88577777777778e+00 5.70071062827115e-02 3.93115556726602e-04
2.92400000000000e+00 5.65701547974611e-02 3.92677509803568e-04
2.96222222222222e+00 5.61365524844724e-02 3.92206431233326e-04
3.00044444444444e+00 5.57062736727928e-02 3.91703299961778e-04
3.03866666666667e+00 5.52792928868377e-02 3.91169065313602e-04
3.07688888888889e+00 5.48555848491235e-02 3.90604648757642e-04
3.11511111111111e+00 5.44351244744807e-02 3.90010945617774e-04
3.15333333333333e+00 5.40178868700092e-02 3.89388825097335e-04
3.19155555555556e+00 5.36038473336158e-02 3.88739131862719e-04
3.22977777777778e+00 5.31929813512810e-02 3.88062686064858e-04
3.26800000000000e+00 5.27852645994409e-02 3.87360284805969e-04
3.30622222222222e+00 5.23806729396715e-02 3.86632703568203e-04
3.34444444444444e+00 5.19791824185671e-02 3.85880696365165e-04
3.38266666666667e+00 5.15807692651515e-02 3.85104995953167e-04
3.42088888888889e+00 5.11854098930220e-02 3.84306315116828e-04
3.45911111111111e+00 5.07930808953628e-02 3.83485347925260e-04
3.49733333333333e+00 5.04037590447645e-02 3.82642769514707e-04
3.53555555555556e+00 5.00174212918570e-02 3.81779237264889e-04
3.57377777777778e+00 4.96340447628749e-02 3.80895390605453e-04
3.61200000000000e+00 4.92536067615322e-02 3.79991852117396e-04
3.65022222222222e+00 4.88760847644157e-02 3.79069228613508e-04
3.68844444444444e+00 4.85014564207514e-02 3.78128111098572e-04
3.72666666666667e+00 4.81296995500901e-02 3.77169074790547e-04
3.76488888888889e+00 4.77607921439997e-02 3.76192680106679e-04
3.80311111111111e+00 4.73947123617252e-02 3.75199473633382e-04
3.84133333333333e+00 4.70314385299155e-02 3.74189987795641e-04
3.87955555555556e+00 4.66709491413460e-02 3.73164741773004e-04
3.91777777777778e+00 4.63132228527351e-02 3.72124241203321e-04
3.95600000000000e+00 4.59582384862276e-02 3.71068979047184e-04
3.99422222222222e+00 4.56059750253661e-02 3.69999436440761e-04
4.03244444444444e+00 4.52564116147820e-02 3.68916082557181e-04
4.07066666666667e+00 4.49095275581137e-02 3.67819374525930e-04
4.10888888888889e+00 4.45653023193473e-02 3.66709758219317e-04
4.14711111111111e+00 4.42237155190096e-02 3.65587669029847e-04
4.18533333333333e+00 4.38847469338309e-02 3.64453531491862e-04
4.22355555555556e+00 4.35483764955526e-02 3.63307760020367e-04
4.26177777777778e+00 4.32145842889592e-02 3.62150758570220e-04
4.30000000000000e+00 4.28833505530533e-02 3.60982921337416e-04
4.33822222222222e+00 4.25546556775087e-02 3.59804633454028e-04
4.37644444444444e+00 4.22284802023095e-02 3.58616270800186e-04
4.41466666666667e+00 4.19048048158707e-02 3.57418199869791e-04
4.45288888888889e+00 4.15836103560999e-02 3.56210778416203e-04
4.49111111111111e+00 4.12648778070364e-02 3.54994356092948e-04
4.52933333333333e+00 4.09485882984723e-02 3.53769274062240e-04
4.56755555555555e+00 4.06347231048396e-02 3.52535865606766e-04
4.60577777777778e+00 4.03232636434276e-02 3.51294455775454e-04
4.64400000000000e+00 4.00141914753150e-02 3.50045361966715e-04
4.68222222222222e+00 3.97074883022275e-02 3.48788894508377e-04
4.72044444444444e+00 3.94031359661447e-02 3.47525356447717e-04
4.75866666666667e+00 3.91011164475945e-02 3.46255043390501e-04
4.79688888888889e+00 3.88014118664957e-02 3.44978244042779e-04
4.83511111111111e+00 3.85040044791726e-02 3.43695240750287e-04
4.87333333333333e+00 3.82088766779507e-02 3.42406309112147e-04
4.91155555555556e+00 3.79160109901177e-02 3.41111718497697e-04
4.94977777777778e+00 3.76253900763045e-02 3.39811731695711e-04
4.98800000000000e+00 3.73369967312220e-02 3.38506605408704e-04
5.02622222222222e+00 3.70508138808632e-02 3.37196590745795e-04
5.06444444444444e+00 3.67668245820912e-02 3.35881933006171e-04
5.10266666666667e+00 3.64850120210875e-02 3.34562871507008e-04
5.14088888888889e+00 3.62053595140171e-02 3.33239640045854e-04
5.17911111111111e+00 3.59278505043654e-02 3.31912467362028e-04
5.21733333333333e+00 3.56524685625200e-02 3.30581576765264e-04
5.25555555555556e+00 3.53791973848007e-02 3.29247186578979e-04
5.29377777777778e+00 3.51080207919841e-02 3.27909509802031e-04
5.33200000000000e+00 3.48389227298843e-02 3.26568754533768e-04
5.37022222222222e+00 3.45718872668507e-02 3.25225124398744e-04
5.40844444444444e+00 3.43068985933464e-02 3.23878818332472e-04
5.44666666666667e+00 3.40439410205334e-02 3.22530030407278e-04
5.48488888888889e+00 3.37829989807943e-02 3.21178950232024e-04
5.52311111111111e+00 3.35240570253471e-02 3.19825763351762e-04
5.56133333333333e+00 3.32670998238220e-02 3.18470650896173e-04
5.59955555555555e+00 3.30121121633550e-02 3.17113789964270e-04
5.63777777777778e+00 3.27590789472414e-02 3.15755353303342e-04
5.67600000000000e+00 3.25079851953893e-02 3.14395509678542e-04
5.71422222222222e+00 3.22588160420732e-02 3.13034424242839e-04
5.75244444444444e+00 3.20115567355118e-02 3.11672258330057e-04
5.79066666666667e+00 3.17661926365735e-02 3.10309169284074e-04
5.82888888888889e+00 3.15227092191825e-02 3.08945310807790e-04
5.86711111111111e+00 3.12810920681757e-02 3.07580833312682e-04
5.90533333333333e+00 3.10413268788790e-02 3.06215883589150e-04
5.94355555555556e+00 3.08033994562629e-02 3.04850605143505e-04
5.98177777777778e+00 3.05672957137089e-02 3.03485137896210e-04
6.02000000000000e+00 3.03330016733605e-02 3.02119618506121e-04
6.05822222222222e+00 3.01005034641008e-02 3.00754180695536e-04
6.09644444444444e+00 2.98697873211334e-02 2.99388955053095e-04
6.13466666666667e+00 2.96408395847966e-02 2.98024068869416e-04
6.17288888888889e+00 2.94136467008758e-02 2.96659646444200e-04
6.21111111111111e+00 2.91881952186706e-02 2.95295809394333e-04
6.24933333333333e+00 2.89644717905779e-02 2.93932676346670e-04
6.28755555555556e+00 2.87424631713028e-02 2.92570363235383e-04
6.32577777777778e+00 2.85221562167280e-02 2.91208983020200e-04
6.36400000000000e+00 2.83035378841811e-02 2.89848645972859e-04
6.40222222222222e+00 2.80865952306082e-02 2.88489459964632e-04
6.44044444444444e+00 2.78713154121624e-02 2.87131530280415e-04
6.47866666666667e+00 2.76576856831157e-02 2.85774959462481e-04
6.51688888888889e+00 2.74456933960947e-02 2.84419847582501e-04
6.55511111111111e+00 2.72353260003337e-02 2.83066292514722e-04
6.59333333333333e+00 2.70265710412661e-02 2.81714389650891e-04
6.63155555555555e+00 2.68194161597888e-02 2.80364232164150e-04
6.66977777777778e+00 2.66138490912234e-02 2.79015910747068e-04
6.70800000000000e+00 2.64098576655151e-02 2.77669513866173e-04
6.74622222222222e+00 2.62074298055799e-02 2.76325128017665e-04
6.78444444444444e+00 2.60065535269032e-02 2.74982837553246e-04
6.82266666666667e+00 2.58072169365401e-02 2.73642724532710e-04
6.86088888888889e+00 2.56094082332881e-02 2.72304868966188e-04
6.89911111111111e+00 2.54131157061048e-02 2.70969349057619e-04
6.93733333333333e+00 2.52183277337108e-02 2.69636240940811e-04
6.97555555555556e+00 2.50250327839028e-02 2.68305618914889e-04
7.01377777777778e+00 2.48332194125988e-02 2.66977555201451e-04
7.05200000000000e+00 2.46428762639810e-02 2.65652120171695e-04
7.09022222222222e+00 2.44539920689966e-02 2.64329382574930e-04
7.12844444444444e+00 2.42665556449685e-02 2.63009409376103e-04
7.16666666666667e+00 2.40805558946760e-02 2.61692265617559e-04
7.20488888888889e+00 2.38959818064761e-02 2.60378014635622e-04
7.24311111111111e+00 2.37128224528670e-02 2.59066718278510e-04
7.28133333333333e+00 2.35310669901045e-02 2.57758436662504e-04
7.31955555555555e+00 2.33507046575604e-02 2.56453228382740e-04
7.35777777777778e+00 2.31717247768439e-02 2.55151150288518e-04
7.39600000000000e+00 2.29941167518989e-02 2.53852257686879e-04
7.43422222222222e+00 2.28178700676415e-02 2.52556604547516e-04
7.47244444444444e+00 2.26429742895845e-02 2.51264243351653e-04
7.51066666666667e+00 2.24694190629903e-02 2.49975224962931e-04
7.54888888888889e+00 2.22971941129512e-02 2.48689598821790e-04
7.58711111111111e+00 2.21262892430824e-02 2.47407413141130e-04
7.62533333333333e+00 2.19566943351527e-02 2.46128714681302e-04
7.66355555555556e+00 2.17883993484860e-02 2.44853548939507e-04
7.70177777777778e+00 2.16213943191515e-02 2.43581959942191e-04
7.74000000000000e+00 2.14556693600240e-02 2.42313990428087e-04
7.77822222222222e+00 2.12912146595434e-02 2.41049682032509e-04
7.81644444444444e+00 2.11280204813535e-02 2.39789075147155e-04
7.85466666666667e+00 2.09660771635218e-02 2.38532208799800e-04
7.89288888888889e+00 2.08053751185854e-02 2.37279120829299e-04
7.93111111111111e+00 2.06459048323601e-02 2.36029848061829e-04
7.96933333333333e+00 2.04876568635865e-02 2.34784426103330e-04
8.00755555555556e+00 2.03306218433716e-02 2.33542889510243e-04
8.04577777777778e+00 2.01747904744412e-02 2.32305271597841e-04
8.08400000000000e+00 2.00201535311706e-02 2.31071604605192e-04
8.12222222222222e+00 1.98667018584533e-02 2.29841919861438e-04
8.16044444444444e+00 1.97144263713554e-02 2.28616247655880e-04
8.19866666666667e+00 1.95633180543946e-02 2.27394617126156e-04
8.23688888888889e+00 1.94133679615601e-02 2.26177056416165e-04
8.27511111111111e+00 1.92645672152250e-02 2.24963592835204e-04
8.31333333333333e+00 1.91169070058082e-02 2.23754252666661e-04
8.35155555555555e+00 1.89703785912531e-02 2.22549061322223e-04
8.38977777777778e+00 1.88249732963375e-02 2.21348043165054e-04
8.42800000000000e+00 1.86806825126802e-02 2.20151221658870e-04
8.46622222222222e+00 1.85374976977074e-02 2.18958619518239e-04
8.50444444444444e+00 1.83954103743231e-02 2.17770258588348e-04
8.54266666666667e+00 1.82544121302432e-02 2.16586159741240e-04
8.58088888888889e+00 1.81144946179925e-02 2.15406343018609e-04
8.61911111111111e+00 1.79756495539120e-02 2.14230827775790e-04
8.65733333333333e+00 1.78378687178358e-02 2.13059632505540e-04
8.69555555555555e+00 1.77011439526042e-02 2.11892774977581e-04
8.73377777777778e+00 1.75654671634274e-02 2.10730272075495e-04
8.77200000000000e+00 1.74308303178709e-02 2.09572139931754e-04
8.81022222222222e+00 1.72972254449116e-02 2.08418394063829e-04
8.84844444444444e+00 1.71646446346233e-02 2.07269049263014e-04
8.88666666666667e+00 1.70330800375613e-02 2.06124119498232e-04
8.92488888888889e+00 1.69025238647415e-02 2.04983618045424e-04
8.96311111111111e+00 1.67729683867328e-02 2.03847557618070e-04
9.00133333333333e+00 1.66444059333485e-02 2.02715950204825e-04
9.03955555555556e+00 1.65168288931933e-02 2.01588807196091e-04
9.07777777777778e+00 1.63902297130736e-02 2.00466139233620e-04
9.11600000000000e+00 1.62646008979689e-02 1.99347956332927e-04
9.15422222222222e+00 1.61399350101661e-02 1.98234268006863e-04
9.19244444444444e+00 1.60162246689618e-02 1.97125083162839e-04
9.23066666666667e+00 1.58934625500923e-02 1.96020410013692e-04
9.26888888888889e+00 1.57716413856994e-02 1.94920256195124e-04
9.30711111111111e+00 1.56507539634979e-02 1.93824628884250e-04
9.34533333333333e+00 1.55307931264841e-02 1.92733534650009e-04
9.38355555555555e+00 1.54117517725115e-02 1.91646979568077e-04
9.42177777777778e+00 1.52936228537464e-02 1.90564969082223e-04
9.46000000000000e+00 1.51763993766261e-02 1.89487508115538e-04
9.49822222222222e+00 1.50600744010665e-02 1.88414601182718e-04
9.53644444444444e+00 1.49446410401781e-02 1.87346252295079e-04
9.57466666666667e+00 1.48300924597402e-02 1.86282464878045e-04
9.61288888888889e+00 1.47164218781541e-02 1.85223241877935e-04
9.65111111111111e+00 1.46036225656811e-02 1.84168585869704e-04
9.68933333333333e+00 1.44916878441646e-02 1.83118498919155e-04
9.72755555555555e+00 1.43806110866354e-02 1.82072982687452e-04
9.76577777777778e+00 1.42703857168073e-02 1.81032038303253e-04
9.80400000000000e+00 1.41610052090255e-02 1.79995666463931e-04
9.84222222222222e+00 1.40524630875403e-02 1.78963867537742e-04
9.88044444444444e+00 1.39447529262373e-02 1.77936641476084e-04
9.91866666666667e+00 1.38378683481509e-02 1.76913987737125e-04
9.95688888888889e+00 1.37318030254091e-02 1.75895905382977e-04
9.99511111111111e+00 1.36265506785338e-02 1.74882393092922e-04
1.00333333333333e+01 1.35221050763845e-02 1.73873449208518e-04
1.00715555555556e+01 1.34184600353705e-02 1.72869072203371e-04
1.01097777777778e+01 1.33156094182885e-02 1.71869259256766e-04
1.01480000000000e+01 1.32135471370074e-02 1.70874007193941e-04
1.01862222222222e+01 1.31122671490377e-02 1.69883313347720e-04
1.02244444444444e+01 1.30117634582054e-02 1.68897174680156e-04
1.02626666666667e+01 1.29120301133320e-02 1.67915587009183e-04
1.03008888888889e+01 1.28130612107956e-02 1.66938545828575e-04
1.03391111111111e+01 1.27148508912478e-02 1.65966047137955e-04
1.03773333333333e+01 1.26173933402504e-02 1.64998086209174e-04
1.04155555555556e+01 1.25206827879332e-02 1.64034658391963e-04
1.04537777777778e+01 1.24247135077407e-02 1.63075757965841e-04
1.04920000000000e+01 1.23294798188434e-02 1.62121378920581e-04
1.05302222222222e+01 1.22349760830319e-02 1.61171515746343e-04
1.05684444444444e+01 1.21411967053131e-02 1.60226162627342e-04
1.06066666666667e+01 1.20481361327085e-02 1.59285312731435e-04
1.06448888888889e+01 1.19557888565548e-02 1.58348958962147e-04
1.06831111111111e+01 1.18641494095303e-02 1.57417094719975e-04
1.07213333333333e+01 1.17732123662186e-02 1.56489712769777e-04
1.07595555555556e+01 1.16829723427895e-02 1.55566805979821e-04
1.07977777777778e+01 1.15934239958564e-02 1.54648366267275e-04
1.08360000000000e+01 1.15045620246447e-02 1.53734385314236e-04
1.08742222222222e+01 1.14163811681760e-02 1.52824855292718e-04
1.09124444444444e+01 1.13288762057966e-02 1.51919768124080e-04
1.09506666666667e+01 1.12420419560823e-02 1.51019114826148e-04
1.09888888888889e+01 1.11558732789072e-02 1.50122886203305e-04
1.10271111111111e+01 1.10703650727470e-02 1.49231073545188e-04
1.10653333333333e+01 1.09855122751792e-02 1.48343667586286e-04
1.11035555555556e+01 1.09013098625851e-02 1.47460659184268e-04
1.11417777777778e+01 1.08177528491073e-02 1.46582038350975e-04
1.11800000000000e+01 1.07348362886014e-02 1.45707794909705e-04
1.12182222222222e+01 1.06525552720810e-02 1.44837919160794e-04
1.12564444444444e+01 1.05709049281864e-02 1.43972401201108e-04
1.12946666666667e+01 1.04898804221849e-02 1.43111230323778e-04
1.13328888888889e+01 1.04094769578338e-02 1.42254395651780e-04
1.13711111111111e+01 1.03296897749323e-02 1.41401886779518e-04
1.14093333333333e+01 1.02505141497652e-02 1.40553692816711e-04
1.14475555555556e+01 1.01719453948248e-02 1.39709803011298e-04
1.14857777777778e+01 1.00939788578592e-02 1.38870205858564e-04
1.15240000000000e+01 1.00166099236303e-02 1.38034889704849e-04
1.15622222222222e+01 9.93983401159294e-03 1.37203843358903e-04
1.16004444444444e+01 9.86364657631164e-03 1.36377055466272e-04
1.16386666666667e+01 9.78804310654670e-03 1.35554513957176e-04
1.16768888888889e+01 9.71301912693349e-03 1.34736206628518e-04
1.17151111111111e+01 9.63857019575801e-03 1.33922121733309e-04
1.17533333333333e+01 9.56469190535078e-03 1.33112247101592e-04
1.17915555555556e+01 9.49137988182722e-03 1.32306570712775e-04
1.18297777777778e+01 9.41862978421811e-03 1.31505079876252e-04
1.18680000000000e+01 9.34643730605430e-03 1.30707761786117e-04
1.19062222222222e+01 9.27479817325759e-03 1.29914604083013e-04
1.19444444444444e+01 9.20370814451003e-03 1.29125594278756e-04
1.19826666666667e+01 9.13316301041898e-03 1.28340719248261e-04
1.20208888888889e+01 9.06315859503157e-03 1.27559965764445e-04
1.20591111111111e+01 8.99369075381185e-03 1.26783321039989e-04
