Energy (eV)          EEDF (eV^-(3/2))     First Anisotropy
7.76190476190476e-04 3.86733484455741e+01 2.68992785331220e-02
2.32857142857143e-03 3.80415637627162e+01 4.42041413142073e-02
3.88095238095238e-03 3.74201001900163e+01 5.77897271824945e-02
5.43333333333333e-03 3.68087891163548e+01 6.77734964534940e-02
6.98571428571429e-03 3.62074646872706e+01 7.58255340951380e-02
8.53809523809524e-03 3.56159637563926e+01 8.25865494069936e-02
1.00904761904762e-02 3.50341258427189e+01 8.83927165240534e-02
1.16428571428571e-02 3.44617930853176e+01 9.34497663323000e-02
1.31952380952381e-02 3.38988102073864e+01 9.78959258807030e-02
1.47476190476190e-02 3.33450244617723e+01 1.01830134504074e-01
1.63000000000000e-02 3.28002856030202e+01 1.05326538604119e-01
1.78523809523809e-02 3.22644458346544e+01 1.08442679386013e-01
1.94047619047619e-02 3.17373597795165e+01 1.11224455500550e-01
2.09571428571429e-02 3.12188844310832e+01 1.13709299764178e-01
2.25095238095238e-02 3.07088791229255e+01 1.15928303327964e-01
2.40619047619048e-02 3.02072054830958e+01 1.17907687869532e-01
2.56142857142857e-02 2.97137274033490e+01 1.19669856836838e-01
2.71666666666667e-02 2.92283109960359e+01 1.21234165499100e-01
2.87190476190476e-02 2.87508245634507e+01 1.22617497429509e-01
3.02714285714286e-02 2.82811385568676e+01 1.23834704440606e-01
3.18238095238095e-02 2.78191255462376e+01 1.24898947920536e-01
3.33761904761905e-02 2.73646601811129e+01 1.25821967728551e-01
3.49285714285714e-02 2.69176191598925e+01 1.26614296562031e-01
3.64809523809524e-02 2.64778811962273e+01 1.27285433490059e-01
3.80333333333333e-02 2.60453269832684e+01 1.27843985238786e-01
3.95857142857143e-02 2.56198391649852e+01 1.28297782830162e-01
4.11380952380952e-02 2.52013023008647e+01 1.28653978589423e-01
4.26904761904762e-02 2.47896028378456e+01 1.28919127464181e-01
4.42428571428571e-02 2.43846290764431e+01 1.29099255760681e-01
4.57952380952381e-02 2.39862711433389e+01 1.29199919596568e-01
4.73476190476190e-02 2.35944209588334e+01 1.29226254979397e-01
4.89000000000000e-02 2.32089722101151e+01 1.29183020918499e-01
5.04523809523809e-02 2.28298203199583e+01 1.29074636793136e-01
5.20047619047619e-02 2.24568624206842e+01 1.28905214864743e-01
5.35571428571429e-02 2.20899973240326e+01 1.28678588745861e-01
5.51095238095238e-02 2.17291254958206e+01 1.28398338399130e-01
5.66619047619048e-02 2.13741490269255e+01 1.28067812224624e-01
5.82142857142857e-02 2.10249716086396e+01 1.27690146612664e-01
5.97666666666667e-02 2.06814985047094e+01 1.27268283357592e-01
6.13190476190476e-02 2.03436365273821e+01 1.26804985183796e-01
6.28714285714286e-02 2.00112940104495e+01 1.26302849672259e-01
6.44238095238095e-02 1.96843807859791e+01 1.25764321756285e-01
6.59761904761905e-02 1.93628081583174e+01 1.25191705022487e-01
6.75285714285714e-02 1.90464888811539e+01 1.24587171807862e-01
6.90809523809524e-02 1.87353371338100e+01 1.23952772564231e-01
7.06333333333333e-02 1.84292684969320e+01 1.23290444165858e-01
7.21857142857143e-02 1.81281999309296e+01 1.22602017567328e-01
7.37380952380952e-02 1.78320497521572e+01 1.21889224790863e-01
7.52904761904762e-02 1.75407376119907e+01 1.21153705304308e-01
7.68428571428571e-02 1.72541844738378e+01 1.20397011885476e-01
7.83952380952381e-02 1.69723125928387e+01 1.19620615995671e-01
7.99476190476190e-02 1.66950454936724e+01 1.18825912741594e-01
8.15000000000000e-02 1.64223079508674e+01 1.18014225437673e-01
8.30523809523809e-02 1.61540259673718e+01 1.17186809835537e-01
8.46047619047619e-02 1.58901267554603e+01 1.16344858025030e-01
8.61571428571428e-02 1.56305387160386e+01 1.15489502063792e-01
8.77095238095238e-02 1.53751914201310e+01 1.14621817334387e-01
8.92619047619048e-02 1.51240155888914e+01 1.13742825678410e-01
9.08142857142857e-02 1.48769430756571e+01 1.12853498302693e-01
9.23666666666667e-02 1.46339068466393e+01 1.11954758500985e-01
9.39190476190476e-02 1.43948409635285e+01 1.11047484183487e-01
9.54714285714286e-02 1.41596805648391e+01 1.10132510252763e-01
9.70238095238095e-02 1.39283618490517e+01 1.09210630816449e-01
9.85761904761905e-02 1.37008220565878e+01 1.08282601283046e-01
1.00128571428571e-01 1.34769994533115e+01 1.07349140270693e-01
1.01680952380952e-01 1.32568333136044e+01 1.06410931478144e-01
1.03233333333333e-01 1.30402639038878e+01 1.05468625392608e-01
1.04785714285714e-01 1.28272324664167e+01 1.04522840909039e-01
1.06338095238095e-01 1.26176812033380e+01 1.03574166855335e-01
1.07890476190476e-01 1.24115532610092e+01 1.02623163430105e-01
1.09442857142857e-01 1.22087927145735e+01 1.01670363559187e-01
1.10995238095238e-01 1.20093445527868e+01 1.00716274176573e-01
1.12547619047619e-01 1.18131546630923e+01 9.97613774349353e-02
1.14100000000000e-01 1.16201698169397e+01 9.88061317577746e-02
1.15652380952381e-01 1.14303376565329e+01 9.78509732056818e-02
1.17204761904762e-01 1.12436066770019e+01 9.68963163137396e-02
1.18757142857143e-01 1.10599262161071e+01 9.59425548624999e-02
1.20309523809524e-01 1.08792464392497e+01 9.49900631044360e-02
1.21861904761905e-01 1.07015183259501e+01 9.40391965367472e-02
1.23414285714286e-01 1.05266936565486e+01 9.30902927329376e-02
1.24966666666667e-01 1.03547249991228e+01 9.21436721329962e-02
1.26519047619048e-01 1.01855656966186e+01 9.11996387946737e-02
1.28071428571429e-01 1.00191698541917e+01 9.02584811081608e-02
1.29623809523810e-01 9.85549232675601e+00 8.93204724763154e-02
1.31176190476190e-01 9.69448870673503e+00 8.83858719624909e-02
1.32728571428571e-01 9.53611531201293e+00 8.74549249075725e-02
1.34280952380952e-01 9.38032917408467e+00 8.65278635182615e-02
1.35833333333333e-01 9.22708802639732e+00 8.56049074282328e-02
1.37385714285714e-01 9.07635029288270e+00 8.46862642333110e-02
1.38938095238095e-01 8.92807507667727e+00 8.37721300023469e-02
1.40490476190476e-01 8.78222214902643e+00 8.28626897650406e-02
1.42042857142857e-01 8.63875193836993e+00 8.19581179779307e-02
1.43595238095238e-01 8.49762551960573e+00 8.10585789696954e-02
1.45147619047619e-01 8.35880460352912e+00 8.01642273668454e-02
1.46700000000000e-01 8.22225152644446e+00 7.92752084429472e-02
1.48252380952381e-01 8.08792924060248e+00 7.83916586841740e-02
1.49804761904762e-01 7.95580130215329e+00 7.75137060446881e-02
1.51357142857143e-01 7.82583186328293e+00 7.66414701767698e-02
1.52909523809524e-01 7.69798566180282e+00 7.57750629621839e-02
1.54461904761905e-01 7.57222801158285e+00 7.49145887751303e-02
1.56014285714286e-01 7.44852479314054e+00 7.40601447956769e-02
1.57566666666667e-01 7.32684244438411e+00 7.32118213101359e-02
1.59119047619048e-01 7.20714795150665e+00 7.23697019989948e-02
1.60671428571429e-01 7.08940884002916e+00 7.15338642129883e-02
1.62223809523810e-01 6.97359316598982e+00 7.07043792378680e-02
1.63776190476190e-01 6.85966950727723e+00 6.98813125484091e-02
1.65328571428571e-01 6.74760695510493e+00 6.90647240520358e-02
1.66880952380952e-01 6.63737510562617e+00 6.82546683226809e-02
1.68433333333333e-01 6.52894405168463e+00 6.74511948253199e-02
1.69985714285714e-01 6.42228437470032e+00 6.66543481314527e-02
1.71538095238095e-01 6.31736713668791e+00 6.58641681260290e-02
1.73090476190476e-01 6.21416387240561e+00 6.50806902061857e-02
1.74642857142857e-01 6.11264658163216e+00 6.43039454721513e-02
1.76195238095238e-01 6.01278772157010e+00 6.35339609106341e-02
1.77747619047619e-01 5.91456019937307e+00 6.27707595710435e-02
1.79300000000000e-01 5.81793736479523e+00 6.20143606978107e-02
1.80852380952381e-01 5.72289300334076e+00 6.12647800057672e-02
1.82404761904762e-01 5.62940132799602e+00 6.05220297617971e-02
1.83957142857143e-01 5.53743697340467e+00 5.97861188539674e-02
1.85509523809524e-01 5.44697498858985e+00 5.90570530577080e-02
1.87061904761905e-01 5.35799083018472e+00 5.83348351337638e-02
1.88614285714286e-01 5.27046035577353e+00 5.76194649619155e-02
1.90166666666667e-01 5.18435981734153e+00 5.69109396695895e-02
1.91719047619048e-01 5.09966585483186e+00 5.62092537555571e-02
1.93271428571429e-01 5.01635548980771e+00 5.55143992089222e-02
1.94823809523810e-01 4.93440611921800e+00 5.48263656235873e-02
1.96376190476190e-01 4.85379550926490e+00 5.41451403083940e-02
1.97928571428571e-01 4.77450178937144e+00 5.34707083930343e-02
1.99480952380952e-01 4.69650344624805e+00 5.28030529299924e-02
2.01033333333333e-01 4.61977931805562e+00 5.21421549926707e-02
2.02585714285714e-01 4.54430858866405e+00 5.14879937697527e-02
2.04138095238095e-01 4.47007078200459e+00 5.08405466560303e-02
2.05690476190476e-01 4.39704575651446e+00 5.01997893398025e-02
2.07242857142857e-01 4.32521369967219e+00 4.95656958869824e-02
2.08795238095238e-01 4.25455512262230e+00 4.89382388220428e-02
2.10347619047619e-01 4.18505085488772e+00 4.83173892059087e-02
2.11900000000000e-01 4.11668203916864e+00 4.77031166868245e-02
2.13452380952381e-01 4.04943012645396e+00 4.70953896457533e-02
2.15004761904762e-01 3.98327687029674e+00 4.64941752172368e-02
2.16557142857143e-01 3.91820432256495e+00 4.58994393031860e-02
2.18109523809524e-01 3.85419482833507e+00 4.53111467163444e-02
2.19661904761905e-01 3.79123102110207e+00 4.47292612154003e-02
2.21214285714286e-01 3.72929581806771e+00 4.41537455645183e-02
2.22766666666667e-01 3.66837241550576e+00 4.35845615906208e-02
2.24319047619048e-01 3.60844428420299e+00 4.30216702385034e-02
2.25871428571429e-01 3.54949516497457e+00 4.24650316238610e-02
2.27423809523810e-01 3.49150906425280e+00 4.19146050843005e-02
2.28976190476190e-01 3.43447024974785e+00 4.13703492284249e-02
2.30528571428571e-01 3.37836324617934e+00 4.08322219830208e-02
2.32080952380952e-01 3.32317283107790e+00 4.03001806384624e-02
2.33633333333333e-01 3.26888403065503e+00 3.97741818923987e-02
2.35185714285714e-01 3.21548211574056e+00 3.92541818917365e-02
2.36738095238095e-01 3.16295259778646e+00 3.87401362730167e-02
2.38290476190476e-01 3.11128122493591e+00 3.82320002012369e-02
2.39842857142857e-01 3.06045397815664e+00 3.77297284071728e-02
2.41395238095238e-01 3.01045706743739e+00 3.72332752232478e-02
2.42947619047619e-01 2.96127692804652e+00 3.67425946180078e-02
2.44500000000000e-01 2.91290021685174e+00 3.62576402133815e-02
2.46052380952381e-01 2.86531380883967e+00 3.57783653647422e-02
2.47604761904762e-01 2.81850479313043e+00 3.53047231595485e-02
2.49157142857143e-01 2.77246046990470e+00 3.48366664117289e-02
2.50709523809524e-01 2.72716834681295e+00 3.43741477420544e-02
2.52261904761905e-01 2.68261613558611e+00 3.39171195875846e-02
2.53814285714286e-01 2.63879174870162e+00 3.34655342276534e-02
2.55366666666667e-01 2.59568329610394e+00 3.30193438088085e-02
2.56919047619048e-01 2.55327908197867e+00 3.25785003687352e-02
2.58471428571429e-01 2.51156760157930e+00 3.21429558592090e-02
2.60023809523809e-01 2.47053753810590e+00 3.17126621680993e-02
2.61576190476190e-01 2.43017775963466e+00 3.12875711404744e-02
2.63128571428571e-01 2.39047731609773e+00 3.08676345988135e-02
2.64680952380952e-01 2.35142543631235e+00 3.04528043623774e-02
2.66233333333333e-01 2.31301152505850e+00 3.00430322657801e-02
2.67785714285714e-01 2.27522516020428e+00 2.96382701767487e-02
2.69338095238095e-01 2.23805608987829e+00 2.92384700131320e-02
2.70890476190476e-01 2.20149422968814e+00 2.88435837591719e-02
2.72442857142857e-01 2.16552965998448e+00 2.84535634810652e-02
2.73995238095238e-01 2.13015262316967e+00 2.80683613418437e-02
2.75547619047619e-01 2.09535352105042e+00 2.76879296155930e-02
2.77100000000000e-01 2.06112291223373e+00 2.73122206904864e-02
2.78652380952381e-01 2.02745150965252e+00 2.69411871137970e-02
2.80204761904762e-01 1.99433017778095e+00 2.65747815830752e-02
2.81757142857143e-01 1.96174993042425e+00 2.62129569346701e-02
2.83309523809524e-01 1.92970192819004e+00 2.58556661896622e-02
2.84861904761905e-01 1.89817747609010e+00 2.55028625528614e-02
2.86414285714286e-01 1.86716802118134e+00 2.51544994230060e-02
2.87966666666667e-01 1.83666515024524e+00 2.48105304024637e-02
2.89519047619048e-01 1.80666058750532e+00 2.44709093064531e-02
2.91071428571429e-01 1.77714619238175e+00 2.41355901718053e-02
2.92623809523810e-01 1.74811395728277e+00 2.38045272652769e-02
2.94176190476190e-01 1.71955600543215e+00 2.34776750914351e-02
2.95728571428571e-01 1.69146458873203e+00 2.31549884001202e-02
2.97280952380952e-01 1.66383208566092e+00 2.28364221935153e-02
2.98833333333333e-01 1.63665099920581e+00 2.25219317328334e-02
3.00385714285714e-01 1.60991395482815e+00 2.22114725446229e-02
3.01938095238095e-01 1.58361369846307e+00 2.19050004267193e-02
3.03490476190476e-01 1.55774309455128e+00 2.16024714538483e-02
3.05042857142857e-01 1.53229512410305e+00 2.13038419828969e-02
3.06595238095238e-01 1.50726288279397e+00 2.10090686578609e-02
3.08147619047619e-01 1.48263957909166e+00 2.07181084144843e-02
3.09700000000000e-01 1.45841853241315e+00 2.04309184775397e-02
3.11252380952381e-01 1.43459317136767e+00 2.01474563863214e-02
3.12804761904762e-01 1.41115703180587e+00 1.98676799842501e-02
3.14357142857143e-01 1.38810375523601e+00 1.95915474067839e-02
3.15909523809524e-01 1.36542708704142e+00 1.93190171078869e-02
3.17461904761905e-01 1.34312087478357e+00 1.90500478551877e-02
3.19014285714286e-01 1.32117906653288e+00 1.87845987327423e-02
3.20566666666667e-01 1.29959570922668e+00 1.85226291435654e-02
3.22119047619048e-01 1.27836494705415e+00 1.82640988119385e-02
3.23671428571429e-01 1.25748101986755e+00 1.80089677855064e-02
3.25223809523809e-01 1.23693826161940e+00 1.77571964371686e-02
3.26776190476190e-01 1.21673109882525e+00 1.75087454667745e-02
3.28328571428571e-01 1.19685404905152e+00 1.72635759026225e-02
3.29880952380952e-01 1.17730171942805e+00 1.70216491027818e-02
3.31433333333333e-01 1.15806880518495e+00 1.67829267562410e-02
3.32985714285714e-01 1.13915008821338e+00 1.65473708838818e-02
3.34538095238095e-01 1.12054043564979e+00 1.63149438392940e-02
3.36090476190476e-01 1.10223479848332e+00 1.60856083094335e-02
3.37642857142857e-01 1.08422821018595e+00 1.58593273151287e-02
3.39195238095238e-01 1.06651578536504e+00 1.56360642114462e-02
3.40747619047619e-01 1.04909271843783e+00 1.54157826879178e-02
3.42300000000000e-01 1.03195428232768e+00 1.51984467638818e-02
3.43852380952381e-01 1.01509582721687e+00 1.49840208028794e-02
3.45404761904762e-01 9.98512779177698e-01 1.47724695029707e-02
3.46957142857143e-01 9.82200639040217e-01 1.45637578859562e-02
3.48509523809524e-01 9.66154981134895e-01 1.43578513126245e-02
3.50061904761905e-01 9.50371452091862e-01 1.41547154769829e-02
3.51614285714286e-01 9.34845769659794e-01 1.39543164056633e-02
3.53166666666667e-01 9.19573721544090e-01 1.37566204572272e-02
3.54719047619048e-01 9.04551164264028e-01 1.35615943213788e-02
3.56271428571429e-01 8.89774022028592e-01 1.33692050180872e-02
3.57823809523809e-01 8.75238285630664e-01 1.31794198966218e-02
3.59376190476190e-01 8.60940011359277e-01 1.29922066345073e-02
3.60928571428571e-01 8.46875319929638e-01 1.28075332363964e-02
3.62480952380952e-01 8.33040395430649e-01 1.26253680328698e-02
3.64033333333333e-01 8.19431484289598e-01 1.24456796791670e-02
3.65585714285714e-01 8.06044894253769e-01 1.22684371538448e-02
3.67138095238095e-01 7.92876993388697e-01 1.20936097573732e-02
3.68690476190476e-01 7.79924209092781e-01 1.19211671106679e-02
3.70242857142857e-01 7.67183027127995e-01 1.17510791535659e-02
3.71795238095238e-01 7.54649990666436e-01 1.15833161432430e-02
3.73347619047619e-01 7.42321699352448e-01 1.14178486525798e-02
3.74900000000000e-01 7.30194808380065e-01 1.12546475652654e-02
3.76452380952381e-01 7.18266027608390e-01 1.10936840838187e-02
3.78004761904762e-01 7.06532120599521e-01 1.09349297213724e-02
3.79557142857143e-01 6.94989903810745e-01 1.07783562927454e-02
3.81109523809524e-01 6.83636245707089e-01 1.06239359231532e-02
3.82661904761905e-01 6.72468065911698e-01 1.04716410427403e-02
3.84214285714286e-01 6.61482334370096e-01 1.03214443846455e-02
3.85766666666667e-01 6.50676070528099e-01 1.01733189830342e-02
3.87319047619048e-01 6.40046342523150e-01 1.00272381710973e-02
3.88871428571429e-01 6.29590266388880e-01 9.88317557902186e-03
3.90423809523810e-01 6.19305005272649e-01 9.74110513193341e-03
3.91976190476190e-01 6.09187768665878e-01 9.60100104781345e-03
3.93528571428571e-01 5.99235811646945e-01 9.46283783538966e-03
3.95080952380952e-01 5.89446434136471e-01 9.32659029200631e-03
3.96633333333333e-01 5.79816980164748e-01 9.19223350147526e-03
3.98185714285714e-01 5.70344837151150e-01 9.05974283190509e-03
3.99738095238095e-01 5.61027435195301e-01 8.92909393351382e-03
4.01290476190476e-01 5.51862246379840e-01 8.80026273642493e-03
4.02842857142857e-01 5.42846784084565e-01 8.67322544844944e-03
4.04395238095238e-01 5.33978602311785e-01 8.54795855285438e-03
4.05947619047619e-01 5.25255295022693e-01 8.42443880611890e-03
4.07500000000000e-01 5.16674495484579e-01 8.30264323350115e-03
4.09052380952381e-01 5.08233875643594e-01 8.18254913339369e-03
4.10604761904762e-01 4.99931145447929e-01 8.06413407068402e-03
4.12157142857143e-01 4.91764052272246e-01 7.94737586965024e-03
4.13709523809524e-01 4.83730380291070e-01 7.83225261885112e-03
4.15261904761905e-01 4.75827949877623e-01 7.71874266641457e-03
4.16814285714286e-01 4.68054617012454e-01 7.60682461774421e-03
4.18366666666667e-01 4.60408272701751e-01 7.49647733322211e-03
4.19919047619048e-01 4.52886842405142e-01 7.38767992591021e-03
4.21471428571429e-01 4.45488285472852e-01 7.28041175925076e-03
4.23023809523809e-01 4.38210594592049e-01 7.17465244476629e-03
4.24576190476190e-01 4.31051795242236e-01 7.07038183976008e-03
4.26128571428571e-01 4.24009945159542e-01 6.96758004501753e-03
4.27680952380952e-01 4.17083133809769e-01 6.86622740251052e-03
4.29233333333333e-01 4.10269481870036e-01 6.76630449310496e-03
4.30785714285714e-01 4.03567140718899e-01 6.66779213427121e-03
4.32338095238095e-01 3.96974291934802e-01 6.57067137779946e-03
4.33890476190476e-01 3.90489146802713e-01 6.47492350751907e-03
4.35442857142857e-01 3.84109945828830e-01 6.38053003702396e-03
4.36995238095238e-01 3.77834958263207e-01 6.28747270740487e-03
4.38547619047619e-01 3.71662481630185e-01 6.19573348498767e-03
4.40100000000000e-01 3.65590841266486e-01 6.10529455759479e-03
4.41652380952381e-01 3.59618389876617e-01 6.01613833680471e-03
4.43204761904762e-01 3.53743507056324e-01 5.92824745274224e-03
4.44757142857143e-01 3.47964598882931e-01 5.84160474856193e-03
4.46309523809524e-01 3.42280097472776e-01 5.75619328311332e-03
4.47861904761905e-01 3.36688460555830e-01 5.67199632708175e-03
4.49414285714286e-01 3.31188171057257e-01 5.58899736078804e-03
4.50966666666667e-01 3.25777736685816e-01 5.50718007199841e-03
4.52519047619048e-01 3.20455689528988e-01 5.42652835374533e-03
4.54071428571429e-01 3.15220585654712e-01 5.34702630215953e-03
4.55623809523809e-01 3.10071004719628e-01 5.26865821431368e-03
4.57176190476190e-01 3.05005549583727e-01 5.19140858607809e-03
4.58728571428571e-01 3.00022845931284e-01 5.11526210998766e-03
4.60280952380952e-01 2.95121541897997e-01 5.04020367312164e-03
4.61833333333333e-01 2.90300307704208e-01 4.96621835499730e-03
4.63385714285714e-01 2.85557835294121e-01 4.89329142547528e-03
4.64938095238095e-01 2.80892837980906e-01 4.82140834267842e-03
4.66490476190476e-01 2.76304050097612e-01 4.75055475092400e-03
4.68042857142857e-01 2.71790226653775e-01 4.68071647866967e-03
4.69595238095238e-01 2.67350142997635e-01 4.61187953647324e-03
4.71147619047619e-01 2.62982594483880e-01 4.54403011496654e-03
4.72700000000000e-01 2.58686396146808e-01 4.47715458183039e-03
4.74252380952381e-01 2.54460382385256e-01 4.41123948287302e-03
4.75804761904762e-01 2.50303406626857e-01 4.34627153801886e-03
4.77357142857143e-01 2.46214341036702e-01 4.28223763709475e-03
4.78909523809524e-01 2.42192076204683e-01 4.21912484121273e-03
4.80461904761905e-01 2.38235520844500e-01 4.15692037970529e-03
4.82014285714286e-01 2.34343601497580e-01 4.09561164820156e-03
4.83566666666667e-01 2.30515262241839e-01 4.03518620671896e-03
4.85119047619048e-01 2.26749464405195e-01 3.97563177776972e-03
4.86671428571429e-01 2.23045186283766e-01 3.91693624448276e-03
4.88223809523809e-01 2.19401422864669e-01 3.85908764874082e-03
4.89776190476190e-01 2.15817185553351e-01 3.80207418933341e-03
