Energy (eV)          EEDF (eV^-(3/2))     First Anisotropy
8.03571428571429e-02 6.68140744137444e-02 6.62955348996878e-05
2.41071428571429e-01 6.51891385920409e-02 1.08506344897068e-04
4.01785714285714e-01 6.36037216420173e-02 1.40703052850840e-04
5.62500000000000e-01 6.20568624469529e-02 1.63671653133204e-04
7.23214285714286e-01 6.05476232725267e-02 1.81630909041451e-04
8.83928571428572e-01 5.90750891902355e-02 1.96220464950404e-04
1.04464285714286e+00 5.76383675243986e-02 2.08310979601867e-04
1.20535714285714e+00 5.62365873059954e-02 2.18441224054103e-04
1.36607142857143e+00 5.48688987452758e-02 2.26976921227974e-04
1.52678571428571e+00 5.35344727352903e-02 2.34182318218843e-04
1.68750000000000e+00 5.22325003122644e-02 2.40257136366936e-04
1.84821428571429e+00 5.09621922044673e-02 2.45357549116686e-04
2.00892857142857e+00 4.97227783202343e-02 2.49608962194720e-04
2.16964285714286e+00 4.85135073100723e-02 2.53114236153838e-04
2.33035714285714e+00 4.73336460857959e-02 2.55959214316104e-04
2.49107142857143e+00 4.61824793938852e-02 2.58216572813421e-04
2.65178571428571e+00 4.50593093806130e-02 2.59948587520090e-04
2.81250000000000e+00 4.39634551549370e-02 2.61209169779153e-04
2.97321428571429e+00 4.28942523936813e-02 2.62045400050644e-04
3.13392857142857e+00 4.18510529225644e-02 2.62498705043958e-04
3.29464285714286e+00 4.08332243380337e-02 2.62605776175961e-04
3.45535714285714e+00 3.98401496103974e-02 2.62399297655069e-04
3.61607142857143e+00 3.88712267194530e-02 2.61908529922088e-04
3.77678571428571e+00 3.79258682889375e-02 2.61159785550240e-04
3.93750000000000e+00 3.70035012224048e-02 2.60176818440386e-04
4.09821428571429e+00 3.61035663661991e-02 2.58981147315346e-04
4.25892857142857e+00 3.52255181608597e-02 2.57592326462181e-04
4.41964285714286e+00 3.43688243193258e-02 2.56028173966833e-04
4.58035714285714e+00 3.35329654959435e-02 2.54304966030818e-04
4.74107142857143e+00 3.27174349776583e-02 2.52437602491931e-04
4.90178571428571e+00 3.19217383764989e-02 2.50439750770718e-04
5.06250000000000e+00 3.11453933247386e-02 2.48323969332055e-04
5.22321428571429e+00 3.03879291891484e-02 2.46101815779283e-04
5.38392857142857e+00 2.96488867794355e-02 2.43783941509193e-04
5.54464285714286e+00 2.89278180757439e-02 2.41380174852363e-04
5.70535714285714e+00 2.82242859515387e-02 2.38899594760408e-04
5.86607142857143e+00 2.75378639126401e-02 2.36350595586328e-04
6.02678571428571e+00 2.68681358384620e-02 2.33740945823560e-04
6.18750000000000e+00 2.62146957262749e-02 2.31077839641096e-04
6.34821428571429e+00 2.55771474496198e-02 2.28367943520860e-04
6.50892857142857e+00 2.49551045138812e-02 2.25617438214492e-04
6.66964285714286e+00 2.43481898260396e-02 2.22832056506961e-04
6.83035714285714e+00 2.37560354622361e-02 2.20017117553917e-04
6.99107142857143e+00 2.31782824475408e-02 2.17177557574793e-04
7.15178571428571e+00 2.26145805381932e-02 2.14317958572604e-04
7.31250000000000e+00 2.20645880068286e-02 2.11442573759954e-04
7.47321428571429e+00 2.15279714385239e-02 2.08555351115408e-04
7.63392857142857e+00 2.10044055256307e-02 2.05659954942395e-04
7.79464285714286e+00 2.04935728734595e-02 2.02759785571364e-04
7.95535714285714e+00 1.99951638051203e-02 1.99857997591143e-04
8.11607142857143e+00 1.95088761758111e-02 1.96957516273938e-04
8.27678571428572e+00 1.90344151895533e-02 1.94061053349188e-04
8.43750000000000e+00 1.85714932187079e-02 1.91171120976696e-04
8.59821428571429e+00 1.81198296319363e-02 1.88290044928156e-04
8.75892857142857e+00 1.76791506218601e-02 1.85419976787218e-04
8.91964285714286e+00 1.72491890411864e-02 1.82562905206933e-04
9.08035714285714e+00 1.68296842387438e-02 1.79720666459534e-04
9.24107142857143e+00 1.64203819029538e-02 1.76894953961761e-04
9.40178571428572e+00 1.60210339075925e-02 1.74087327635532e-04
9.56250000000000e+00 1.56313981600625e-02 1.71299222157716e-04
9.72321428571429e+00 1.52512384563516e-02 1.68531954858778e-04
9.88392857142857e+00 1.48803243361984e-02 1.65786733087857e-04
1.00446428571429e+01 1.45184309449541e-02 1.63064661049775e-04
1.02053571428571e+01 1.41653388957687e-02 1.60366746311225e-04
1.03660714285714e+01 1.38208341373693e-02 1.57693905588855e-04
1.05267857142857e+01 1.34847078246289e-02 1.55046970494800e-04
1.06875000000000e+01 1.31567561915865e-02 1.52426692501599e-04
1.08482142857143e+01 1.28367804308488e-02 1.49833748856938e-04
1.10089285714286e+01 1.25245865641062e-02 1.47268746520020e-04
1.11696428571429e+01 1.22199853336879e-02 1.44732225781949e-04
1.13303571428571e+01 1.19227920847172e-02 1.42224665442914e-04
1.14910714285714e+01 1.16328266531628e-02 1.39746486271204e-04
1.16517857142857e+01 1.13499132566366e-02 1.37298054606966e-04
1.18125000000000e+01 1.10738803878223e-02 1.34879685484739e-04
1.19732142857143e+01 1.08045607127369e-02 1.32491646642747e-04
1.21339285714286e+01 1.05417909624612e-02 1.30134160972028e-04
1.22946428571429e+01 1.02854118411298e-02 1.27807408764505e-04
1.24553571428571e+01 1.00352679269926e-02 1.25511531254938e-04
1.26160714285714e+01 9.79120757819092e-03 1.23246632831042e-04
1.27767857142857e+01 9.55308284084018e-03 1.21012783398970e-04
1.29375000000000e+01 9.32074935933191e-03 1.18810020398664e-04
1.30982142857143e+01 9.09406629053847e-03 1.16638351566642e-04
1.32589285714286e+01 8.87289621318359e-03 1.14497756475236e-04
1.34196428571429e+01 8.65710504988711e-03 1.12388187938605e-04
1.35803571428571e+01 8.44656198406490e-03 1.10309574485684e-04
1.37410714285714e+01 8.24113938062178e-03 1.08261821786538e-04
1.39017857142857e+01 8.04071270858468e-03 1.06244814225896e-04
1.40625000000000e+01 7.84516046560558e-03 1.04258416214979e-04
1.42232142857143e+01 7.65436410563372e-03 1.02302474126410e-04
1.43839285714286e+01 7.46820796298651e-03 1.00376817259348e-04
1.45446428571429e+01 7.28657918637485e-03 9.84812587136330e-05
1.47053571428571e+01 7.10936766908182e-03 9.66155971407525e-05
1.48660714285714e+01 6.93646598221134e-03 9.47796176643700e-05
1.50267857142857e+01 6.76776930956850e-03 9.29730929329173e-05
1.51875000000000e+01 6.60317538411510e-03 9.11957839727648e-05
1.53482142857143e+01 6.44258442700966e-03 8.94474415579186e-05
1.55089285714286e+01 6.28589908395190e-03 8.77278068052105e-05
1.56696428571429e+01 6.13302436939389e-03 8.60366117059321e-05
1.58303571428571e+01 5.98386760786061e-03 8.43735803771218e-05
1.59910714285714e+01 5.83833837776640e-03 8.27384296492678e-05
1.61517857142857e+01 5.69634845660391e-03 8.11308697692161e-05
1.63125000000000e+01 5.55781176745981e-03 7.95506049489785e-05
1.64732142857143e+01 5.42264432764563e-03 7.79973343415100e-05
1.66339285714286e+01 5.29076419530324e-03 7.64707523944231e-05
1.67946428571429e+01 5.16209142226047e-03 7.49705491585394e-05
1.69553571428571e+01 5.03654800470526e-03 7.34964111869819e-05
1.71160714285714e+01 4.91405783589688e-03 7.20480219011693e-05
1.72767857142857e+01 4.79454666003166e-03 7.06250620557171e-05
1.74375000000000e+01 4.67794202722620e-03 6.92272100829771e-05
1.75982142857143e+01 4.56417325023660e-03 6.78541427900902e-05
1.77589285714286e+01 4.45317135965156e-03 6.65055355541827e-05
1.79196428571429e+01 4.34486906407399e-03 6.51810624850543e-05
1.80803571428571e+01 4.23920070865093e-03 6.38803970726760e-05
1.82410714285714e+01 4.13610223527129e-03 6.26032124045727e-05
1.84017857142857e+01 4.03551114373492e-03 6.13491814673107e-05
1.85625000000000e+01 3.93736645386263e-03 6.01179773532360e-05
1.87232142857143e+01 3.84160866903483e-03 5.89092737580949e-05
1.88839285714286e+01 3.74817973857767e-03 5.77227450723527e-05
1.90446428571429e+01 3.65702302414668e-03 5.65580664488979e-05
1.92053571428571e+01 3.56808326485655e-03 5.54149142690127e-05
1.93660714285714e+01 3.48130654378019e-03 5.42929662601448e-05
1.95267857142857e+01 3.39664025526493e-03 5.31919016847549e-05
1.96875000000000e+01 3.31403307304118e-03 5.21114014541060e-05
1.98482142857143e+01 3.23343491950901e-03 5.10511484820960e-05
2.00089285714286e+01 3.15479693415334e-03 5.00108277091845e-05
2.01696428571429e+01 3.07807144517364e-03 4.89901261090555e-05
2.03303571428571e+01 3.00321194015988e-03 4.79887330227280e-05
2.04910714285714e+01 2.93017303789527e-03 4.70063402099699e-05
2.06517857142857e+01 2.85891046084658e-03 4.60426419605556e-05
2.08125000000000e+01 2.78938100832167e-03 4.50973351457682e-05
2.09732142857143e+01 2.72154253060013e-03 4.41701194680418e-05
2.11339285714286e+01 2.65535390240451e-03 4.32606974420886e-05
2.12946428571429e+01 2.59077499896448e-03 4.23687743633456e-05
2.14553571428571e+01 2.52776667135447e-03 4.14940585458774e-05
2.16160714285714e+01 2.46629072276049e-03 4.06362613302231e-05
2.17767857142857e+01 2.40630988532544e-03 3.97950971414981e-05
2.19375000000000e+01 2.34778779755613e-03 3.89702834997240e-05
2.20982142857143e+01 2.29068898253570e-03 3.81615411938006e-05
2.22589285714286e+01 2.23497882563671e-03 3.73685942364651e-05
2.24196428571429e+01 2.18062355433167e-03 3.65911698099183e-05
2.25803571428571e+01 2.12759021744971e-03 3.58289984333894e-05
2.27410714285714e+01 2.07584666520064e-03 3.50818139430953e-05
2.29017857142857e+01 2.02536152968583e-03 3.43493535143309e-05
2.30625000000000e+01 1.97610420588213e-03 3.36313576452502e-05
2.32232142857143e+01 1.92804483329292e-03 3.29275702758610e-05
2.33839285714286e+01 1.88115427722160e-03 3.22377387280668e-05
2.35446428571429e+01 1.83540411174568e-03 3.15616136388441e-05
2.37053571428571e+01 1.79076660226845e-03 3.08989490763719e-05
2.38660714285714e+01 1.74721468870556e-03 3.02495025029034e-05
2.40267857142857e+01 1.70472196908117e-03 2.96130347729245e-05
2.41875000000000e+01 1.66326268352236e-03 2.89893101005011e-05
2.43482142857143e+01 1.62281169880715e-03 2.83780961384188e-05
2.45089285714286e+01 1.58334449262692e-03 2.77791639108774e-05
2.46696428571429e+01 1.54483713923110e-03 2.71922877411397e-05
2.48303571428571e+01 1.50726629474955e-03 2.66172453301231e-05
2.49910714285714e+01 1.47060918304092e-03 2.60538177095992e-05
2.51517857142857e+01 1.43484358188576e-03 2.55017892249270e-05
2.53125000000000e+01 1.39994780951474e-03 2.49609474929473e-05
2.54732142857143e+01 1.36590071159683e-03 2.44310834523659e-05
2.56339285714286e+01 1.33268164801191e-03 2.39119912941210e-05
2.57946428571429e+01 1.30027048074897e-03 2.34034683880572e-05
2.59553571428571e+01 1.26864756155861e-03 2.29053153342373e-05
2.61160714285714e+01 1.23779372004183e-03 2.24173359115181e-05
2.62767857142857e+01 1.20769025202888e-03 2.19393370508316e-05
2.64375000000000e+01 1.17831890824026e-03 2.14711287884068e-05
2.65982142857143e+01 1.14966188333010e-03 2.10125242955519e-05
2.67589285714286e+01 1.12170180476729e-03 2.05633398099640e-05
2.69196428571429e+01 1.09442172263475e-03 2.01233945643492e-05
2.70803571428571e+01 1.06780509924181e-03 1.96925108180352e-05
2.72410714285714e+01 1.04183579909860e-03 1.92705138043104e-05
2.74017857142857e+01 1.01649807913468e-03 1.88572316984238e-05
2.75625000000000e+01 9.91776579155191e-04 1.84524955693604e-05
2.77232142857143e+01 9.67656312615100e-04 1.80561393950260e-05
2.78839285714286e+01 9.44122657271764e-04 1.76679999965463e-05
2.80446428571429e+01 9.21161346587736e-04 1.72879169706274e-05
2.82053571428571e+01 8.98758460991467e-04 1.69157327070815e-05
2.83660714285714e+01 8.76900419438916e-04 1.65512923371451e-05
2.85267857142857e+01 8.55573971180662e-04 1.61944436990807e-05
2.86875000000000e+01 8.34766187728956e-04 1.58450372906288e-05
2.88482142857143e+01 8.14464455089716e-04 1.55029262740130e-05
2.90089285714286e+01 7.94656465903528e-04 1.51679664144386e-05
2.91696428571429e+01 7.75330212200688e-04 1.48400160172079e-05
2.93303571428571e+01 7.56473978048435e-04 1.45189359353095e-05
2.94910714285714e+01 7.38076332448472e-04 1.42045895201168e-05
2.96517857142857e+01 7.20126122407429e-04 1.38968425865407e-05
2.98125000000000e+01 7.02612466175636e-04 1.35955633675160e-05
2.99732142857143e+01 6.85524746706688e-04 1.33006225120643e-05
3.01339285714286e+01 6.68852605049352e-04 1.30118930286252e-05
3.02946428571429e+01 6.52585934242711e-04 1.27292502274150e-05
3.04553571428571e+01 6.36714873129769e-04 1.24525717211411e-05
3.06160714285714e+01 6.21229800379376e-04 1.21817373789081e-05
3.07767857142857e+01 6.06121328653720e-04 1.19166292922124e-05
3.09375000000000e+01 5.91380298917488e-04 1.16571317322743e-05
3.10982142857143e+01 5.76997774931141e-04 1.14031311435236e-05
3.12589285714286e+01 5.62965037694220e-04 1.11545160920068e-05
3.14196428571429e+01 5.49273580301607e-04 1.09111772131252e-05
3.15803571428571e+01 5.35915102738331e-04 1.06730072077231e-05
3.17410714285714e+01 5.22881506847900e-04 1.04399007996309e-05
3.19017857142857e+01 5.10164891423144e-04 1.02117547033206e-05
3.20625000000000e+01 4.97757547416311e-04 9.98846758451990e-06
3.22232142857143e+01 4.85651953302772e-04 9.76994005083504e-06
3.23839285714286e+01 4.73840770408140e-04 9.55607460521727e-06
3.25446428571429e+01 4.62316838574650e-04 9.34677559898543e-06
3.27053571428571e+01 4.51073171781441e-04 9.14194922492970e-06
3.28660714285714e+01 4.40102953909461e-04 8.94150347865214e-06
3.30267857142857e+01 4.29399534609486e-04 8.74534812836765e-06
3.31875000000000e+01 4.18956425270520e-04 8.55339467897416e-06
3.33482142857143e+01 4.08767295116426e-04 8.36555636104596e-06
3.35089285714286e+01 3.98825967276044e-04 8.18174808917739e-06
3.36696428571429e+01 3.89126415132352e-04 8.00188642004835e-06
3.38303571428571e+01 3.79662758637223e-04 7.82588954373377e-06
3.39910714285714e+01 3.70429260746806e-04 7.65367724881906e-06
3.41517857142857e+01 3.61420323943678e-04 7.48517089459542e-06
3.43125000000000e+01 3.52630486843500e-04 7.32029337858940e-06
3.44732142857143e+01 3.44054420908772e-04 7.15896912479936e-06
3.46339285714286e+01 3.35686927143632e-04 7.00112404663381e-06
3.47946428571429e+01 3.27522933018406e-04 6.84668550969099e-06
3.49553571428571e+01 3.19557489368662e-04 6.69558232212597e-06
3.51160714285714e+01 3.11785767394918e-04 6.54774470340269e-06
3.52767857142857e+01 3.04203055735375e-04 6.40310425897166e-06
3.54375000000000e+01 2.96804757609779e-04 6.26159395114540e-06
3.55982142857143e+01 2.89586388052780e-04 6.12314808718576e-06
3.57589285714286e+01 2.82543571133984e-04 5.98770228649911e-06
3.59196428571429e+01 2.75672037367343e-04 5.85519344775662e-06
3.60803571428571e+01 2.68967621101823e-04 5.72555973891880e-06
3.62410714285714e+01 2.62426257996091e-04 5.59874056941376e-06
3.64017857142857e+01 2.56043982554674e-04 5.47467656727482e-06
3.65625000000000e+01 2.49816925723983e-04 5.35330955317921e-06
3.67232142857143e+01 2.43741312563141e-04 5.23458252879891e-06
3.68839285714286e+01 2.37813459905725e-04 5.11843964788722e-06
3.70446428571429e+01 2.32029774177663e-04 5.00482618735037e-06
3.72053571428571e+01 2.26386749201543e-04 4.89368853734398e-06
3.73660714285714e+01 2.20880964071089e-04 4.78497417662584e-06
3.75267857142857e+01 2.15509081077371e-04 4.67863165206109e-06
3.76875000000000e+01 2.10267843685410e-04 4.57461055559910e-06
3.78482142857143e+01 2.05154074573337e-04 4.47286151315680e-06
3.80089285714286e+01 2.00164673665554e-04 4.37333615922879e-06
3.81696428571429e+01 1.95296616294817e-04 4.27598711152248e-06
3.83303571428571e+01 1.90546951354578e-04 4.18076796140272e-06
3.84910714285714e+01 1.85912799509958e-04 4.08763325214990e-06
3.86517857142857e+01 1.81391351452267e-04 3.99653846069476e-06
3.88125000000000e+01 1.76979866195934e-04 3.90743997729052e-06
3.89732142857143e+01 1.72675669427765e-04 3.82029509509351e-06
3.91339285714286e+01 1.68476151852474e-04 3.73506198793701e-06
3.92946428571429e+01 1.64378767644720e-04 3.65169968815723e-06
3.94553571428571e+01 1.60381032894296e-04 3.57016807756173e-06
3.96160714285714e+01 1.56480524100334e-04 3.49042786831994e-06
3.97767857142857e+01 1.52674876702144e-04 3.41244058676584e-06
3.99375000000000e+01 1.48961783645773e-04 3.33616855551681e-06
4.00982142857143e+01 1.45338993994330e-04 3.26157488384066e-06
4.02589285714286e+01 1.41804311536233e-04 3.18862344825258e-06
4.04196428571429e+01 1.38355593481499e-04 3.11727887318055e-06
4.05803571428571e+01 1.34990749153356e-04 3.04750652256027e-06
4.07410714285714e+01 1.31707738720831e-04 2.97927248309233e-06
4.09017857142857e+01 1.28504571962180e-04 2.91254354993910e-06
4.10625000000000e+01 1.25379307058369e-04 2.84728721104620e-06
4.12232142857143e+01 1.22330049423208e-04 2.78347163833287e-06
4.13839285714286e+01 1.19354950532546e-04 2.72106567079402e-06
4.15446428571429e+01 1.16452206826320e-04 2.66003879767961e-06
4.17053571428571e+01 1.13620058607523e-04 2.60036115076679e-06
4.18660714285714e+01 1.10856788975429e-04 2.54200348973081e-06
4.20267857142857e+01 1.08160722784793e-04 2.48493718956024e-06
4.21875000000000e+01 1.05530225630340e-04 2.42913422684835e-06
4.23482142857143e+01 1.02963702861933e-04 2.37456717180681e-06
4.25089285714286e+01 1.00459598599629e-04 2.32120917358032e-06
4.26696428571429e+01 9.80163948090320e-05 2.26903394564260e-06
4.28303571428571e+01 9.56326103747415e-05 2.21801575875938e-06
4.29910714285714e+01 9.33068002024647e-05 2.16812942823706e-06
4.31517857142857e+01 9.10375543429836e-05 2.11935030288459e-06
4.33125000000000e+01 8.88234971374135e-05 2.07165425305703e-06
4.34732142857143e+01 8.66632863881531e-05 2.02501766346733e-06
4.36339285714286e+01 8.45556125302638e-05 1.97941742044795e-06
4.37946428571429e+01 8.24991978528048e-05 1.93483089929384e-06
4.39553571428571e+01 8.04927957190992e-05 1.89123595790503e-06
4.41160714285714e+01 7.85351898109961e-05 1.84861092569561e-06
4.42767857142857e+01 7.66251933915231e-05 1.80693459393900e-06
4.44375000000000e+01 7.47616485854608e-05 1.76618620536235e-06
4.45982142857143e+01 7.29434256814376e-05 1.72634544771555e-06
4.47589285714286e+01 7.11694224348083e-05 1.68739244274020e-06
4.49196428571429e+01 6.94385634119372e-05 1.64930773521761e-06
4.50803571428571e+01 6.77497993340156e-05 1.61207228726272e-06
4.52410714285714e+01 6.61021064409666e-05 1.57566746869574e-06
4.54017857142857e+01 6.44944858708283e-05 1.54007504861774e-06
4.55625000000000e+01 6.29259630542230e-05 1.50527718637248e-06
4.57232142857143e+01 6.13955871268546e-05 1.47125642582220e-06
4.58839285714286e+01 5.99024303430056e-05 1.43799568580932e-06
4.60446428571429e+01 5.84455875233684e-05 1.40547825069343e-06
4.62053571428571e+01 5.70241755028324e-05 1.37368776525814e-06
4.63660714285714e+01 5.56373325950911e-05 1.34260822636658e-06
4.65267857142857e+01 5.42842180702762e-05 1.31222397562649e-06
4.66875000000000e+01 5.29640116452895e-05 1.28251969155339e-06
4.68482142857143e+01 5.16759129892427e-05 1.25348038449767e-06
4.70089285714286e+01 5.04191412300091e-05 1.22509138840825e-06
4.71696428571429e+01 4.91929344892617e-05 1.19733835266681e-06
4.73303571428571e+01 4.79965494177537e-05 1.17020723756297e-06
4.74910714285714e+01 4.68292607446843e-05 1.14368430707369e-06
4.76517857142857e+01 4.56903608380296e-05 1.11775612248914e-06
4.78125000000000e+01 4.45791592755618e-05 1.09240953562827e-06
4.79732142857143e+01 4.34949824285298e-05 1.06763168435997e-06
4.81339285714286e+01 4.24371730464937e-05 1.04340998549983e-06
4.82946428571429e+01 4.14050898658056e-05 1.01973212777206e-06
4.84553571428571e+01 4.03981072185169e-05 9.96586067805885e-07
4.86160714285714e+01 3.94156146530858e-05 9.73960023896048e-07
4.87767857142857e+01 3.84570165643126e-05 9.51842470473363e-07
4.89375000000000e+01 3.75217318322719e-05 9.30222132239561e-07
4.90982142857143e+01 3.66091934718589e-05 9.09087980226022e-07
4.92589285714286e+01 3.57188482834811e-05 8.88429225674605e-07
4.94196428571429e+01 3.48501565233870e-05 8.68235313978039e-07
4.95803571428571e+01 3.40025915745346e-05 8.48495921150095e-07
4.97410714285714e+01 3.31756396273443e-05 8.29200948440603e-07
4.99017857142857e+01 3.23687993682215e-05 8.10340517546226e-07
5.00625000000000e+01 3.15815816756486e-05 7.91904965546573e-07
5.02232142857143e+01 3.08135093251792e-05 7.73884841446027e-07
5.03839285714286e+01 3.00641166955343e-05 7.56270900907795e-07
5.05446428571429e+01 2.93329494910150e-05 7.39054101041786e-07
5.07053571428571e+01 2.86195644645127e-05 7.22225597302142e-07
