Energy (eV)          EEDF (eV^-(3/2))     First Anisotropy
1.55000000000000e-02 1.13134708265718e+00 1.24909274220597e-03
4.65000000000000e-02 1.09638690973198e+00 2.03758842865542e-03
7.75000000000000e-02 1.06250705398748e+00 2.62437291273731e-03
1.08500000000000e-01 1.02967413214472e+00 3.03218845150737e-03
1.39500000000000e-01 9.97855792513593e-01 3.34220566725971e-03
1.70500000000000e-01 9.67020683115474e-01 3.58631481034347e-03
2.01500000000000e-01 9.37138420790771e-01 3.78161197887239e-03
2.32500000000000e-01 9.08179561261096e-01 3.93876526437498e-03
2.63500000000000e-01 8.80115570116552e-01 4.06506873347287e-03
2.94500000000000e-01 8.52918794699551e-01 4.16582467287000e-03
3.25500000000000e-01 8.26562436857465e-01 4.24506043901106e-03
3.56500000000000e-01 8.01020526537249e-01 4.30593729229756e-03
3.87500000000000e-01 7.76267896196033e-01 4.35100061960867e-03
4.18500000000000e-01 7.52280156002461e-01 4.38234169989864e-03
4.49500000000000e-01 7.29033669804337e-01 4.40170697114558e-03
4.80500000000000e-01 7.06505531838914e-01 4.41057454045106e-03
5.11500000000000e-01 6.84673544162852e-01 4.41020939481811e-03
5.42500000000000e-01 6.63516194779638e-01 4.40170427460015e-03
5.73500000000000e-01 6.43012636442886e-01 4.38601060671726e-03
6.04500000000000e-01 6.23142666114650e-01 4.36396236809457e-03
6.35500000000000e-01 6.03886705058500e-01 4.33629480755652e-03
6.66500000000000e-01 5.85225779547754e-01 4.30365935430187e-03
6.97500000000000e-01 5.67141502169846e-01 4.26663564818463e-03
7.28500000000000e-01 5.49616053708418e-01 4.22574136344223e-03
7.59500000000000e-01 5.32632165585281e-01 4.18144031679598e-03
7.90500000000000e-01 5.16173102844942e-01 4.13414922451041e-03
8.21500000000000e-01 5.00222647664931e-01 4.08424338310478e-03
8.52500000000000e-01 4.84765083375683e-01 4.03206148342061e-03
8.83500000000000e-01 4.69785178974230e-01 3.97790972007341e-03
9.14500000000000e-01 4.55268174116436e-01 3.92206532287209e-03
9.45500000000000e-01 4.41199764572998e-01 3.86477961011383e-03
9.76500000000000e-01 4.27566088134868e-01 3.80628064335650e-03
1.00750000000000e+00 4.14353710954228e-01 3.74677554765009e-03
1.03850000000000e+00 4.01549614307541e-01 3.68645254907648e-03
1.06950000000000e+00 3.89141181767638e-01 3.62548277193541e-03
1.10050000000000e+00 3.77116186772216e-01 3.56402183039689e-03
1.13150000000000e+00 3.65462780576476e-01 3.50221124344827e-03
1.16250000000000e+00 3.54169480578047e-01 3.44017969715496e-03
1.19350000000000e+00 3.43225159002683e-01 3.37804417436565e-03
1.22450000000000e+00 3.32619031939588e-01 3.31591096882740e-03
1.25550000000000e+00 3.22340648715569e-01 3.25387659808516e-03
1.28650000000000e+00 3.12379881597530e-01 3.19202862740487e-03
1.31750000000000e+00 3.02726915813190e-01 3.13044641519146e-03
1.34850000000000e+00 2.93372239880158e-01 3.06920178889936e-03
1.37950000000000e+00 2.84306636233867e-01 3.00835965920096e-03
1.41050000000000e+00 2.75521172145106e-01 2.94797857914144e-03
1.44150000000000e+00 2.67007190918220e-01 2.88811125413240e-03
1.47250000000000e+00 2.58756303361296e-01 2.82880500789303e-03
1.50350000000000e+00 2.50760379519929e-01 2.77010220881462e-03
1.53450000000000e+00 2.43011540666431e-01 2.71204066068193e-03
1.56550000000000e+00 2.35502151536579e-01 2.65465396121979e-03
1.59650000000000e+00 2.28224812806263e-01 2.59797183153165e-03
1.62750000000000e+00 2.21172353800614e-01 2.54202041915056e-03
1.65850000000000e+00 2.14337825428425e-01 2.48682257712148e-03
1.68950000000000e+00 2.07714493334919e-01 2.43239812127172e-03
1.72050000000000e+00 2.01295831266095e-01 2.37876406759773e-03
1.75150000000000e+00 1.95075514638133e-01 2.32593485149555e-03
1.78250000000000e+00 1.89047414305504e-01 2.27392253038621e-03
1.81350000000000e+00 1.83205590521666e-01 2.22273697113254e-03
1.84450000000000e+00 1.77544287086370e-01 2.17238602350647e-03
1.87550000000000e+00 1.72057925673832e-01 2.12287568084470e-03
1.90650000000000e+00 1.66741100336168e-01 2.07421022892323e-03
1.93750000000000e+00 1.61588572176682e-01 2.02639238398526e-03
1.96850000000000e+00 1.56595264187752e-01 1.97942342077151e-03
1.99950000000000e+00 1.51756256248240e-01 1.93330329132610e-03
2.03050000000000e+00 1.47066780275485e-01 1.88803073528235e-03
2.06150000000000e+00 1.42522215527101e-01 1.84360338227188e-03
2.09250000000000e+00 1.38118084047968e-01 1.80001784704523e-03
2.12350000000000e+00 1.33850046257905e-01 1.75726981784258e-03
2.15450000000000e+00 1.29713896675696e-01 1.71535413850833e-03
2.18550000000000e+00 1.25705559775252e-01 1.67426488480279e-03
2.21650000000000e+00 1.21821085969812e-01 1.63399543532779e-03
2.24750000000000e+00 1.18056647720255e-01 1.59453853744956e-03
2.27850000000000e+00 1.14408535763654e-01 1.55588636857210e-03
2.30950000000000e+00 1.10873155458382e-01 1.51803059308687e-03
2.34050000000000e+00 1.07447023242158e-01 1.48096241529954e-03
2.37150000000000e+00 1.04126763199541e-01 1.44467262861176e-03
2.40250000000000e+00 1.00909103735497e-01 1.40915166121482e-03
2.43350000000000e+00 9.77908743517549e-02 1.37438961853366e-03
2.46450000000000e+00 9.47690025227796e-02 1.34037632264124e-03
2.49550000000000e+00 9.18405106682783e-02 1.30710134884808e-03
2.52650000000000e+00 8.90025132192638e-02 1.27455405965676e-03
2.55750000000000e+00 8.62522137747792e-02 1.24272363625749e-03
2.58850000000000e+00 8.35869023464835e-02 1.21159910772872e-03
2.61950000000000e+00 8.10039526883836e-02 1.18116937809519e-03
2.65050000000000e+00 7.85008197090815e-02 1.15142325138499e-03
2.68150000000000e+00 7.60750369639854e-02 1.12234945481799e-03
2.71250000000000e+00 7.37242142250169e-02 1.09393666024845e-03
2.74350000000000e+00 7.14460351254155e-02 1.06617350397659e-03
2.77450000000000e+00 6.92382548773233e-02 1.03904860503613e-03
2.80550000000000e+00 6.70986980598988e-02 1.01255058205762e-03
2.83650000000000e+00 6.50252564757814e-02 9.86668068800730e-04
2.86750000000000e+00 6.30158870737935e-02 9.61389728442731e-04
2.89850000000000e+00 6.10686099358345e-02 9.36704266704371e-04
2.92950000000000e+00 5.91815063259825e-02 9.12600443889301e-04
2.96050000000000e+00 5.73527167998808e-02 8.89067085908221e-04
2.99150000000000e+00 5.55804393725479e-02 8.66093094354244e-04
3.02250000000000e+00 5.38629277428038e-02 8.43667455691761e-04
3.05350000000000e+00 5.21984895725648e-02 8.21779249617186e-04
3.08450000000000e+00 5.05854848193092e-02 8.00417656646134e-04
3.11550000000000e+00 4.90223241200737e-02 7.79571964978164e-04
3.14650000000000e+00 4.75074672253854e-02 7.59231576687059e-04
3.17750000000000e+00 4.60394214815876e-02 7.39386013281471e-04
3.20850000000000e+00 4.46167403600639e-02 7.20024920678069e-04
3.23950000000000e+00 4.32380220319118e-02 7.01138073626633e-04
3.27050000000000e+00 4.19019079866598e-02 6.82715379624075e-04
3.30150000000000e+00 4.06070816936691e-02 6.64746882352130e-04
3.33250000000000e+00 3.93522673048989e-02 6.47222764671175e-04
3.36350000000000e+00 3.81362283977588e-02 6.30133351200756e-04
3.39450000000000e+00 3.69577667568083e-02 6.13469110515444e-04
3.42550000000000e+00 3.58157211931034e-02 5.97220656982880e-04
3.45650000000000e+00 3.47089664000276e-02 5.81378752269219e-04
3.48750000000000e+00 3.36364118444785e-02 5.65934306535589e-04
3.51850000000000e+00 3.25970006923190e-02 5.50878379347787e-04
3.54950000000000e+00 3.15897087670327e-02 5.36202180320024e-04
3.58050000000000e+00 3.06135435405590e-02 5.21897069512253e-04
3.61150000000000e+00 2.96675431553128e-02 5.07954557599397e-04
3.64250000000000e+00 2.87507754764241e-02 4.94366305829649e-04
3.67350000000000e+00 2.78623371732661e-02 4.81124125788051e-04
3.70450000000000e+00 2.70013528293645e-02 4.68219978980409e-04
3.73550000000000e+00 2.61669740798118e-02 4.55645976251770e-04
3.76650000000000e+00 2.53583787753370e-02 4.43394377052757e-04
3.79750000000000e+00 2.45747701722065e-02 4.31457588566253e-04
3.82850000000000e+00 2.38153761471585e-02 4.19828164706134e-04
3.85950000000000e+00 2.30794484365964e-02 4.08498804998998e-04
3.89050000000000e+00 2.23662618992925e-02 3.97462353359186e-04
3.92150000000000e+00 2.16751138018755e-02 3.86711796766737e-04
3.95250000000000e+00 2.10053231263967e-02 3.76240263857255e-04
3.98350000000000e+00 2.03562298992938e-02 3.66041023432150e-04
4.01450000000000e+00 1.97271945410910e-02 3.56107482897157e-04
4.04550000000000e+00 1.91175972361930e-02 3.46433186636545e-04
4.07650000000000e+00 1.85268373221549e-02 3.37011814329903e-04
4.10750000000000e+00 1.79543326978231e-02 3.27837179217977e-04
4.13850000000000e+00 1.73995192497661e-02 3.18903226323606e-04
4.16950000000000e+00 1.68618502964294e-02 3.10204030633410e-04
4.20050000000000e+00 1.63407960494666e-02 3.01733795245466e-04
4.23150000000000e+00 1.58358430917162e-02 2.93486849487922e-04
4.26250000000000e+00 1.53464938713093e-02 2.85457647013132e-04
4.29350000000000e+00 1.48722662114109e-02 2.77640763871538e-04
4.32450000000000e+00 1.44126928351096e-02 2.70030896569323e-04
4.35550000000000e+00 1.39673209049903e-02 2.62622860113513e-04
4.38650000000000e+00 1.35357115769334e-02 2.55411586047978e-04
4.41750000000000e+00 1.31174395677033e-02 2.48392120483508e-04
4.44850000000000e+00 1.27120927358983e-02 2.41559622124934e-04
4.47950000000000e+00 1.23192716758496e-02 2.34909360298045e-04
4.51050000000000e+00 1.19385893240707e-02 2.28436712978838e-04
4.54150000000000e+00 1.15696705778659e-02 2.22137164827453e-04
4.57250000000000e+00 1.12121519257264e-02 2.16006305228960e-04
4.60350000000000e+00 1.08656810891464e-02 2.10039826342997e-04
4.63450000000000e+00 1.05299166755078e-02 2.04233521164099e-04
4.66550000000000e+00 1.02045278416916e-02 1.98583281594421e-04
4.69650000000000e+00 9.88919396808412e-03 1.93085096530377e-04
4.72750000000000e+00 9.58360434265612e-03 1.87735049964648e-04
4.75850000000000e+00 9.28745785480543e-03 1.82529319104830e-04
4.78950000000000e+00 9.00046269865944e-03 1.77464172509898e-04
4.82050000000000e+00 8.72233608554632e-03 1.72535968245565e-04
4.85150000000000e+00 8.45280396535114e-03 1.67741152059508e-04
4.88250000000000e+00 8.19160075648251e-03 1.63076255577302e-04
4.91350000000000e+00 7.93846908418363e-03 1.58537894519878e-04
4.94450000000000e+00 7.69315952692987e-03 1.54122766943164e-04
4.97550000000000e+00 7.45543037066298e-03 1.49827651500564e-04
5.00650000000000e+00 7.22504737061988e-03 1.45649405728783e-04
5.03750000000000e+00 7.00178352052119e-03 1.41584964357494e-04
5.06850000000000e+00 6.78541882889219e-03 1.37631337643239e-04
5.09950000000000e+00 6.57574010229574e-03 1.33785609727930e-04
5.13050000000000e+00 6.37254073526364e-03 1.30044937022225e-04
5.16150000000000e+00 6.17562050671937e-03 1.26406546614029e-04
5.19250000000000e+00 5.98478538269162e-03 1.22867734702309e-04
5.22350000000000e+00 5.79984732512434e-03 1.19425865056364e-04
5.25450000000000e+00 5.62062410659467e-03 1.16078367500657e-04
5.28550000000000e+00 5.44693913075649e-03 1.12822736425260e-04
5.31650000000000e+00 5.27862125833241e-03 1.09656529321955e-04
5.34750000000000e+00 5.11550463848291e-03 1.06577365345975e-04
5.37850000000000e+00 4.95742854538631e-03 1.03582923903344e-04
5.40950000000000e+00 4.80423721986880e-03 1.00670943263739e-04
5.44050000000000e+00 4.65577971592813e-03 9.78392191988011e-05
5.47150000000000e+00 4.51190975200009e-03 9.50856036457487e-05
5.50250000000000e+00 4.37248556682095e-03 9.24080033961683e-05
5.53350000000000e+00 4.23736977974402e-03 8.98043788098097e-05
5.56450000000000e+00 4.10642925537257e-03 8.72727425532032e-05
5.59550000000000e+00 3.97953497237582e-03 8.48111583628921e-05
5.62650000000000e+00 3.85656189635863e-03 8.24177398330727e-05
5.65750000000000e+00 3.73738885665979e-03 8.00906492273977e-05
5.68850000000000e+00 3.62189842695729e-03 7.78280963147032e-05
5.71950000000000e+00 3.50997680956317e-03 7.56283372284049e-05
5.75050000000000e+00 3.40151372329375e-03 7.34896733492816e-05
5.78150000000000e+00 3.29640229480482e-03 7.14104502113771e-05
5.81250000000000e+00 3.19453895328473e-03 6.93890564307321e-05
5.84350000000000e+00 3.09582332840165e-03 6.74239226566466e-05
5.87450000000000e+00 3.00015815140434e-03 6.55135205451696e-05
5.90550000000000e+00 2.90744915927908e-03 6.36563617545172e-05
5.93650000000000e+00 2.81760500186822e-03 6.18509969620929e-05
5.96750000000000e+00 2.73053715185903e-03 6.00960149027989e-05
5.99850000000000e+00 2.64615981755385e-03 5.83900414283197e-05
6.02950000000000e+00 2.56438985833588e-03 5.67317385870452e-05
6.06050000000000e+00 2.48514670274713e-03 5.51198037243138e-05
6.09150000000000e+00 2.40835226909793e-03 5.35529686026434e-05
6.12250000000000e+00 2.33393088852966e-03 5.20299985416209e-05
6.15350000000000e+00 2.26180923045495e-03 5.05496915771164e-05
6.18450000000000e+00 2.19191623030196e-03 4.91108776394967e-05
6.21550000000000e+00 2.12418301949133e-03 4.77124177505031e-05
6.24650000000000e+00 2.05854285757704e-03 4.63532032384621e-05
6.27750000000000e+00 1.99493106648419e-03 4.50321549715030e-05
6.30850000000000e+00 1.93328496677889e-03 4.37482226084508e-05
6.33950000000000e+00 1.87354381590752e-03 4.25003838670682e-05
6.37050000000000e+00 1.81564874834450e-03 4.12876438093214e-05
6.40150000000000e+00 1.75954271758951e-03 4.01090341433481e-05
6.43250000000000e+00 1.70517043995717e-03 3.89636125418048e-05
6.46350000000000e+00 1.65247834010362e-03 3.78504619762776e-05
6.49450000000000e+00 1.60141449823644e-03 3.67686900674401e-05
6.52550000000000e+00 1.55192859895584e-03 3.57174284506456e-05
6.55650000000000e+00 1.50397188167671e-03 3.46958321566449e-05
6.58750000000000e+00 1.45749709258276e-03 3.37030790071235e-05
6.61850000000000e+00 1.41245843806530e-03 3.27383690247570e-05
6.64950000000000e+00 1.36881153960077e-03 3.18009238574840e-05
6.68050000000000e+00 1.32651339002275e-03 3.08899862167032e-05
6.71150000000000e+00 1.28552231114509e-03 3.00048193291013e-05
6.74250000000000e+00 1.24579791269462e-03 2.91447064018256e-05
6.77350000000000e+00 1.20730105251290e-03 2.83089501007165e-05
6.80450000000000e+00 1.16999379798771e-03 2.74968720413222e-05
6.83550000000000e+00 1.13383938867650e-03 2.67078122924185e-05
6.86650000000000e+00 1.09880220008465e-03 2.59411288917626e-05
6.89750000000000e+00 1.06484770856319e-03 2.51961973738131e-05
6.92850000000000e+00 1.03194245729116e-03 2.44724103091557e-05
6.95950000000000e+00 1.00005402330912e-03 2.37691768553723e-05
6.99050000000000e+00 9.69150985571457e-04 2.30859223191020e-05
7.02150000000000e+00 9.39202893985857e-04 2.24220877290405e-05
7.05250000000000e+00 9.10180239409528e-04 2.17771294196348e-05
7.08350000000000e+00 8.82054424572568e-04 2.11505186252304e-05
7.11450000000000e+00 8.54797735899846e-04 2.05417410844325e-05
7.14550000000000e+00 8.28383316203624e-04 1.99502966544481e-05
7.17650000000000e+00 8.02785138220014e-04 1.93756989351817e-05
7.20750000000000e+00 7.77977978963197e-04 1.88174749028572e-05
7.23850000000000e+00 7.53937394872131e-04 1.82751645529470e-05
7.26950000000000e+00 7.30639697725256e-04 1.77483205521912e-05
7.30050000000000e+00 7.08061931299471e-04 1.72365078994930e-05
7.33150000000000e+00 6.86181848750383e-04 1.67393035954852e-05
7.36250000000000e+00 6.64977890691531e-04 1.62562963205609e-05
7.39350000000000e+00 6.44429163950995e-04 1.57870861211683e-05
7.42450000000000e+00 6.24515420984459e-04 1.53312841041746e-05
7.45550000000000e+00 6.05217039924428e-04 1.48885121391053e-05
7.48650000000000e+00 5.86515005245967e-04 1.44584025680726e-05
7.51750000000000e+00 5.68390889029878e-04 1.40405979232048e-05
7.54850000000000e+00 5.50826832804882e-04 1.36347506513991e-05
7.57950000000000e+00 5.33805529950900e-04 1.32405228462200e-05
7.61050000000000e+00 5.17310208646096e-04 1.28575859867689e-05
7.64150000000000e+00 5.01324615340875e-04 1.24856206833560e-05
7.67250000000000e+00 4.85832998742568e-04 1.21243164298087e-05
7.70350000000000e+00 4.70820094295002e-04 1.17733713622545e-05
7.73450000000000e+00 4.56271109137676e-04 1.14324920242173e-05
7.76550000000000e+00 4.42171707529720e-04 1.11013931378737e-05
7.79650000000000e+00 4.28507996724275e-04 1.07797973813169e-05
7.82750000000000e+00 4.15266513279367e-04 1.04674351716785e-05
7.85850000000000e+00 4.02434209791805e-04 1.01640444539632e-05
7.88950000000000e+00 3.89998442041008e-04 9.86937049545452e-06
7.92050000000000e+00 3.77946956530112e-04 9.58316568555159e-06
7.95150000000000e+00 3.66267878412074e-04 9.30518934090264e-06
7.98250000000000e+00 3.54949699788875e-04 9.03520751570020e-06
8.01350000000000e+00 3.43981268372288e-04 8.77299281700957e-06
8.04450000000000e+00 3.33351776495055e-04 8.51832422500387e-06
8.07550000000000e+00 3.23050750461625e-04 8.27098691798124e-06
8.10650000000000e+00 3.13068040227970e-04 8.03077210204246e-06
8.13750000000000e+00 3.03393809400311e-04 7.79747684531149e-06
8.16850000000000e+00 2.94018525542898e-04 7.57090391658382e-06
8.19950000000000e+00 2.84932950785288e-04 7.35086162828853e-06
8.23050000000000e+00 2.76128132719874e-04 7.13716368365454e-06
8.26150000000000e+00 2.67595395580698e-04 6.92962902797393e-06
8.29250000000000e+00 2.59326331694837e-04 6.72808170385610e-06
8.32350000000000e+00 2.51312793197969e-04 6.53235071037128e-06
8.35450000000000e+00 2.43546884005928e-04 6.34226986598264e-06
8.38550000000000e+00 2.36020952034352e-04 6.15767767516934e-06
8.41650000000000e+00 2.28727581658757e-04 5.97841719864569e-06
8.44750000000000e+00 2.21659586407604e-04 5.80433592708238e-06
8.47850000000000e+00 2.14810001881158e-04 5.63528565823973e-06
8.50950000000000e+00 2.08172078889162e-04 5.47112237742410e-06
8.54050000000000e+00 2.01739276800578e-04 5.31170614118080e-06
8.57150000000000e+00 1.95505257098815e-04 5.15690096413924e-06
8.60250000000000e+00 1.89463877136116e-04 5.00657470892798e-06
8.63350000000000e+00 1.83609184080947e-04 4.86059897907953e-06
8.66450000000000e+00 1.77935409052414e-04 4.71884901484644e-06
8.69550000000000e+00 1.72436961435936e-04 4.58120359185229e-06
8.72650000000000e+00 1.67108423374572e-04 4.44754492250323e-06
8.75750000000000e+00 1.61944544430575e-04 4.31775856008723e-06
8.78850000000000e+00 1.56940236411907e-04 4.19173330549029e-06
8.81950000000000e+00 1.52090568358628e-04 4.06936111646053e-06
8.85050000000000e+00 1.47390761684208e-04 3.95053701935301e-06
8.88150000000000e+00 1.42836185466977e-04 3.83515902328922e-06
8.91250000000000e+00 1.38422351887083e-04 3.72312803666752e-06
8.94350000000000e+00 1.34144911804448e-04 3.61434778596213e-06
8.97450000000000e+00 1.29999650473374e-04 3.50872473674971e-06
9.00550000000000e+00 1.25982483389571e-04 3.40616801690436e-06
9.03650000000000e+00 1.22089452265522e-04 3.30658934190328e-06
9.06750000000000e+00 1.18316721130211e-04 3.20990294218656e-06
9.09850000000000e+00 1.14660572549372e-04 3.11602549251654e-06
9.12950000000000e+00 1.11117403962548e-04 3.02487604328312e-06
9.16050000000000e+00 1.07683724133330e-04 2.93637595370286e-06
9.19150000000000e+00 1.04356149709287e-04 2.85044882686097e-06
9.22250000000000e+00 1.01131401888212e-04 2.76702044654712e-06
9.25350000000000e+00 9.80063031873708e-05 2.68601871583664e-06
9.28450000000000e+00 9.49777743125943e-05 2.60737359736993e-06
9.31550000000000e+00 9.20428311241161e-05 2.53101705528478e-06
9.34650000000000e+00 8.91985816961723e-05 2.45688299875661e-06
9.37750000000000e+00 8.64422234674621e-05 2.38490722710361e-06
9.40850000000000e+00 8.37710404796639e-05 2.31502737641423e-06
9.43950000000000e+00 8.11824007012846e-05 2.24718286765597e-06
9.47050000000000e+00 7.86737534342055e-05 2.18131485622516e-06
9.50150000000000e+00 7.62426268003703e-05 2.11736618289894e-06
9.53250000000000e+00 7.38866253061370e-05 2.05528132615140e-06
9.56350000000000e+00 7.16034274818947e-05 1.99500635579645e-06
9.59450000000000e+00 6.93907835946204e-05 1.93648888792172e-06
9.62550000000000e+00 6.72465134311198e-05 1.87967804107841e-06
9.65650000000000e+00 6.51685041497694e-05 1.82452439369243e-06
9.68750000000000e+00 6.31547081986433e-05 1.77097994266396e-06
9.71850000000000e+00 6.12031412979715e-05 1.71899806312289e-06
9.74950000000000e+00 5.93118804849443e-05 1.66853346930848e-06
9.78050000000000e+00 5.74790622189341e-05 1.61954217654261e-06
