Energy (eV)          EEDF (eV^-(3/2))     First Anisotropy
3.41000000000000e-03 1.14553659542608e+00 6.00461048682966e-04
1.02300000000000e-02 1.13765389416382e+00 9.91453453165898e-04
1.70500000000000e-02 1.12982543558508e+00 1.30862321461010e-03
2.38700000000000e-02 1.12205084643358e+00 1.54945323364778e-03
3.06900000000000e-02 1.11432975602139e+00 1.75020396852747e-03
3.75100000000000e-02 1.10666179621138e+00 1.92458506940048e-03
4.43300000000000e-02 1.09904660139964e+00 2.07969131036040e-03
5.11500000000000e-02 1.09148380849805e+00 2.21980702300543e-03
5.79700000000000e-02 1.08397305691700e+00 2.34777365306764e-03
6.47900000000000e-02 1.07651398854816e+00 2.46559947496715e-03
7.16100000000000e-02 1.06910624774746e+00 2.57477111618702e-03
7.84300000000000e-02 1.06174948131807e+00 2.67642859452635e-03
8.52500000000000e-02 1.05444333849358e+00 2.77147084972882e-03
9.20700000000000e-02 1.04718747092132e+00 2.86062293905048e-03
9.88900000000000e-02 1.03998153264569e+00 2.94448073127022e-03
1.05710000000000e-01 1.03282518009170e+00 3.02354171615356e-03
1.12530000000000e-01 1.02571807204856e+00 3.09822688662461e-03
1.19350000000000e-01 1.01865986965345e+00 3.16889667948952e-03
1.26170000000000e-01 1.01165023637535e+00 3.23586284398989e-03
1.32990000000000e-01 1.00468883799896e+00 3.29939744771072e-03
1.39810000000000e-01 9.97775342608808e-01 3.35973982513561e-03
1.46630000000000e-01 9.90909420573415e-01 3.41710201855520e-03
1.53450000000000e-01 9.84090744529562e-01 3.47167309491731e-03
1.60270000000000e-01 9.77318989366695e-01 3.52362261157792e-03
1.67090000000000e-01 9.70593832211421e-01 3.57310342862538e-03
1.73910000000000e-01 9.63914952412113e-01 3.62025401320239e-03
1.80730000000000e-01 9.57282031523621e-01 3.66520034435172e-03
1.87550000000000e-01 9.50694753292090e-01 3.70805750044069e-03
1.94370000000000e-01 9.44152803639881e-01 3.74893099194333e-03
2.01190000000000e-01 9.37655870650595e-01 3.78791788813842e-03
2.08010000000000e-01 9.31203644554202e-01 3.82510777566243e-03
2.14830000000000e-01 9.24795817712272e-01 3.86058357883931e-03
2.21650000000000e-01 9.18432084603303e-01 3.89442226558525e-03
2.28470000000000e-01 9.12112141808160e-01 3.92669545797047e-03
2.35290000000000e-01 9.05835687995603e-01 3.95746996285575e-03
2.42110000000000e-01 8.99602423907922e-01 3.98680823514438e-03
2.48930000000000e-01 8.93412052346670e-01 4.01476878391958e-03
2.55750000000000e-01 8.87264278158488e-01 4.04140652992638e-03
2.62570000000000e-01 8.81158808221037e-01 4.06677312141062e-03
2.69390000000000e-01 8.75095351429021e-01 4.09091721415748e-03
2.76210000000000e-01 8.69073618680304e-01 4.11388472061929e-03
2.83030000000000e-01 8.63093322862132e-01 4.13571903225121e-03
2.89850000000000e-01 8.57154178837438e-01 4.15646121853593e-03
2.96670000000000e-01 8.51255903431248e-01 4.17615020565151e-03
3.03490000000000e-01 8.45398215417183e-01 4.19482293730368e-03
3.10310000000000e-01 8.39580835504045e-01 4.21251451987866e-03
3.17130000000000e-01 8.33803486322503e-01 4.22925835377112e-03
3.23950000000000e-01 8.28065892411870e-01 4.24508625248562e-03
3.30770000000000e-01 8.22367780206967e-01 4.26002855089343e-03
3.37590000000000e-01 8.16708878025080e-01 4.27411420384710e-03
3.44410000000000e-01 8.11088916053005e-01 4.28737087619665e-03
3.51230000000000e-01 8.05507626334186e-01 4.29982502512133e-03
3.58050000000000e-01 7.99964742755938e-01 4.31150197557674e-03
3.64870000000000e-01 7.94460001036758e-01 4.32242598955972e-03
3.71690000000000e-01 7.88993138713726e-01 4.33262032981069e-03
3.78510000000000e-01 7.83563895129988e-01 4.34210731849749e-03
3.85330000000000e-01 7.78172011422331e-01 4.35090839136598e-03
3.92150000000000e-01 7.72817230508840e-01 4.35904414778640e-03
3.98970000000000e-01 7.67499297076640e-01 4.36653439707491e-03
4.05790000000000e-01 7.62217957569721e-01 4.37339820143244e-03
4.12610000000000e-01 7.56972960176851e-01 4.37965391580240e-03
4.19430000000000e-01 7.51764054819571e-01 4.38531922491951e-03
4.26250000000000e-01 7.46590993140267e-01 4.39041117779349e-03
4.33070000000000e-01 7.41453528490331e-01 4.39494621984477e-03
4.39890000000000e-01 7.36351415918403e-01 4.39894022289124e-03
4.46710000000000e-01 7.31284412158689e-01 4.40240851316032e-03
4.53530000000000e-01 7.26252275619361e-01 4.40536589748912e-03
4.60350000000000e-01 7.21254766371042e-01 4.40782668785600e-03
4.67170000000000e-01 7.16291646135365e-01 4.40980472437505e-03
4.73990000000000e-01 7.11362678273609e-01 4.41131339687312e-03
4.80810000000000e-01 7.06467627775421e-01 4.41236566515600e-03
4.87630000000000e-01 7.01606261247605e-01 4.41297407806372e-03
4.94450000000000e-01 6.96778346903002e-01 4.41315079140402e-03
5.01270000000000e-01 6.91983654549431e-01 4.41290758484605e-03
5.08090000000000e-01 6.87221955578716e-01 4.41225587784852e-03
5.14910000000000e-01 6.82493022955788e-01 4.41120674469111e-03
5.21730000000000e-01 6.77796631207858e-01 4.40977092867208e-03
5.28550000000000e-01 6.73132556413666e-01 4.40795885552892e-03
5.35370000000000e-01 6.68500576192808e-01 4.40578064613637e-03
5.42190000000000e-01 6.63900469695130e-01 4.40324612852843e-03
5.49010000000000e-01 6.59332017590198e-01 4.40036484928952e-03
5.55830000000000e-01 6.54795002056843e-01 4.39714608435725e-03
5.62650000000000e-01 6.50289206772772e-01 4.39359884927332e-03
5.69470000000000e-01 6.45814416904255e-01 4.38973190891872e-03
5.76290000000000e-01 6.41370419095884e-01 4.38555378676451e-03
5.83110000000000e-01 6.36957001460399e-01 4.38107277366946e-03
5.89930000000000e-01 6.32573953568583e-01 4.37629693625188e-03
5.96750000000000e-01 6.28221066439233e-01 4.37123412486070e-03
6.03570000000000e-01 6.23898132529192e-01 4.36589198117068e-03
6.10390000000000e-01 6.19604945723458e-01 4.36027794542381e-03
6.17210000000000e-01 6.15341301325350e-01 4.35439926333713e-03
6.24030000000000e-01 6.11106996046756e-01 4.34826299269635e-03
6.30850000000000e-01 6.06901827998433e-01 4.34187600965335e-03
6.37670000000000e-01 6.02725596680387e-01 4.33524501474449e-03
6.44490000000000e-01 5.98578102972308e-01 4.32837653864479e-03
6.51310000000000e-01 5.94459149124082e-01 4.32127694767237e-03
6.58130000000000e-01 5.90368538746356e-01 4.31395244905697e-03
6.64950000000000e-01 5.86306076801179e-01 4.30640909598627e-03
6.71770000000000e-01 5.82271569592701e-01 4.29865279244042e-03
6.78590000000000e-01 5.78264824757938e-01 4.29068929782542e-03
6.85410000000000e-01 5.74285651257599e-01 4.28252423141880e-03
6.92230000000000e-01 5.70333859366979e-01 4.27416307663390e-03
6.99050000000000e-01 5.66409260666912e-01 4.26561118511295e-03
7.05870000000000e-01 5.62511668034789e-01 4.25687378066014e-03
7.12690000000000e-01 5.58640895635633e-01 4.24795596301801e-03
7.19510000000000e-01 5.54796758913243e-01 4.23886271149920e-03
7.26330000000000e-01 5.50979074581387e-01 4.22959888847904e-03
7.33150000000000e-01 5.47187660615073e-01 4.22016924275348e-03
7.39970000000000e-01 5.43422336241861e-01 4.21057841277298e-03
7.46790000000000e-01 5.39682921933251e-01 4.20083092975506e-03
7.53610000000000e-01 5.35969239396117e-01 4.19093122068261e-03
7.60430000000000e-01 5.32281111564211e-01 4.18088361119364e-03
7.67250000000000e-01 5.28618362589719e-01 4.17069232836522e-03
7.74070000000000e-01 5.24980817834874e-01 4.16036150339847e-03
7.80890000000000e-01 5.21368303863634e-01 4.14989517420988e-03
7.87710000000000e-01 5.17780648433410e-01 4.13929728793023e-03
7.94530000000000e-01 5.14217680486853e-01 4.12857170331698e-03
8.01350000000000e-01 5.10679230143699e-01 4.11772219308498e-03
8.08170000000000e-01 5.07165128692670e-01 4.10675244615628e-03
8.14990000000000e-01 5.03675208583430e-01 4.09566606983490e-03
8.21810000000000e-01 5.00209303418593e-01 4.08446659190924e-03
8.28630000000000e-01 4.96767247945792e-01 4.07315746268310e-03
8.35450000000000e-01 4.93348878049803e-01 4.06174205694206e-03
8.42270000000000e-01 4.89954030744714e-01 4.05022367585583e-03
8.49090000000000e-01 4.86582544166157e-01 4.03860554881777e-03
8.55910000000000e-01 4.83234257563589e-01 4.02689083522600e-03
8.62730000000000e-01 4.79909011292631e-01 4.01508262620922e-03
8.69550000000000e-01 4.76606646807451e-01 4.00318394629799e-03
8.76370000000000e-01 4.73327006653210e-01 3.99119775504252e-03
8.83190000000000e-01 4.70069934458551e-01 3.97912694858213e-03
8.90010000000000e-01 4.66835274928142e-01 3.96697436116648e-03
8.96830000000000e-01 4.63622873835278e-01 3.95474276662968e-03
9.03650000000000e-01 4.60432578014521e-01 3.94243487982096e-03
9.10470000000000e-01 4.57264235354401e-01 3.93005335799276e-03
9.17290000000000e-01 4.54117694790159e-01 3.91760080214609e-03
9.24110000000000e-01 4.50992806296552e-01 3.90507975833798e-03
9.30930000000000e-01 4.47889420880693e-01 3.89249271895093e-03
9.37750000000000e-01 4.44807390574947e-01 3.87984212392428e-03
9.44570000000000e-01 4.41746568429884e-01 3.86713036195111e-03
9.51390000000000e-01 4.38706808507261e-01 3.85435977164114e-03
9.58210000000000e-01 4.35687965873074e-01 3.84153264265062e-03
9.65030000000000e-01 4.32689896590640e-01 3.82865121678022e-03
9.71850000000000e-01 4.29712457713741e-01 3.81571768904291e-03
9.78670000000000e-01 4.26755507279802e-01 3.80273420870172e-03
9.85490000000000e-01 4.23818904303125e-01 3.78970288027939e-03
9.92310000000000e-01 4.20902508768171e-01 3.77662576454095e-03
9.99130000000000e-01 4.18006181622875e-01 3.76350487944898e-03
1.00595000000000e+00 4.15129784772024e-01 3.75034220109337e-03
1.01277000000000e+00 4.12273181070671e-01 3.73713966459680e-03
1.01959000000000e+00 4.09436234317592e-01 3.72389916499583e-03
1.02641000000000e+00 4.06618809248798e-01 3.71062255809879e-03
1.03323000000000e+00 4.03820771531080e-01 3.69731166132150e-03
1.04005000000000e+00 4.01041987755610e-01 3.68396825450193e-03
1.04687000000000e+00 3.98282325431573e-01 3.67059408069252e-03
1.05369000000000e+00 3.95541652979857e-01 3.65719084693255e-03
1.06051000000000e+00 3.92819839726774e-01 3.64376022500245e-03
1.06733000000000e+00 3.90116755897835e-01 3.63030385215742e-03
1.07415000000000e+00 3.87432272611554e-01 3.61682333184272e-03
1.08097000000000e+00 3.84766261873313e-01 3.60332023439206e-03
1.08779000000000e+00 3.82118596569252e-01 3.58979609770799e-03
1.09461000000000e+00 3.79489150460211e-01 3.57625242792589e-03
1.10143000000000e+00 3.76877798175712e-01 3.56269070006187e-03
1.10825000000000e+00 3.74284415207978e-01 3.54911235864427e-03
1.11507000000000e+00 3.71708877906001e-01 3.53551881833065e-03
1.12189000000000e+00 3.69151063469643e-01 3.52191146450942e-03
1.12871000000000e+00 3.66610849943782e-01 3.50829165388735e-03
1.13553000000000e+00 3.64088116212496e-01 3.49466071506347e-03
1.14235000000000e+00 3.61582741993293e-01 3.48101994908857e-03
1.14917000000000e+00 3.59094607831369e-01 3.46737063001269e-03
1.15599000000000e+00 3.56623595093919e-01 3.45371400541910e-03
1.16281000000000e+00 3.54169585964474e-01 3.44005129694610e-03
1.16963000000000e+00 3.51732463437291e-01 3.42638370079676e-03
1.17645000000000e+00 3.49312111311768e-01 3.41271238823709e-03
1.18327000000000e+00 3.46908414186908e-01 3.39903850608273e-03
1.19009000000000e+00 3.44521257455813e-01 3.38536317717464e-03
1.19691000000000e+00 3.42150527300222e-01 3.37168750084443e-03
1.20373000000000e+00 3.39796110685085e-01 3.35801255336856e-03
1.21055000000000e+00 3.37457895353171e-01 3.34433938841318e-03
1.21737000000000e+00 3.35135769819716e-01 3.33066903746863e-03
1.22419000000000e+00 3.32829623367112e-01 3.31700251027428e-03
1.23101000000000e+00 3.30539346039619e-01 3.30334079523413e-03
1.23783000000000e+00 3.28264828638132e-01 3.28968485982339e-03
1.24465000000000e+00 3.26005962714969e-01 3.27603565098668e-03
1.25147000000000e+00 3.23762640568701e-01 3.26239409552710e-03
1.25829000000000e+00 3.21534755239017e-01 3.24876110048668e-03
1.26511000000000e+00 3.19322200501626e-01 3.23513755351905e-03
1.27193000000000e+00 3.17124870863190e-01 3.22152432325468e-03
1.27875000000000e+00 3.14942661556295e-01 3.20792225965759e-03
1.28557000000000e+00 3.12775468534455e-01 3.19433219437432e-03
1.29239000000000e+00 3.10623188467154e-01 3.18075494107645e-03
1.29921000000000e+00 3.08485718734915e-01 3.16719129579589e-03
1.30603000000000e+00 3.06362957424409e-01 3.15364203725207e-03
1.31285000000000e+00 3.04254803323598e-01 3.14010792717345e-03
1.31967000000000e+00 3.02161155916906e-01 3.12658971061247e-03
1.32649000000000e+00 3.00081915380429e-01 3.11308811625328e-03
1.33331000000000e+00 2.98016982577172e-01 3.09960385671345e-03
1.34013000000000e+00 2.95966259052327e-01 3.08613762883988e-03
1.34695000000000e+00 2.93929647028575e-01 3.07269011399839e-03
1.35377000000000e+00 2.91907049401425e-01 3.05926197835732e-03
1.36059000000000e+00 2.89898369734585e-01 3.04585387316598e-03
1.36741000000000e+00 2.87903512255364e-01 3.03246643502696e-03
1.37423000000000e+00 2.85922381850104e-01 3.01910028616333e-03
1.38105000000000e+00 2.83954884059645e-01 3.00575603468044e-03
1.38787000000000e+00 2.82000925074825e-01 2.99243427482260e-03
1.39469000000000e+00 2.80060411732001e-01 2.97913558722463e-03
1.40151000000000e+00 2.78133251508614e-01 2.96586053915832e-03
1.40833000000000e+00 2.76219352518771e-01 2.95260968477456e-03
1.41515000000000e+00 2.74318623508869e-01 2.93938356534051e-03
1.42197000000000e+00 2.72430973853242e-01 2.92618270947170e-03
1.42879000000000e+00 2.70556313549839e-01 2.91300763335999e-03
1.43561000000000e+00 2.68694553215935e-01 2.89985884099806e-03
1.44243000000000e+00 2.66845604083866e-01 2.88673682439805e-03
1.44925000000000e+00 2.65009377996802e-01 2.87364206380650e-03
1.45607000000000e+00 2.63185787404538e-01 2.86057502791610e-03
1.46289000000000e+00 2.61374745359323e-01 2.84753617407228e-03
1.46971000000000e+00 2.59576165511713e-01 2.83452594847628e-03
1.47653000000000e+00 2.57789962106455e-01 2.82154478638495e-03
1.48335000000000e+00 2.56016049978398e-01 2.80859311230604e-03
1.49017000000000e+00 2.54254344548431e-01 2.79567134018973e-03
1.49699000000000e+00 2.52504761819452e-01 2.78277987361737e-03
1.50381000000000e+00 2.50767218372362e-01 2.76991910598635e-03
1.51063000000000e+00 2.49041631362088e-01 2.75708942069118e-03
1.51745000000000e+00 2.47327918513634e-01 2.74429119130165e-03
1.52427000000000e+00 2.45625998118156e-01 2.73152478173768e-03
1.53109000000000e+00 2.43935789029068e-01 2.71879054644095e-03
1.53791000000000e+00 2.42257210658172e-01 2.70608883054315e-03
1.54473000000000e+00 2.40590182971818e-01 2.69341997003115e-03
1.55155000000000e+00 2.38934626487082e-01 2.68078429190979e-03
1.55837000000000e+00 2.37290462267983e-01 2.66818211436094e-03
1.56519000000000e+00 2.35657611921717e-01 2.65561374689959e-03
1.57201000000000e+00 2.34035997594917e-01 2.64307949052849e-03
1.57883000000000e+00 2.32425541969945e-01 2.63057963788858e-03
1.58565000000000e+00 2.30826168261203e-01 2.61811447340679e-03
1.59247000000000e+00 2.29237800211471e-01 2.60568427344228e-03
1.59929000000000e+00 2.27660362088273e-01 2.59328930642880e-03
1.60611000000000e+00 2.26093778680268e-01 2.58092983301552e-03
1.61293000000000e+00 2.24537975293658e-01 2.56860610620500e-03
1.61975000000000e+00 2.22992877748633e-01 2.55631837148832e-03
1.62657000000000e+00 2.21458412375829e-01 2.54406686697829e-03
1.63339000000000e+00 2.19934506012821e-01 2.53185182354023e-03
1.64021000000000e+00 2.18421086000628e-01 2.51967346492038e-03
1.64703000000000e+00 2.16918080180254e-01 2.50753200787214e-03
1.65385000000000e+00 2.15425416889246e-01 2.49542766227996e-03
1.66067000000000e+00 2.13943024958276e-01 2.48336063128134e-03
1.66749000000000e+00 2.12470833707749e-01 2.47133111138650e-03
1.67431000000000e+00 2.11008772944433e-01 2.45933929259580e-03
1.68113000000000e+00 2.09556772958111e-01 2.44738535851569e-03
1.68795000000000e+00 2.08114764518258e-01 2.43546948647190e-03
1.69477000000000e+00 2.06682678870740e-01 2.42359184762120e-03
1.70159000000000e+00 2.05260447734538e-01 2.41175260706130e-03
1.70841000000000e+00 2.03848003298489e-01 2.39995192393860e-03
1.71523000000000e+00 2.02445278218052e-01 2.38818995155413e-03
1.72205000000000e+00 2.01052205612104e-01 2.37646683746756e-03
1.72887000000000e+00 1.99668719059743e-01 2.36478272359997e-03
1.73569000000000e+00 1.98294752597126e-01 2.35313774633417e-03
1.74251000000000e+00 1.96930240714321e-01 2.34153203661381e-03
1.74933000000000e+00 1.95575118352186e-01 2.32996572004063e-03
1.75615000000000e+00 1.94229320899267e-01 2.31843891696990e-03
1.76297000000000e+00 1.92892784188713e-01 2.30695174260465e-03
1.76979000000000e+00 1.91565444495224e-01 2.29550430708795e-03
1.77661000000000e+00 1.90247238532005e-01 2.28409671559380e-03
1.78343000000000e+00 1.88938103447754e-01 2.27272906841675e-03
1.79025000000000e+00 1.87637976823663e-01 2.26140146105919e-03
1.79707000000000e+00 1.86346796670442e-01 2.25011398431799e-03
1.80389000000000e+00 1.85064501425362e-01 2.23886672436935e-03
1.81071000000000e+00 1.83791029949325e-01 2.22765976285232e-03
1.81753000000000e+00 1.82526321523942e-01 2.21649317695131e-03
1.82435000000000e+00 1.81270315848643e-01 2.20536703947628e-03
1.83117000000000e+00 1.80022953037799e-01 2.19428141894229e-03
1.83799000000000e+00 1.78784173617867e-01 2.18323637964768e-03
1.84481000000000e+00 1.77553918524559e-01 2.17223198175079e-03
1.85163000000000e+00 1.76332129100017e-01 2.16126828134556e-03
1.85845000000000e+00 1.75118747090025e-01 2.15034533053569e-03
1.86527000000000e+00 1.73913714641225e-01 2.13946317750793e-03
1.87209000000000e+00 1.72716974298364e-01 2.12862186660358e-03
1.87891000000000e+00 1.71528469001550e-01 2.11782143838944e-03
1.88573000000000e+00 1.70348142083533e-01 2.10706192972711e-03
1.89255000000000e+00 1.69175937267004e-01 2.09634337384149e-03
1.89937000000000e+00 1.68011798661913e-01 2.08566580038804e-03
1.90619000000000e+00 1.66855670762798e-01 2.07502923551875e-03
1.91301000000000e+00 1.65707498446147e-01 2.06443370194747e-03
1.91983000000000e+00 1.64567226967764e-01 2.05387921901385e-03
1.92665000000000e+00 1.63434801960159e-01 2.04336580274607e-03
1.93347000000000e+00 1.62310169429960e-01 2.03289346592289e-03
1.94029000000000e+00 1.61193275755335e-01 2.02246221813473e-03
1.94711000000000e+00 1.60084067683434e-01 2.01207206584351e-03
1.95393000000000e+00 1.58982492327854e-01 2.00172301244153e-03
1.96075000000000e+00 1.57888497166116e-01 1.99141505830940e-03
1.96757000000000e+00 1.56802030037160e-01 1.98114820087344e-03
1.97439000000000e+00 1.55723039138857e-01 1.97092243466157e-03
1.98121000000000e+00 1.54651473025541e-01 1.96073775135865e-03
1.98803000000000e+00 1.53587280605556e-01 1.95059413986072e-03
1.99485000000000e+00 1.52530411138820e-01 1.94049158632848e-03
2.00167000000000e+00 1.51480814234404e-01 1.93043007423995e-03
2.00849000000000e+00 1.50438439848130e-01 1.92040958444227e-03
2.01531000000000e+00 1.49403238280187e-01 1.91043009520250e-03
2.02213000000000e+00 1.48375160172760e-01 1.90049158225757e-03
2.02895000000000e+00 1.47354156507675e-01 1.89059401886414e-03
2.03577000000000e+00 1.46340178604064e-01 1.88073737584653e-03
2.04259000000000e+00 1.45333178116044e-01 1.87092162164448e-03
2.04941000000000e+00 1.44333107030411e-01 1.86114672236064e-03
2.05623000000000e+00 1.43339917664350e-01 1.85141264180624e-03
2.06305000000000e+00 1.42353562663163e-01 1.84171934154657e-03
2.06987000000000e+00 1.41373994998011e-01 1.83206678094614e-03
2.07669000000000e+00 1.40401167963670e-01 1.82245491721233e-03
2.08351000000000e+00 1.39435035176307e-01 1.81288370543853e-03
2.09033000000000e+00 1.38475550571266e-01 1.80335309864728e-03
2.09715000000000e+00 1.37522668400872e-01 1.79386304783196e-03
2.10397000000000e+00 1.36576343232251e-01 1.78441350199793e-03
2.11079000000000e+00 1.35636529945164e-01 1.77500440820330e-03
2.11761000000000e+00 1.34703183729852e-01 1.76563571159876e-03
2.12443000000000e+00 1.33776260084906e-01 1.75630735546708e-03
2.13125000000000e+00 1.32855714815138e-01 1.74701928126164e-03
2.13807000000000e+00 1.31941504029479e-01 1.73777142864453e-03
2.14489000000000e+00 1.31033584138885e-01 1.72856373552402e-03
2.15171000000000e+00 1.30131911854257e-01 1.71939613809143e-03
