Energy (eV)          EEDF (eV^-(3/2))     First Anisotropy
1.95192307692308e-02 7.89118611353169e-02 4.10226177650011e-05
5.85576923076923e-02 7.83895163146234e-02 6.77435451473941e-05
9.75961538461538e-02 7.78706290737223e-02 8.94385438756884e-05
1.36634615384615e-01 7.73551765243534e-02 1.05926123881019e-04
1.75673076923077e-01 7.68431359358321e-02 1.19681708521775e-04
2.14711538461538e-01 7.63344847191706e-02 1.31640867863398e-04
2.53750000000000e-01 7.58292004416919e-02 1.42287585570489e-04
2.92788461538461e-01 7.53272608141758e-02 1.51914022097877e-04
3.31826923076923e-01 7.48286436990613e-02 1.60713875625296e-04
3.70865384615385e-01 7.43333271018947e-02 1.68824000396254e-04
4.09903846153846e-01 7.38412891767737e-02 1.76345667796074e-04
4.48942307692308e-01 7.33525082198140e-02 1.83356510851234e-04
4.87980769230769e-01 7.28669626731016e-02 1.89917724585557e-04
5.27019230769231e-01 7.23846311193533e-02 1.96078650291364e-04
5.66057692307692e-01 7.19054922840641e-02 2.01879823769426e-04
6.05096153846154e-01 7.14295250344374e-02 2.07355077171500e-04
6.44134615384615e-01 7.09567083758083e-02 2.12533030855444e-04
6.83173076923077e-01 7.04870214540976e-02 2.17438180344007e-04
7.22211538461538e-01 7.00204435517757e-02 2.22091705494997e-04
7.61250000000000e-01 6.95569540898353e-02 2.26512084357751e-04
8.00288461538461e-01 6.90965326241975e-02 2.30715566788283e-04
8.39326923076923e-01 6.86391588473194e-02 2.34716545199981e-04
8.78365384615385e-01 6.81848125849454e-02 2.38527848726250e-04
9.17403846153846e-01 6.77334737974304e-02 2.42160979309255e-04
9.56442307692308e-01 6.72851225767684e-02 2.45626303291171e-04
9.95480769230769e-01 6.68397391476882e-02 2.48933208336174e-04
1.03451923076923e+00 6.63973038649104e-02 2.52090233108880e-04
1.07355769230769e+00 6.59577972144603e-02 2.55105175403358e-04
1.11259615384615e+00 6.55211998106596e-02 2.57985183060176e-04
1.15163461538462e+00 6.50874923961557e-02 2.60736830902326e-04
1.19067307692308e+00 6.46566558374397e-02 2.63366184436594e-04
1.22971153846154e+00 6.42286711350878e-02 2.65878856801786e-04
1.26875000000000e+00 6.38035194116331e-02 2.68280057911698e-04
1.30778846153846e+00 6.33811819145581e-02 2.70574634285314e-04
1.34682692307692e+00 6.29616400154807e-02 2.72767105710344e-04
1.38586538461538e+00 6.25448752093418e-02 2.74861697231985e-04
1.42490384615385e+00 6.21308691106564e-02 2.76862365310470e-04
1.46394230769231e+00 6.17196034615966e-02 2.78772823110591e-04
1.50298076923077e+00 6.13110601221494e-02 2.80596562950962e-04
1.54201923076923e+00 6.09052210723791e-02 2.82336873843063e-04
1.58105769230769e+00 6.05020684116176e-02 2.83996858918660e-04
1.62009615384615e+00 6.01015843577064e-02 2.85579450535330e-04
1.65913461538462e+00 5.97037512461944e-02 2.87087424220348e-04
1.69817307692308e+00 5.93085515272321e-02 2.88523409532388e-04
1.73721153846154e+00 5.89159677718743e-02 2.89889901841020e-04
1.77625000000000e+00 5.85259826641340e-02 2.91189273037251e-04
1.81528846153846e+00 5.81385790026405e-02 2.92423779147160e-04
1.85432692307692e+00 5.77537396998875e-02 2.93595568851229e-04
1.89336538461538e+00 5.73714477814833e-02 2.94706691210901e-04
1.93240384615385e+00 5.69916863834284e-02 2.95759101214434e-04
1.97144230769231e+00 5.66144387573503e-02 2.96754666655073e-04
2.01048076923077e+00 5.62396882637087e-02 2.97695174486449e-04
2.04951923076923e+00 5.58674183731071e-02 2.98582334768274e-04
2.08855769230769e+00 5.54976126655559e-02 2.99417785753488e-04
2.12759615384615e+00 5.51302548297644e-02 3.00203098206276e-04
2.16663461538462e+00 5.47653286624127e-02 3.00939779719589e-04
2.20567307692308e+00 5.44028180657963e-02 3.01629277362403e-04
2.24471153846154e+00 5.40427070520949e-02 3.02272981757809e-04
2.28375000000000e+00 5.36849797376290e-02 3.02872230908834e-04
2.32278846153846e+00 5.33296203438566e-02 3.03428312062530e-04
2.36182692307692e+00 5.29766131966801e-02 3.03942464758284e-04
2.40086538461538e+00 5.26259427257579e-02 3.04415883645724e-04
2.43990384615385e+00 5.22775934623872e-02 3.04849719885858e-04
2.47894230769231e+00 5.19315500431498e-02 3.05245083953633e-04
2.51798076923077e+00 5.15877972048580e-02 3.05603048296015e-04
2.55701923076923e+00 5.12463197853568e-02 3.05924648274073e-04
2.59605769230769e+00 5.09071027228509e-02 3.06210884253402e-04
2.63509615384615e+00 5.05701310552493e-02 3.06462723262959e-04
2.67413461538462e+00 5.02353899195008e-02 3.06681100830443e-04
2.71317307692308e+00 4.99028645497162e-02 3.06866921596643e-04
2.75221153846154e+00 4.95725402802204e-02 3.07021061252209e-04
2.79125000000000e+00 4.92444025411636e-02 3.07144368394143e-04
2.83028846153846e+00 4.89184368591373e-02 3.07237664875684e-04
2.86932692307692e+00 4.85946288565379e-02 3.07301747235755e-04
2.90836538461538e+00 4.82729642509345e-02 3.07337388032880e-04
2.94740384615385e+00 4.79534288533544e-02 3.07345336082263e-04
2.98644230769231e+00 4.76360085709362e-02 3.07326317936860e-04
3.02548076923077e+00 4.73206894029963e-02 3.07281039318197e-04
3.06451923076923e+00 4.70074574415270e-02 3.07210185179174e-04
3.10355769230769e+00 4.66962988705797e-02 3.07114420780488e-04
3.14259615384615e+00 4.63871999656619e-02 3.06994392459054e-04
3.18163461538462e+00 4.60801470931283e-02 3.06850728592448e-04
3.22067307692308e+00 4.57751267086360e-02 3.06684039580227e-04
3.25971153846154e+00 4.54721253594043e-02 3.06494918976694e-04
3.29875000000000e+00 4.51711296807372e-02 3.06283944593283e-04
3.33778846153846e+00 4.48721263964030e-02 3.06051678367116e-04
3.37682692307692e+00 4.45751023180503e-02 3.05798667167428e-04
3.41586538461538e+00 4.42800443446274e-02 3.05525443551098e-04
3.45490384615385e+00 4.39869394609571e-02 3.05232525615869e-04
3.49394230769231e+00 4.36957747397236e-02 3.04920417929983e-04
3.53298076923077e+00 4.34065373383181e-02 3.04589612441804e-04
3.57201923076923e+00 4.31192144991413e-02 3.04240588251964e-04
3.61105769230769e+00 4.28337935490392e-02 3.03873812261712e-04
3.65009615384615e+00 4.25502618987481e-02 3.03489739577820e-04
3.68913461538461e+00 4.22686070423370e-02 3.03088814100742e-04
3.72817307692308e+00 4.19888165559088e-02 3.02671468290017e-04
3.76721153846154e+00 4.17108780993137e-02 3.02238123924343e-04
3.80625000000000e+00 4.14347794133237e-02 3.01789192849069e-04
3.84528846153846e+00 4.11605083198579e-02 3.01325076684222e-04
3.88432692307692e+00 4.08880527214467e-02 3.00846167342543e-04
3.92336538461538e+00 4.06174006006988e-02 3.00352847515271e-04
3.96240384615385e+00 4.03485400190940e-02 2.99845490395071e-04
4.00144230769231e+00 4.00814591185024e-02 2.99324460329299e-04
4.04048076923077e+00 3.98161461185981e-02 2.98790113464764e-04
4.07951923076923e+00 3.95525893170337e-02 2.98242797426571e-04
4.11855769230769e+00 3.92907770889219e-02 2.97682851754191e-04
4.15759615384615e+00 3.90306978863264e-02 2.97110608135828e-04
4.19663461538461e+00 3.87723402377507e-02 2.96526390806786e-04
4.23567307692308e+00 3.85156927470290e-02 2.95930516246239e-04
4.27471153846154e+00 3.82607440946479e-02 2.95323293734946e-04
4.31375000000000e+00 3.80074830354075e-02 2.94705025907648e-04
4.35278846153846e+00 3.77558983985435e-02 2.94076008416364e-04
4.39182692307692e+00 3.75059790872345e-02 2.93436530294756e-04
4.43086538461538e+00 3.72577140781140e-02 2.92786874299668e-04
4.46990384615385e+00 3.70110924202329e-02 2.92127316598391e-04
4.50894230769231e+00 3.67661032362394e-02 2.91458127262483e-04
4.54798076923077e+00 3.65227357202233e-02 2.90779570758275e-04
4.58701923076923e+00 3.62809791378023e-02 2.90091905606897e-04
4.62605769230769e+00 3.60408228256481e-02 2.89395384700951e-04
4.66509615384615e+00 3.58022561910175e-02 2.88690255450277e-04
4.70413461538462e+00 3.55652687112844e-02 2.87976760072510e-04
4.74317307692308e+00 3.53298499329821e-02 2.87255135278471e-04
4.78221153846154e+00 3.50959894728347e-02 2.86525612705936e-04
4.82125000000000e+00 3.48636770157945e-02 2.85788419351435e-04
4.86028846153846e+00 3.46329023150927e-02 2.85043777233922e-04
4.89932692307692e+00 3.44036551917871e-02 2.84291903667877e-04
4.93836538461538e+00 3.41759255343142e-02 2.83533011519145e-04
4.97740384615385e+00 3.39497032975897e-02 2.82767308894067e-04
5.01644230769231e+00 3.37249785039338e-02 2.81994999531202e-04
5.05548076923077e+00 3.35017412412524e-02 2.81216283192110e-04
5.09451923076923e+00 3.32799816630630e-02 2.80431355332085e-04
5.13355769230769e+00 3.30596899880598e-02 2.79640407342967e-04
5.17259615384615e+00 3.28408564996835e-02 2.78843626648826e-04
5.21163461538462e+00 3.26234715456922e-02 2.78041196929333e-04
5.25067307692308e+00 3.24075255373264e-02 2.77233297816996e-04
5.28971153846154e+00 3.21930089501226e-02 2.76420105247709e-04
5.32875000000000e+00 3.19799123222474e-02 2.75601791811140e-04
5.36778846153846e+00 3.17682262544984e-02 2.74778526432564e-04
5.40682692307692e+00 3.15579414098895e-02 2.73950474586957e-04
5.44586538461538e+00 3.13490485132400e-02 2.73117798499369e-04
5.48490384615385e+00 3.11415383503882e-02 2.72280656851140e-04
5.52394230769231e+00 3.09354017689231e-02 2.71439205100848e-04
5.56298076923077e+00 3.07306296766341e-02 2.70593595805286e-04
5.60201923076923e+00 3.05272130414954e-02 2.69743978312414e-04
5.64105769230769e+00 3.03251428912665e-02 2.68890498954746e-04
5.68009615384615e+00 3.01244103130980e-02 2.68033301114983e-04
5.71913461538461e+00 2.99250064531377e-02 2.67172525404169e-04
5.75817307692308e+00 2.97269225157982e-02 2.66308309379814e-04
5.79721153846154e+00 2.95301497644022e-02 2.65440787836848e-04
5.83625000000000e+00 2.93346795197564e-02 2.64570093098937e-04
5.87528846153846e+00 2.91405031601179e-02 2.63696354725173e-04
5.91432692307692e+00 2.89476121208140e-02 2.62819699683338e-04
5.95336538461538e+00 2.87559978938649e-02 2.61940252511773e-04
5.99240384615385e+00 2.85656520272918e-02 2.61058135048409e-04
6.03144230769231e+00 2.83765661256997e-02 2.60173466699479e-04
6.07048076923077e+00 2.81887318489444e-02 2.59286364708893e-04
6.10951923076923e+00 2.80021409120883e-02 2.58396943877046e-04
6.14855769230769e+00 2.78167850850341e-02 2.57505316719049e-04
6.18759615384615e+00 2.76326561921631e-02 2.56611593511399e-04
6.22663461538462e+00 2.74497461119735e-02 2.55715882437924e-04
6.26567307692308e+00 2.72680467764345e-02 2.54818289331620e-04
6.30471153846154e+00 2.70875501715011e-02 2.53918917920535e-04
6.34375000000000e+00 2.69082483358834e-02 2.53017870074359e-04
6.38278846153846e+00 2.67301333609900e-02 2.52115245537369e-04
6.42182692307692e+00 2.65531973905793e-02 2.51211142071868e-04
6.46086538461538e+00 2.63774326204129e-02 2.50305655592081e-04
6.49990384615385e+00 2.62028312976443e-02 2.49398879917187e-04
6.53894230769231e+00 2.60293857212838e-02 2.48490906999866e-04
6.57798076923077e+00 2.58570882410465e-02 2.47581827155764e-04
6.61701923076923e+00 2.56859312572871e-02 2.46671728808370e-04
6.65605769230769e+00 2.55159072206648e-02 2.45760698621179e-04
6.69509615384615e+00 2.53470086318108e-02 2.44848821531741e-04
6.73413461538462e+00 2.51792280409973e-02 2.43936180873534e-04
6.77317307692308e+00 2.50125580475643e-02 2.43022858141724e-04
6.81221153846154e+00 2.48469913003316e-02 2.42108933203603e-04
6.85125000000000e+00 2.46825204965314e-02 2.41194484509967e-04
6.89028846153846e+00 2.45191383817350e-02 2.40279588853625e-04
6.92932692307692e+00 2.43568377495335e-02 2.39364321490131e-04
6.96836538461538e+00 2.41956114412197e-02 2.38448756250451e-04
7.00740384615385e+00 2.40354523452452e-02 2.37532965317388e-04
7.04644230769231e+00 2.38763533975930e-02 2.36617019422130e-04
7.08548076923077e+00 2.37183075807749e-02 2.35700988041850e-04
7.12451923076923e+00 2.35613079237540e-02 2.34784939169500e-04
7.16355769230769e+00 2.34053475016367e-02 2.33868939425726e-04
7.20259615384615e+00 2.32504194353679e-02 2.32953054084327e-04
7.24163461538461e+00 2.30965168914276e-02 2.32037347175539e-04
7.28067307692308e+00 2.29436330813203e-02 2.31121881274436e-04
7.31971153846154e+00 2.27917612619062e-02 2.30206717682814e-04
7.35875000000000e+00 2.26408947344692e-02 2.29291916612069e-04
7.39778846153846e+00 2.24910268446340e-02 2.28377536965636e-04
7.43682692307692e+00 2.23421509820732e-02 2.27463636441891e-04
7.47586538461538e+00 2.21942605802155e-02 2.26550271630112e-04
7.51490384615385e+00 2.20473491157614e-02 2.25637497808866e-04
7.55394230769231e+00 2.19014101089829e-02 2.24725369116491e-04
7.59298076923077e+00 2.17564371228468e-02 2.23813938722587e-04
7.63201923076923e+00 2.16124237629284e-02 2.22903258620881e-04
7.67105769230769e+00 2.14693636771301e-02 2.21993379725071e-04
7.71009615384615e+00 2.13272505554010e-02 2.21084351888180e-04
7.74913461538462e+00 2.11860781294588e-02 2.20176223991099e-04
7.78817307692308e+00 2.10458401723340e-02 2.19269043751924e-04
7.82721153846154e+00 2.09065304986360e-02 2.18362857884270e-04
7.86625000000000e+00 2.07681429637360e-02 2.17457712256680e-04
7.90528846153846e+00 2.06306714636785e-02 2.16553651696929e-04
7.94432692307692e+00 2.04941099349123e-02 2.15650720080600e-04
7.98336538461538e+00 2.03584523540231e-02 2.14748960413677e-04
8.02240384615385e+00 2.02236927373004e-02 2.13848414650968e-04
8.06144230769231e+00 2.00898251409785e-02 2.12949123844958e-04
8.10048076923077e+00 1.99568436604659e-02 2.12051128295715e-04
8.13951923076923e+00 1.98247424302562e-02 2.11154467364610e-04
8.17855769230769e+00 1.96935156236681e-02 2.10259179557138e-04
8.21759615384615e+00 1.95631574525897e-02 2.09365302537914e-04
8.25663461538461e+00 1.94336621672224e-02 2.08472873207113e-04
8.29567307692308e+00 1.93050240556735e-02 2.07581927528986e-04
8.33471153846154e+00 1.91772374441694e-02 2.06692500670482e-04
8.37375000000000e+00 1.90502966963371e-02 2.05804627140866e-04
8.41278846153846e+00 1.89241962131126e-02 2.04918340615890e-04
8.45182692307692e+00 1.87989304324943e-02 2.04033674014625e-04
8.49086538461538e+00 1.86744938292971e-02 2.03150659571036e-04
8.52990384615384e+00 1.85508809147652e-02 2.02269328670680e-04
8.56894230769231e+00 1.84280862367647e-02 2.01389711981338e-04
8.60798076923077e+00 1.83061043791053e-02 2.00511839584596e-04
8.64701923076923e+00 1.81849299614483e-02 1.99635740808511e-04
8.68605769230769e+00 1.80645576390694e-02 1.98761444299644e-04
8.72509615384615e+00 1.79449821026227e-02 1.97888978034823e-04
8.76413461538461e+00 1.78261980779071e-02 1.97018369387631e-04
8.80317307692308e+00 1.77082003254997e-02 1.96149644974159e-04
8.84221153846154e+00 1.75909836409274e-02 1.95282830774971e-04
8.88125000000000e+00 1.74745428540323e-02 1.94417952257959e-04
8.92028846153846e+00 1.73588728288797e-02 1.93555034220404e-04
8.95932692307692e+00 1.72439684635312e-02 1.92694100855964e-04
8.99836538461538e+00 1.71298246898202e-02 1.91835175817131e-04
9.03740384615385e+00 1.70164364730033e-02 1.90978282068407e-04
9.07644230769231e+00 1.69037988119145e-02 1.90123442001365e-04
9.11548076923077e+00 1.67919067383662e-02 1.89270677550688e-04
9.15451923076923e+00 1.66807553170571e-02 1.88420010043795e-04
9.19355769230769e+00 1.65703396453539e-02 1.87571460263872e-04
9.23259615384615e+00 1.64606548530760e-02 1.86725048459168e-04
9.27163461538461e+00 1.63516961022799e-02 1.85880794401133e-04
9.31067307692308e+00 1.62434585869309e-02 1.85038717245759e-04
9.34971153846154e+00 1.61359375330394e-02 1.84198835641199e-04
9.38875000000000e+00 1.60291281980993e-02 1.83361167836312e-04
9.42778846153846e+00 1.59230258709973e-02 1.82525731538749e-04
9.46682692307692e+00 1.58176258718041e-02 1.81692543973686e-04
9.50586538461538e+00 1.57129235515688e-02 1.80861621938545e-04
9.54490384615385e+00 1.56089142920050e-02 1.80032981670969e-04
9.58394230769231e+00 1.55055935056145e-02 1.79206638950580e-04
9.62298076923077e+00 1.54029566351555e-02 1.78382609201554e-04
9.66201923076923e+00 1.53009991535522e-02 1.77560907357546e-04
9.70105769230769e+00 1.51997165636951e-02 1.76741547917043e-04
9.74009615384615e+00 1.50991043982427e-02 1.75924544950765e-04
9.77913461538462e+00 1.49991582194243e-02 1.75109912152739e-04
9.81817307692308e+00 1.48998736187439e-02 1.74297662715624e-04
9.85721153846154e+00 1.48012462170890e-02 1.73487809425992e-04
9.89625000000000e+00 1.47032716642323e-02 1.72680364760467e-04
9.93528846153846e+00 1.46059456387420e-02 1.71875340758195e-04
9.97432692307692e+00 1.45092638477916e-02 1.71072749072526e-04
1.00133653846154e+01 1.44132220269701e-02 1.70272600936227e-04
1.00524038461538e+01 1.43178159401884e-02 1.69474907457679e-04
1.00914423076923e+01 1.42230413788345e-02 1.68679678801915e-04
1.01304807692308e+01 1.41288941635553e-02 1.67886925344502e-04
1.01695192307692e+01 1.40353701408058e-02 1.67096657321497e-04
1.02085576923077e+01 1.39424651854653e-02 1.66308883388451e-04
1.02475961538462e+01 1.38501752006170e-02 1.65523613080354e-04
1.02866346153846e+01 1.37584961146614e-02 1.64740855206148e-04
1.03256730769231e+01 1.36674238847311e-02 1.63960618218239e-04
1.03647115384615e+01 1.35769544929596e-02 1.63182910654373e-04
1.04037500000000e+01 1.34870839489585e-02 1.62407739553325e-04
1.04427884615385e+01 1.33978082896054e-02 1.61635112809946e-04
1.04818269230769e+01 1.33091235763022e-02 1.60865038012174e-04
1.05208653846154e+01 1.32210258973784e-02 1.60097521293291e-04
1.05599038461538e+01 1.31335113678832e-02 1.59332569630756e-04
1.05989423076923e+01 1.30465761269225e-02 1.58570189344577e-04
1.06379807692308e+01 1.29602163407993e-02 1.57810386442998e-04
1.06770192307692e+01 1.28744281995715e-02 1.57053167035405e-04
1.07160576923077e+01 1.27892079193293e-02 1.56298535850392e-04
1.07550961538462e+01 1.27045517419948e-02 1.55546498437265e-04
1.07941346153846e+01 1.26204559327918e-02 1.54797059728099e-04
1.08331730769231e+01 1.25369167832223e-02 1.54050224368425e-04
1.08722115384615e+01 1.24539306077972e-02 1.53305997112111e-04
1.09112500000000e+01 1.23714937461947e-02 1.52564381402163e-04
1.09502884615385e+01 1.22896025630669e-02 1.51825381479436e-04
1.09893269230769e+01 1.22082534456351e-02 1.51089001340511e-04
1.10283653846154e+01 1.21274428057841e-02 1.50355243709206e-04
1.10674038461538e+01 1.20471670798732e-02 1.49624112095385e-04
1.11064423076923e+01 1.19674227263990e-02 1.48895609449204e-04
1.11454807692308e+01 1.18882062287361e-02 1.48169738470648e-04
1.11845192307692e+01 1.18095140921176e-02 1.47446501978818e-04
1.12235576923077e+01 1.17313428456210e-02 1.46725901583624e-04
1.12625961538462e+01 1.16536890419867e-02 1.46007939658352e-04
1.13016346153846e+01 1.15765492553947e-02 1.45292618050391e-04
1.13406730769231e+01 1.14999200840654e-02 1.44579938377512e-04
1.13797115384615e+01 1.14237981473881e-02 1.43869902381221e-04
1.14187500000000e+01 1.13481800878058e-02 1.43162510654108e-04
1.14577884615385e+01 1.12730625706396e-02 1.42457764530142e-04
1.14968269230769e+01 1.11984422819736e-02 1.41755665149854e-04
1.15358653846154e+01 1.11243159304849e-02 1.41056212537761e-04
1.15749038461538e+01 1.10506802472714e-02 1.40359407448247e-04
1.16139423076923e+01 1.09775319837962e-02 1.39665250158271e-04
1.16529807692308e+01 1.09048679142844e-02 1.38973740744856e-04
1.16920192307692e+01 1.08326848330687e-02 1.38284879415761e-04
1.17310576923077e+01 1.07609795563253e-02 1.37598665317681e-04
1.17700961538462e+01 1.06897489219086e-02 1.36915098305536e-04
1.18091346153846e+01 1.06189897873944e-02 1.36234177785390e-04
1.18481730769231e+01 1.05486990323558e-02 1.35555902980170e-04
1.18872115384615e+01 1.04788735558375e-02 1.34880273246225e-04
1.19262500000000e+01 1.04095102780042e-02 1.34207286931004e-04
1.19652884615385e+01 1.03406061399804e-02 1.33536943069271e-04
1.20043269230769e+01 1.02721581019881e-02 1.32869240543739e-04
1.20433653846154e+01 1.02041631449473e-02 1.32204177256745e-04
1.20824038461538e+01 1.01366182703198e-02 1.31541751786868e-04
1.21214423076923e+01 1.00695204982974e-02 1.30881962304808e-04
1.21604807692308e+01 1.00028668699027e-02 1.30224806822437e-04
1.21995192307692e+01 9.93665444465051e-03 1.29570283489218e-04
1.22385576923077e+01 9.87088030206815e-03 1.28918389521888e-04
1.22775961538462e+01 9.80554154154514e-03 1.28269122792966e-04
1.23166346153846e+01 9.74063528060725e-03 1.27622480791319e-04
