Energy (eV)          EEDF (eV^-(3/2))     First Anisotropy
4.91803278688525e-03 4.92003311532657e-01 2.35122196096537e-04
1.47540983606557e-02 4.89223190900041e-01 3.88462573915948e-04
2.45901639344262e-02 4.86458779660646e-01 5.13368590836069e-04
3.44262295081967e-02 4.83709989038252e-01 6.08598624623776e-04
4.42622950819672e-02 4.80976730767851e-01 6.88301915740504e-04
5.40983606557377e-02 4.78258917082455e-01 7.57818575353436e-04
6.39344262295082e-02 4.75556460715934e-01 8.19907447371205e-04
7.37704918032787e-02 4.72869274885155e-01 8.76231769334479e-04
8.36065573770492e-02 4.70197273302419e-01 9.27892830134046e-04
9.34426229508197e-02 4.67540370167532e-01 9.75667734911274e-04
1.03278688524590e-01 4.64898480167882e-01 1.02013080600301e-03
1.13114754098361e-01 4.62271518473983e-01 1.06172175301553e-03
1.22950819672131e-01 4.59659400716094e-01 1.10078673974099e-03
1.32786885245902e-01 4.57062043037809e-01 1.13760452568581e-03
1.42622950819672e-01 4.54479362016207e-01 1.17240383833352e-03
1.52459016393443e-01 4.51911274719602e-01 1.20537533352214e-03
1.62295081967213e-01 4.49357698701979e-01 1.23668010267644e-03
1.72131147540984e-01 4.46818551949293e-01 1.26645584970829e-03
1.81967213114754e-01 4.44293752942173e-01 1.29482149406514e-03
1.91803278688525e-01 4.41783220593042e-01 1.32188066114269e-03
2.01639344262295e-01 4.39286874299355e-01 1.34772437230716e-03
2.11475409836066e-01 4.36804633888975e-01 1.37243315260393e-03
2.21311475409836e-01 4.34336419655222e-01 1.39607869358226e-03
2.31147540983607e-01 4.31882152352931e-01 1.41872520231051e-03
2.40983606557377e-01 4.29441753162540e-01 1.44043048148812e-03
2.50819672131148e-01 4.27015143730787e-01 1.46124682000812e-03
2.60655737704918e-01 4.24602246127407e-01 1.48122172818087e-03
2.70491803278689e-01 4.22202982881205e-01 1.50039854918226e-03
2.80327868852459e-01 4.19817276940965e-01 1.51881697412590e-03
2.90163934426230e-01 4.17445051699722e-01 1.53651347028828e-03
3.00000000000000e-01 4.15086230991482e-01 1.55352165778261e-03
3.09836065573771e-01 4.12740739064466e-01 1.56987261978351e-03
3.19672131147541e-01 4.10408500610379e-01 1.58559517470575e-03
3.29508196721311e-01 4.08089440731715e-01 1.60071611207584e-03
3.39344262295082e-01 4.05783484961537e-01 1.61526039112761e-03
3.49180327868853e-01 4.03490559260455e-01 1.62925132556132e-03
3.59016393442623e-01 4.01210589993905e-01 1.64271073445893e-03
3.68852459016393e-01 3.98943503956428e-01 1.65565908006436e-03
3.78688524590164e-01 3.96689228343710e-01 1.66811558886409e-03
3.88524590163934e-01 3.94447690774866e-01 1.68009835834279e-03
3.98360655737705e-01 3.92218819266418e-01 1.69162445339583e-03
4.08196721311475e-01 3.90002542247418e-01 1.70270998687789e-03
4.18032786885246e-01 3.87798788556729e-01 1.71337020175484e-03
4.27868852459016e-01 3.85607487424535e-01 1.72361953511806e-03
4.37704918032787e-01 3.83428568491338e-01 1.73347168026583e-03
4.47540983606557e-01 3.81261961785143e-01 1.74293964214408e-03
4.57377049180328e-01 3.79107597739083e-01 1.75203578705346e-03
4.67213114754098e-01 3.76965407169959e-01 1.76077188899049e-03
4.77049180327869e-01 3.74835321290205e-01 1.76915916693907e-03
4.86885245901639e-01 3.72717271705367e-01 1.77720832780833e-03
4.96721311475410e-01 3.70611190398620e-01 1.78492959693568e-03
5.06557377049180e-01 3.68517009746056e-01 1.79233275002060e-03
5.16393442622951e-01 3.66434662497560e-01 1.79942714184447e-03
5.26229508196721e-01 3.64364081791107e-01 1.80622173227455e-03
5.36065573770492e-01 3.62305201134630e-01 1.81272511129593e-03
5.45901639344262e-01 3.60257954415701e-01 1.81894551776274e-03
5.55737704918033e-01 3.58222275899179e-01 1.82489086477770e-03
5.65573770491803e-01 3.56198100213952e-01 1.83056875530961e-03
5.75409836065574e-01 3.54185362365508e-01 1.83598650032014e-03
5.85245901639344e-01 3.52183997719578e-01 1.84115113506128e-03
5.95081967213115e-01 3.50193942013948e-01 1.84606943390214e-03
6.04918032786885e-01 3.48215131342870e-01 1.85074792510874e-03
6.14754098360656e-01 3.46247502165026e-01 1.85519290071694e-03
6.24590163934426e-01 3.44290991301304e-01 1.85941043306012e-03
6.34426229508197e-01 3.42345535923280e-01 1.86340638306998e-03
6.44262295081967e-01 3.40411073563705e-01 1.86718641138701e-03
6.54098360655738e-01 3.38487542102304e-01 1.87075598828130e-03
6.63934426229508e-01 3.36574879775681e-01 1.87412040268578e-03
6.73770491803279e-01 3.34673025163718e-01 1.87728477156019e-03
6.83606557377049e-01 3.32781917196218e-01 1.88025404515426e-03
6.93442622950820e-01 3.30901495150794e-01 1.88303301863480e-03
7.03278688524590e-01 3.29031698642727e-01 1.88562633650989e-03
7.13114754098361e-01 3.27172467633835e-01 1.88803849987551e-03
7.22950819672131e-01 3.25323742419984e-01 1.89027387280090e-03
7.32786885245902e-01 3.23485463639494e-01 1.89233668812851e-03
7.42622950819672e-01 3.21657572261136e-01 1.89423105376002e-03
7.52459016393443e-01 3.19840009589735e-01 1.89596095537543e-03
7.62295081967213e-01 3.18032717264153e-01 1.89753026513102e-03
7.72131147540984e-01 3.16235637248278e-01 1.89894274391316e-03
7.81967213114754e-01 3.14448711838587e-01 1.90020204631338e-03
7.91803278688525e-01 3.12671883653064e-01 1.90131172492980e-03
8.01639344262295e-01 3.10905095638398e-01 1.90227523425298e-03
8.11475409836066e-01 3.09148291059294e-01 1.90309593509373e-03
8.21311475409836e-01 3.07401413503231e-01 1.90377709583516e-03
8.31147540983607e-01 3.05664406878545e-01 1.90432189926262e-03
8.40983606557377e-01 3.03937215406341e-01 1.90473344355120e-03
8.50819672131148e-01 3.02219783627008e-01 1.90501474583227e-03
8.60655737704918e-01 3.00512056390297e-01 1.90516874520320e-03
8.70491803278689e-01 2.98813978861534e-01 1.90519830542413e-03
8.80327868852459e-01 2.97125496512027e-01 1.90510621816596e-03
8.90163934426230e-01 2.95446555123142e-01 1.90489520338931e-03
9.00000000000000e-01 2.93777100784462e-01 1.90456791491537e-03
9.09836065573771e-01 2.92117079886491e-01 1.90412694065353e-03
9.19672131147541e-01 2.90466439126298e-01 1.90357480525428e-03
9.29508196721312e-01 2.88825125498577e-01 1.90291397277317e-03
9.39344262295082e-01 2.87193086299319e-01 1.90214684663689e-03
9.49180327868853e-01 2.85570269124036e-01 1.90127577456071e-03
9.59016393442623e-01 2.83956621860932e-01 1.90030304841496e-03
9.68852459016393e-01 2.82352092696037e-01 1.89923090641773e-03
9.78688524590164e-01 2.80756630104862e-01 1.89806153488769e-03
9.88524590163934e-01 2.79170182857305e-01 1.89679706978359e-03
9.98360655737705e-01 2.77592700009560e-01 1.89543959922977e-03
1.00819672131148e+00 2.76024130905731e-01 1.89399115949242e-03
1.01803278688525e+00 2.74464425188337e-01 1.89245374862189e-03
1.02786885245902e+00 2.72913532758724e-01 1.89082931928940e-03
1.03770491803279e+00 2.71371403816522e-01 1.88911976881412e-03
1.04754098360656e+00 2.69837988857380e-01 1.88732696597066e-03
1.05737704918033e+00 2.68313238627402e-01 1.88545273452944e-03
1.06721311475410e+00 2.66797104179804e-01 1.88349885838017e-03
1.07704918032787e+00 2.65289536816061e-01 1.88146708326572e-03
1.08688524590164e+00 2.63790488140682e-01 1.87935911725284e-03
1.09672131147541e+00 2.62299910004238e-01 1.87717663236695e-03
1.10655737704918e+00 2.60817754556333e-01 1.87492126500245e-03
1.11639344262295e+00 2.59343974190433e-01 1.87259462147658e-03
1.12622950819672e+00 2.57878521582278e-01 1.87019826232270e-03
1.13606557377049e+00 2.56421349687811e-01 1.86773372773313e-03
1.14590163934426e+00 2.54972411703192e-01 1.86520252231625e-03
1.15573770491803e+00 2.53531661114262e-01 1.86260611954722e-03
1.16557377049180e+00 2.52099051644881e-01 1.85994596311828e-03
1.17540983606557e+00 2.50674537304827e-01 1.85722346717599e-03
1.18524590163934e+00 2.49258072339701e-01 1.85444001760132e-03
1.19508196721311e+00 2.47849611277325e-01 1.85159697221081e-03
1.20491803278689e+00 2.46449108879148e-01 1.84869566564161e-03
1.21475409836066e+00 2.45056520173913e-01 1.84573739482629e-03
1.22459016393443e+00 2.43671800455741e-01 1.84272344208994e-03
1.23442622950820e+00 2.42294905248818e-01 1.83965506105485e-03
1.24426229508197e+00 2.40925790350858e-01 1.83653348056951e-03
1.25409836065574e+00 2.39564411787467e-01 1.83335990578979e-03
1.26393442622951e+00 2.38210725854288e-01 1.83013551827166e-03
1.27377049180328e+00 2.36864689072683e-01 1.82686147700238e-03
1.28360655737705e+00 2.35526258230621e-01 1.82353891847137e-03
1.29344262295082e+00 2.34195390339627e-01 1.82016896101705e-03
1.30327868852459e+00 2.32872042664454e-01 1.81675269140437e-03
1.31311475409836e+00 2.31556172721308e-01 1.81329118589005e-03
1.32295081967213e+00 2.30247738246488e-01 1.80978549718942e-03
1.33278688524590e+00 2.28946697234789e-01 1.80623665798731e-03
1.34262295081967e+00 2.27653007898965e-01 1.80264568182451e-03
1.35245901639344e+00 2.26366628707012e-01 1.79901356309974e-03
1.36229508196721e+00 2.25087518342761e-01 1.79534127791899e-03
1.37213114754098e+00 2.23815635742087e-01 1.79162978408453e-03
1.38196721311475e+00 2.22550940054578e-01 1.78788002499836e-03
1.39180327868852e+00 2.21293390669828e-01 1.78409291725558e-03
1.40163934426230e+00 2.20042947215765e-01 1.78026936992708e-03
1.41147540983607e+00 2.18799569530694e-01 1.77641027250557e-03
1.42131147540984e+00 2.17563217697363e-01 1.77251649806988e-03
1.43114754098361e+00 2.16333852006813e-01 1.76858890402552e-03
1.44098360655738e+00 2.15111432991495e-01 1.76462833205022e-03
1.45081967213115e+00 2.13895921390077e-01 1.76063560880588e-03
1.46065573770492e+00 2.12687278179648e-01 1.75661154587680e-03
1.47049180327869e+00 2.11485464541453e-01 1.75255694329973e-03
1.48032786885246e+00 2.10290441884274e-01 1.74847257808779e-03
1.49016393442623e+00 2.09102171842870e-01 1.74435922193562e-03
1.50000000000000e+00 2.07920616252932e-01 1.74021763006326e-03
1.50983606557377e+00 2.06745737181448e-01 1.73604854408719e-03
1.51967213114754e+00 2.05577496894314e-01 1.73185269264926e-03
1.52950819672131e+00 2.04415857885880e-01 1.72763079132648e-03
1.53934426229508e+00 2.03260782847394e-01 1.72338354591801e-03
1.54918032786885e+00 2.02112234688449e-01 1.71911164161574e-03
1.55901639344262e+00 2.00970176535498e-01 1.71481575962947e-03
1.56885245901639e+00 1.99834571708769e-01 1.71049656665691e-03
1.57868852459016e+00 1.98705383750149e-01 1.70615471756248e-03
1.58852459016393e+00 1.97582576393328e-01 1.70179085593580e-03
1.59836065573771e+00 1.96466113590948e-01 1.69740561398313e-03
1.60819672131148e+00 1.95355959485496e-01 1.69299961306838e-03
1.61803278688525e+00 1.94252078435743e-01 1.68857346360151e-03
1.62786885245902e+00 1.93154434988364e-01 1.68412776803892e-03
1.63770491803279e+00 1.92062993897120e-01 1.67966311085034e-03
1.64754098360656e+00 1.90977720121478e-01 1.67518007384632e-03
1.65737704918033e+00 1.89898578805799e-01 1.67067922642183e-03
1.66721311475410e+00 1.88825535304342e-01 1.66616112800476e-03
1.67704918032787e+00 1.87758555154358e-01 1.66162632854115e-03
1.68688524590164e+00 1.86697604100449e-01 1.65707536837284e-03
1.69672131147541e+00 1.85642648068327e-01 1.65250877870850e-03
1.70655737704918e+00 1.84593653188542e-01 1.64792708149992e-03
1.71639344262295e+00 1.83550585770883e-01 1.64333079218997e-03
1.72622950819672e+00 1.82513412321588e-01 1.63872041040979e-03
1.73606557377049e+00 1.81482099542051e-01 1.63409643413616e-03
1.74590163934426e+00 1.80456614310017e-01 1.62945935064314e-03
1.75573770491803e+00 1.79436923702053e-01 1.62480963874868e-03
1.76557377049180e+00 1.78422994969246e-01 1.62014776924005e-03
1.77540983606557e+00 1.77414795559114e-01 1.61547420474453e-03
1.78524590163934e+00 1.76412293091873e-01 1.61078940014294e-03
1.79508196721311e+00 1.75415455381812e-01 1.60609380243996e-03
1.80491803278689e+00 1.74424250414117e-01 1.60138785328930e-03
1.81475409836066e+00 1.73438646360372e-01 1.59667198035932e-03
1.82459016393443e+00 1.72458611577334e-01 1.59194661043140e-03
1.83442622950820e+00 1.71484114589898e-01 1.58721216100090e-03
1.84426229508197e+00 1.70515124111353e-01 1.58246904234412e-03
1.85409836065574e+00 1.69551609021360e-01 1.57771765789435e-03
1.86393442622951e+00 1.68593538385724e-01 1.57295840411037e-03
1.87377049180328e+00 1.67640881434875e-01 1.56819167084195e-03
1.88360655737705e+00 1.66693607583161e-01 1.56341784119908e-03
1.89344262295082e+00 1.65751686407825e-01 1.55863729387669e-03
1.90327868852459e+00 1.64815087662992e-01 1.55385039513499e-03
1.91311475409836e+00 1.63883781278517e-01 1.54905751093630e-03
1.92295081967213e+00 1.62957737344507e-01 1.54425899913950e-03
1.93278688524590e+00 1.62036926129629e-01 1.53945521140784e-03
1.94262295081967e+00 1.61121318061110e-01 1.53464649354367e-03
1.95245901639344e+00 1.60210883742614e-01 1.52983318535708e-03
1.96229508196721e+00 1.59305593934688e-01 1.52501562099167e-03
1.97213114754098e+00 1.58405419572215e-01 1.52019412879463e-03
1.98196721311475e+00 1.57510331745305e-01 1.51536903346204e-03
1.99180327868852e+00 1.56620301711937e-01 1.51054064858387e-03
2.00163934426230e+00 1.55735300896880e-01 1.50570928790370e-03
2.01147540983607e+00 1.54855300877599e-01 1.50087525805936e-03
2.02131147540984e+00 1.53980273400834e-01 1.49603886034714e-03
2.03114754098361e+00 1.53110190364402e-01 1.49120039102123e-03
2.04098360655738e+00 1.52245023833389e-01 1.48636014116501e-03
2.05081967213115e+00 1.51384746022351e-01 1.48151839698260e-03
2.06065573770492e+00 1.50529329311135e-01 1.47667543967198e-03
2.07049180327869e+00 1.49678746227464e-01 1.47183154740834e-03
2.08032786885246e+00 1.48832969458403e-01 1.46698698840795e-03
2.09016393442623e+00 1.47991971849331e-01 1.46214203138639e-03
2.10000000000000e+00 1.47155726391090e-01 1.45729693880207e-03
2.10983606557377e+00 1.46324206235030e-01 1.45245196849037e-03
2.11967213114754e+00 1.45497384676409e-01 1.44760737393267e-03
2.12950819672131e+00 1.44675235169101e-01 1.44276340413138e-03
2.13934426229508e+00 1.43857731309350e-01 1.43792030548229e-03
2.14918032786885e+00 1.43044846846422e-01 1.43307831520339e-03
2.15901639344262e+00 1.42236555681619e-01 1.42823767122941e-03
2.16885245901639e+00 1.41432831856288e-01 1.42339860580967e-03
2.17868852459016e+00 1.40633649565811e-01 1.41856134705231e-03
2.18852459016393e+00 1.39838983144108e-01 1.41372611917281e-03
2.19836065573771e+00 1.39048807077321e-01 1.40889314237215e-03
2.20819672131148e+00 1.38263095988649e-01 1.40406263307991e-03
2.21803278688525e+00 1.37481824651719e-01 1.39923480383356e-03
2.22786885245902e+00 1.36704967975745e-01 1.39440986501481e-03
2.23770491803279e+00 1.35932501015206e-01 1.38958801872735e-03
2.24754098360656e+00 1.35164398968919e-01 1.38476946800285e-03
2.25737704918033e+00 1.34400637169063e-01 1.37995441083531e-03
2.26721311475410e+00 1.33641191093916e-01 1.37514304161484e-03
2.27704918032787e+00 1.32886036353680e-01 1.37033555135265e-03
2.28688524590164e+00 1.32135148702941e-01 1.36553212756392e-03
2.29672131147541e+00 1.31388504026791e-01 1.36073295448851e-03
2.30655737704918e+00 1.30646078353012e-01 1.35593821297511e-03
2.31639344262295e+00 1.29907847838486e-01 1.35114808209358e-03
2.32622950819672e+00 1.29173788778008e-01 1.34636273342664e-03
2.33606557377049e+00 1.28443877603413e-01 1.34158233964310e-03
2.34590163934426e+00 1.27718090873516e-01 1.33680706893541e-03
2.35573770491803e+00 1.26996405285719e-01 1.33203708635153e-03
2.36557377049180e+00 1.26278797663032e-01 1.32727255400001e-03
2.37540983606557e+00 1.25565244965431e-01 1.32251363093798e-03
2.38524590163934e+00 1.24855724277144e-01 1.31776047337179e-03
2.39508196721312e+00 1.24150212817764e-01 1.31301323454672e-03
2.40491803278689e+00 1.23448687929792e-01 1.30827206624551e-03
2.41475409836066e+00 1.22751127086670e-01 1.30353711346277e-03
2.42459016393443e+00 1.22057507891958e-01 1.29880852239518e-03
2.43442622950820e+00 1.21367808070102e-01 1.29408643525152e-03
2.44426229508197e+00 1.20682005477026e-01 1.28937099149177e-03
2.45409836065574e+00 1.20000078088231e-01 1.28466232801401e-03
2.46393442622951e+00 1.19322004009167e-01 1.27996057904800e-03
2.47377049180328e+00 1.18647761463559e-01 1.27526587633797e-03
2.48360655737705e+00 1.17977328803568e-01 1.27057834903797e-03
2.49344262295082e+00 1.17310684498348e-01 1.26589812510577e-03
2.50327868852459e+00 1.16647807141386e-01 1.26122532633161e-03
2.51311475409836e+00 1.15988675449721e-01 1.25656007579082e-03
2.52295081967213e+00 1.15333268255458e-01 1.25190249299771e-03
2.53278688524590e+00 1.14681564515456e-01 1.24725269505996e-03
2.54262295081967e+00 1.14033543300393e-01 1.24261079684928e-03
2.55245901639344e+00 1.13389183804244e-01 1.23797691090045e-03
2.56229508196721e+00 1.12748465333569e-01 1.23335114757845e-03
2.57213114754098e+00 1.12111367316792e-01 1.22873361497927e-03
2.58196721311475e+00 1.11477869293692e-01 1.22412442022760e-03
2.59180327868852e+00 1.10847950922110e-01 1.21952366483376e-03
2.60163934426230e+00 1.10221591977213e-01 1.21493145164974e-03
2.61147540983607e+00 1.09598772343680e-01 1.21034788034137e-03
2.62131147540984e+00 1.08979472024577e-01 1.20577304846484e-03
2.63114754098361e+00 1.08363671131290e-01 1.20120705162295e-03
2.64098360655738e+00 1.07751349892214e-01 1.19664998336931e-03
2.65081967213115e+00 1.07142488642887e-01 1.19210193536179e-03
2.66065573770492e+00 1.06537067834497e-01 1.18756299726821e-03
2.67049180327869e+00 1.05935068024205e-01 1.18303325797605e-03
2.68032786885246e+00 1.05336469881287e-01 1.17851280125317e-03
2.69016393442623e+00 1.04741254186432e-01 1.17400171224434e-03
2.70000000000000e+00 1.04149401824553e-01 1.16950007323905e-03
2.70983606557377e+00 1.03560893792908e-01 1.16500796467557e-03
2.71967213114754e+00 1.02975711191843e-01 1.16052546528446e-03
2.72950819672131e+00 1.02393835232745e-01 1.15605265199828e-03
2.73934426229508e+00 1.01815247228962e-01 1.15158960109924e-03
2.74918032786885e+00 1.01239928601542e-01 1.14713638409606e-03
2.75901639344262e+00 1.00667860878564e-01 1.14269307389300e-03
2.76885245901639e+00 1.00099025688375e-01 1.13825974076804e-03
2.77868852459016e+00 9.95334047672051e-02 1.13383645332672e-03
2.78852459016393e+00 9.89709799504542e-02 1.12942327863636e-03
2.79836065573771e+00 9.84117331801543e-02 1.12502028213912e-03
2.80819672131148e+00 9.78556464964247e-02 1.12062752778400e-03
2.81803278688525e+00 9.73027020447818e-02 1.11624507794123e-03
2.82786885245902e+00 9.67528820677564e-02 1.11187299447358e-03
2.83770491803279e+00 9.62061689101609e-02 1.10751133487959e-03
2.84754098360656e+00 9.56625450184569e-02 1.10316015806077e-03
2.85737704918033e+00 9.51219929345125e-02 1.09881952055921e-03
2.86721311475410e+00 9.45844953025907e-02 1.09448947744835e-03
2.87704918032787e+00 9.40500348613153e-02 1.09017008245659e-03
2.88688524590164e+00 9.35185944505216e-02 1.08586138788521e-03
2.89672131147541e+00 9.29901570033718e-02 1.08156344473013e-03
2.90655737704918e+00 9.24647055530696e-02 1.07727630260080e-03
2.91639344262295e+00 9.19422232251229e-02 1.07300001072088e-03
2.92622950819672e+00 9.14226932421788e-02 1.06873461431895e-03
2.93606557377049e+00 9.09060989234249e-02 1.06448016002257e-03
2.94590163934426e+00 9.03924236788213e-02 1.06023669233739e-03
2.95573770491803e+00 8.98816510155233e-02 1.05600425447928e-03
2.96557377049180e+00 8.93737645304627e-02 1.05178288848853e-03
2.97540983606557e+00 8.88687479166442e-02 1.04757263515240e-03
2.98524590163934e+00 8.83665849558639e-02 1.04337353411727e-03
2.99508196721311e+00 8.78672595248821e-02 1.03918562381229e-03
3.00491803278689e+00 8.73707555882752e-02 1.03500894238434e-03
3.01475409836066e+00 8.68770572028780e-02 1.03084352431874e-03
3.02459016393443e+00 8.63861485172172e-02 1.02668940548743e-03
3.03442622950820e+00 8.58980137661765e-02 1.02254661985198e-03
3.04426229508197e+00 8.54126372769055e-02 1.01841520024165e-03
3.05409836065574e+00 8.49300034619618e-02 1.01429517845900e-03
3.06393442622951e+00 8.44500968251053e-02 1.01018658520681e-03
3.07377049180328e+00 8.39729019545647e-02 1.00608945019160e-03
3.08360655737705e+00 8.34984035287203e-02 1.00200380205174e-03
3.09344262295082e+00 8.30265863094920e-02 9.97929669231452e-04
3.10327868852459e+00 8.25574351464260e-02 9.93867076815748e-04
