Energy (eV)          EEDF (eV^-(3/2))     First Anisotropy
1.01875000000000e-03 3.85720864790633e+01 3.06580473070132e-02
3.05625000000000e-03 3.77471460148019e+01 5.02527303279252e-02
5.09375000000000e-03 3.69398485362205e+01 6.53599562277630e-02
7.13125000000000e-03 3.61498167131307e+01 7.62579988469346e-02
9.16875000000000e-03 3.53766812852945e+01 8.48800047649699e-02
1.12062500000000e-02 3.46200808898351e+01 9.19736967401528e-02
1.32437500000000e-02 3.38796618923363e+01 9.79343864505249e-02
1.52812500000000e-02 3.31550782215544e+01 1.03005721879003e-01
1.73187500000000e-02 3.24459912076644e+01 1.07352497597769e-01
1.93562500000000e-02 3.17520694239666e+01 1.11093399492014e-01
2.13937500000000e-02 3.10729885319772e+01 1.14317878300810e-01
2.34312500000000e-02 3.04084311298337e+01 1.17095710856994e-01
2.54687500000000e-02 2.97580866039409e+01 1.19482813531157e-01
2.75062500000000e-02 2.91216509837905e+01 1.21524975386998e-01
2.95437500000000e-02 2.84988267998855e+01 1.23260362566623e-01
3.15812500000000e-02 2.78893229447034e+01 1.24721259674280e-01
3.36187500000000e-02 2.72928545366324e+01 1.25935317472295e-01
3.56562500000000e-02 2.67091427868186e+01 1.26926469922167e-01
3.76937500000000e-02 2.61379148688595e+01 1.27715623151771e-01
3.97312500000000e-02 2.55789037912856e+01 1.28321183058565e-01
4.17687500000000e-02 2.50318482727692e+01 1.28759466187871e-01
4.38062500000000e-02 2.44964926200007e+01 1.29045024511585e-01
4.58437500000000e-02 2.39725866081787e+01 1.29190905586501e-01
4.78812500000000e-02 2.34598853640548e+01 1.29208863454741e-01
4.99187500000000e-02 2.29581492514798e+01 1.29109531468590e-01
5.19562500000000e-02 2.24671437593982e+01 1.28902565309005e-01
5.39937500000000e-02 2.19866393922381e+01 1.28596762401223e-01
5.60312500000000e-02 2.15164115626446e+01 1.28200162442191e-01
5.80687500000000e-02 2.10562404865086e+01 1.27720132666270e-01
6.01062500000000e-02 2.06059110802391e+01 1.27163440669253e-01
6.21437500000000e-02 2.01652128602338e+01 1.26536317005922e-01
6.41812500000000e-02 1.97339398444993e+01 1.25844509317741e-01
6.62187500000000e-02 1.93118904563749e+01 1.25093329395576e-01
6.82562500000000e-02 1.88988674303160e+01 1.24287694310285e-01
7.02937500000000e-02 1.84946777196925e+01 1.23432162531508e-01
7.23312500000000e-02 1.80991324065588e+01 1.22530965787634e-01
7.43687500000000e-02 1.77120466133536e+01 1.21588037287088e-01
7.64062500000000e-02 1.73332394164886e+01 1.20607036814872e-01
7.84437500000000e-02 1.69625337617846e+01 1.19591373132726e-01
8.04812500000000e-02 1.65997563817169e+01 1.18544224042027e-01
8.25187500000000e-02 1.62447377144298e+01 1.17468554411922e-01
8.45562500000000e-02 1.58973118244837e+01 1.16367132428899e-01
8.65937500000000e-02 1.55573163252972e+01 1.15242544285709e-01
8.86312500000000e-02 1.52245923032474e+01 1.14097207495817e-01
9.06687500000000e-02 1.48989842433941e+01 1.12933382993230e-01
9.27062500000000e-02 1.45803399567920e+01 1.11753186155299e-01
9.47437500000000e-02 1.42685105093577e+01 1.10558596867587e-01
9.67812500000000e-02 1.39633501522586e+01 1.09351468734140e-01
9.88187500000000e-02 1.36647162537889e+01 1.08133537523158e-01
1.00856250000000e-01 1.33724692327049e+01 1.06906428926751e-01
1.02893750000000e-01 1.30864724929840e+01 1.05671665703744e-01
1.04931250000000e-01 1.28065923599800e+01 1.04430674266195e-01
1.06968750000000e-01 1.25326980179439e+01 1.03184790763125e-01
1.09006250000000e-01 1.22646614488806e+01 1.01935266708757e-01
1.11043750000000e-01 1.20023573727133e+01 1.00683274197267e-01
1.13081250000000e-01 1.17456631887277e+01 9.94299107413456e-02
1.15118750000000e-01 1.14944589182687e+01 9.81762037678376e-02
1.17156250000000e-01 1.12486271486624e+01 9.69231148001859e-02
1.19193750000000e-01 1.10080529783375e+01 9.56715433543031e-02
1.21231250000000e-01 1.07726239631202e+01 9.44223305717753e-02
1.23268750000000e-01 1.05422300636781e+01 9.31762626118827e-02
1.25306250000000e-01 1.03167635940880e+01 9.19340738218263e-02
1.27343750000000e-01 1.00961191715033e+01 9.06964497026646e-02
1.29381250000000e-01 9.88019366689853e+00 8.94640296867903e-02
1.31418750000000e-01 9.66888615686636e+00 8.82374097413210e-02
1.33456250000000e-01 9.46209787644662e+00 8.70171448104463e-02
1.35493750000000e-01 9.25973217296337e+00 8.58037511085978e-02
1.37531250000000e-01 9.06169446084959e+00 8.45977082752558e-02
1.39568750000000e-01 8.86789217743791e+00 8.33994614012837e-02
1.41606250000000e-01 8.67823473969697e+00 8.22094229358111e-02
1.43643750000000e-01 8.49263350189292e+00 8.10279744819284e-02
1.45681250000000e-01 8.31100171415650e+00 7.98554684887924e-02
1.47718750000000e-01 8.13325448193622e+00 7.86922298470911e-02
1.49756250000000e-01 7.95930872631871e+00 7.75385573942850e-02
1.51793750000000e-01 7.78908314519771e+00 7.63947253355217e-02
1.53831250000000e-01 7.62249817527353e+00 7.52609845856563e-02
1.55868750000000e-01 7.45947595486523e+00 7.41375640374064e-02
1.57906250000000e-01 7.29994028751811e+00 7.30246717602828e-02
1.59943750000000e-01 7.14381660638957e+00 7.19224961345837e-02
1.61981250000000e-01 6.99103193939664e+00 7.08312069244452e-02
1.64018750000000e-01 6.84151487510886e+00 6.97509562936341e-02
1.66056250000000e-01 6.69519552937065e+00 6.86818797675096e-02
1.68093750000000e-01 6.55200551263750e+00 6.76240971443430e-02
1.70131250000000e-01 6.41187789801077e+00 6.65777133589578e-02
1.72168750000000e-01 6.27474718995609e+00 6.55428193014549e-02
1.74206250000000e-01 6.14054929369083e+00 6.45194925935985e-02
1.76243750000000e-01 6.00922148522622e+00 6.35077983252592e-02
1.78281250000000e-01 5.88070238205020e+00 6.25077897531600e-02
1.80318750000000e-01 5.75493191443734e+00 6.15195089640286e-02
1.82356250000000e-01 5.63185129737224e+00 6.05429875041091e-02
1.84393750000000e-01 5.51140300307348e+00 5.95782469768760e-02
1.86431250000000e-01 5.39353073410518e+00 5.86252996106693e-02
1.88468750000000e-01 5.27817939706366e+00 5.76841487978624e-02
1.90506250000000e-01 5.16529507682676e+00 5.67547896070900e-02
1.92543750000000e-01 5.05482501135399e+00 5.58372092699428e-02
1.94581250000000e-01 4.94671756702562e+00 5.49313876434717e-02
1.96618750000000e-01 4.84092221450912e+00 5.40372976497680e-02
1.98656250000000e-01 4.73738950514183e+00 5.31549056937898e-02
2.00693750000000e-01 4.63607104781867e+00 5.22841720605568e-02
2.02731250000000e-01 4.53691948637418e+00 5.14250512927623e-02
2.04768750000000e-01 4.43988847744829e+00 5.05774925497881e-02
2.06806250000000e-01 4.34493266882548e+00 4.97414399490641e-02
2.08843750000000e-01 4.25200767823719e+00 4.89168328906490e-02
2.10881250000000e-01 4.16107007261755e+00 4.81036063658603e-02
2.12918750000000e-01 4.07207734780284e+00 4.73016912507514e-02
2.14956250000000e-01 3.98498790866506e+00 4.65110145851709e-02
2.16993750000000e-01 3.89976104967043e+00 4.57314998381101e-02
2.19031250000000e-01 3.81635693585359e+00 4.49630671600064e-02
2.21068750000000e-01 3.73473658419883e+00 4.42056336226267e-02
2.23106250000000e-01 3.65486184541944e+00 4.34591134471376e-02
2.25143750000000e-01 3.57669538612678e+00 4.27234182209181e-02
2.27181250000000e-01 3.50020067138062e+00 4.19984571036586e-02
2.29218750000000e-01 3.42534194761285e+00 4.12841370232529e-02
2.31256250000000e-01 3.35208422591617e+00 4.05803628619612e-02
2.33293750000000e-01 3.28039326569039e+00 3.98870376333114e-02
2.35331250000000e-01 3.21023555863838e+00 3.92040626501663e-02
2.37368750000000e-01 3.14157831310427e+00 3.85313376843704e-02
2.39406250000000e-01 3.07438943874675e+00 3.78687611183759e-02
2.41443750000000e-01 3.00863753153997e+00 3.72162300892127e-02
2.43481250000000e-01 2.94429185909540e+00 3.65736406251620e-02
2.45518750000000e-01 2.88132234629750e+00 3.59408877754702e-02
2.47556250000000e-01 2.81969956124663e+00 3.53178657334244e-02
2.49593750000000e-01 2.75939470150262e+00 3.47044679530956e-02
2.51631250000000e-01 2.70037958062254e+00 3.41005872600394e-02
2.53668750000000e-01 2.64262661498636e+00 3.35061159562336e-02
2.55706250000000e-01 2.58610881090440e+00 3.29209459195137e-02
2.57743750000000e-01 2.53079975200049e+00 3.23449686977609e-02
2.59781250000000e-01 2.47667358686498e+00 3.17780755980829e-02
2.61818750000000e-01 2.42370501697182e+00 3.12201577712114e-02
2.63856250000000e-01 2.37186928485407e+00 3.06711062913379e-02
2.65893750000000e-01 2.32114216253221e+00 3.01308122315966e-02
2.67931250000000e-01 2.27149994019008e+00 2.95991667353910e-02
2.69968750000000e-01 2.22291941509289e+00 2.90760610837516e-02
2.72006250000000e-01 2.17537788074228e+00 2.85613867589103e-02
2.74043750000000e-01 2.12885311626334e+00 2.80550355042586e-02
2.76081250000000e-01 2.08332337601857e+00 2.75568993808564e-02
2.78118750000000e-01 2.03876737944400e+00 2.70668708206506e-02
2.80156250000000e-01 1.99516430110268e+00 2.65848426765499e-02
2.82193750000000e-01 1.95249376095086e+00 2.61107082695014e-02
2.84231250000000e-01 1.91073581481240e+00 2.56443614327045e-02
2.86268750000000e-01 1.86987094505685e+00 2.51856965530948e-02
2.88306250000000e-01 1.82988005147697e+00 2.47346086102217e-02
2.90343750000000e-01 1.79074444236127e+00 2.42909932126390e-02
2.92381250000000e-01 1.75244582575752e+00 2.38547466319233e-02
2.94418750000000e-01 1.71496630092312e+00 2.34257658344300e-02
2.96456250000000e-01 1.67828834995832e+00 2.30039485108912e-02
2.98493750000000e-01 1.64239482961834e+00 2.25891931039521e-02
3.00531250000000e-01 1.60726896330065e+00 2.21813988337463e-02
3.02568750000000e-01 1.57289433320357e+00 2.17804657215984e-02
3.04606250000000e-01 1.53925487265266e+00 2.13862946119422e-02
3.06643750000000e-01 1.50633485859111e+00 2.09987871925370e-02
3.08681250000000e-01 1.47411890423082e+00 2.06178460130638e-02
3.10718750000000e-01 1.44259195186065e+00 2.02433745021758e-02
3.12756250000000e-01 1.41173926580840e+00 1.98752769830762e-02
3.14793750000000e-01 1.38154642555345e+00 1.95134586876968e-02
3.16831250000000e-01 1.35199931898654e+00 1.91578257695406e-02
3.18868750000000e-01 1.32308413581382e+00 1.88082853152538e-02
3.20906250000000e-01 1.29478736110195e+00 1.84647453549873e-02
3.22943750000000e-01 1.26709576896117e+00 1.81271148716111e-02
3.24981250000000e-01 1.23999641636361e+00 1.77953038088307e-02
3.27018750000000e-01 1.21347663709364e+00 1.74692230782649e-02
3.29056250000000e-01 1.18752403582778e+00 1.71487845655335e-02
3.31093750000000e-01 1.16212648234107e+00 1.68339011354052e-02
3.33131250000000e-01 1.13727210583743e+00 1.65244866360539e-02
3.35168750000000e-01 1.11294928940128e+00 1.62204559024654e-02
3.37206250000000e-01 1.08914666456778e+00 1.59217247590406e-02
3.39243750000000e-01 1.06585310600923e+00 1.56282100214360e-02
3.41281250000000e-01 1.04305772633510e+00 1.53398294976791e-02
3.43318750000000e-01 1.02074987100326e+00 1.50565019885991e-02
3.45356250000000e-01 9.98919113340075e-01 1.47781472876076e-02
3.47393750000000e-01 9.77555249666973e-01 1.45046861798650e-02
3.49431250000000e-01 9.56648294531257e-01 1.42360404408641e-02
3.51468750000000e-01 9.36188476038913e-01 1.39721328344638e-02
3.53506250000000e-01 9.16166231287235e-01 1.37128871104045e-02
3.55543750000000e-01 8.96572201895132e-01 1.34582280013307e-02
3.57581250000000e-01 8.77397229629025e-01 1.32080812193523e-02
3.59618750000000e-01 8.58632352122301e-01 1.29623734521691e-02
3.61656250000000e-01 8.40268798686309e-01 1.27210323587854e-02
3.63693750000000e-01 8.22297986210942e-01 1.24839865648362e-02
3.65731250000000e-01 8.04711515152905e-01 1.22511656575517e-02
3.67768750000000e-01 7.87501165609770e-01 1.20225001803802e-02
3.69806250000000e-01 7.70658893478005e-01 1.17979216272917e-02
3.71843750000000e-01 7.54176826693163e-01 1.15773624367816e-02
3.73881250000000e-01 7.38047261550486e-01 1.13607559855946e-02
3.75918750000000e-01 7.22262659104199e-01 1.11480365821873e-02
3.77956250000000e-01 7.06815641643818e-01 1.09391394599470e-02
3.79993750000000e-01 6.91698989245805e-01 1.07340007701839e-02
3.82031250000000e-01 6.76905636398989e-01 1.05325575749129e-02
3.84068750000000e-01 6.62428668702148e-01 1.03347478394405e-02
3.86106250000000e-01 6.48261319632227e-01 1.01405104247701e-02
3.88143750000000e-01 6.34396967381664e-01 9.94978507984331e-03
3.90181250000000e-01 6.20829131763371e-01 9.76251243362728e-03
3.92218750000000e-01 6.07551471181892e-01 9.57863398706195e-03
3.94256250000000e-01 5.94557779669352e-01 9.39809210488083e-03
3.96293750000000e-01 5.81841983984789e-01 9.22083000731478e-03
3.98331250000000e-01 5.69398140775529e-01 9.04679176169148e-03
4.00368750000000e-01 5.57220433799265e-01 8.87592227394110e-03
4.02406250000000e-01 5.45303171205552e-01 8.70816728001735e-03
4.04443750000000e-01 5.33640782875439e-01 8.54347333724475e-03
4.06481250000000e-01 5.22227817818001e-01 8.38178781560061e-03
4.08518750000000e-01 5.11058941622551e-01 8.22305888894002e-03
4.10556250000000e-01 5.00128933965339e-01 8.06723552617360e-03
4.12593750000000e-01 4.89432686169577e-01 7.91426748240495e-03
4.14631250000000e-01 4.78965198817650e-01 7.76410529003482e-03
4.16668750000000e-01 4.68721579414388e-01 7.61670024984067e-03
4.18706250000000e-01 4.58697040100323e-01 7.47200442203708e-03
4.20743750000000e-01 4.48886895413842e-01 7.32997061732398e-03
4.22781250000000e-01 4.39286560101209e-01 7.19055238792933e-03
4.24818750000000e-01 4.29891546973422e-01 7.05370401865071e-03
4.26856250000000e-01 4.20697464808902e-01 6.91938051790298e-03
4.28893750000000e-01 4.11700016301041e-01 6.78753760877610e-03
4.30931250000000e-01 4.02894996049643e-01 6.65813172010841e-03
4.32968750000000e-01 3.94278288595324e-01 6.53111997758014e-03
4.35006250000000e-01 3.85845866495953e-01 6.40646019483123e-03
4.37043750000000e-01 3.77593788444221e-01 6.28411086460842e-03
4.39081250000000e-01 3.69518197425486e-01 6.16403114994489e-03
4.41118750000000e-01 3.61615318915002e-01 6.04618087537607e-03
4.43156250000000e-01 3.53881459113708e-01 5.93052051819575e-03
4.45193750000000e-01 3.46313003221755e-01 5.81701119975512e-03
4.47231250000000e-01 3.38906413748947e-01 5.70561467680851e-03
4.49268750000000e-01 3.31658228861322e-01 5.59629333290864e-03
4.51306250000000e-01 3.24565060763093e-01 5.48901016985324e-03
4.53343750000000e-01 3.17623594113197e-01 5.38372879918675e-03
4.55381250000000e-01 3.10830584475705e-01 5.28041343375941e-03
4.57418750000000e-01 3.04182856803376e-01 5.17902887934487e-03
4.59456250000000e-01 2.97677303953644e-01 5.07954052631968e-03
4.61493750000000e-01 2.91310885236339e-01 4.98191434140624e-03
4.63531250000000e-01 2.85080624992475e-01 4.88611685948046e-03
4.65568750000000e-01 2.78983611203424e-01 4.79211517544646e-03
4.67606250000000e-01 2.73016994129845e-01 4.69987693617981e-03
4.69643750000000e-01 2.67177984979718e-01 4.60937033254046e-03
4.71681250000000e-01 2.61463854604863e-01 4.52056409145683e-03
4.73718750000000e-01 2.55871932225338e-01 4.43342746808229e-03
4.75756250000000e-01 2.50399604181122e-01 4.34793023802520e-03
4.77793750000000e-01 2.45044312710487e-01 4.26404268965310e-03
4.79831250000000e-01 2.39803554754510e-01 4.18173561647265e-03
4.81868750000000e-01 2.34674880787135e-01 4.10098030958551e-03
4.83906250000000e-01 2.29655893670277e-01 4.02174855022110e-03
4.85943750000000e-01 2.24744247533393e-01 3.94401260234725e-03
4.87981250000000e-01 2.19937646677031e-01 3.86774520535872e-03
4.90018750000000e-01 2.15233844499816e-01 3.79291956684420e-03
4.92056250000000e-01 2.10630642448394e-01 3.71950935543265e-03
4.94093750000000e-01 2.06125888989830e-01 3.64748869371890e-03
4.96131250000000e-01 2.01717478605979e-01 3.57683215126881e-03
4.98168750000000e-01 1.97403350809375e-01 3.50751473770435e-03
5.00206250000000e-01 1.93181489180155e-01 3.43951189586879e-03
5.02243750000000e-01 1.89049920423590e-01 3.37279949507202e-03
5.04281250000000e-01 1.85006713447766e-01 3.30735382441604e-03
5.06318750000000e-01 1.81049978460996e-01 3.24315158620058e-03
5.08356250000000e-01 1.77177866088528e-01 3.18016988940895e-03
5.10393750000000e-01 1.73388566508155e-01 3.11838624327392e-03
5.12431250000000e-01 1.69680308604301e-01 3.05777855092357e-03
5.14468750000000e-01 1.66051359140203e-01 2.99832510310670e-03
5.16506250000000e-01 1.62500021947803e-01 2.94000457199802e-03
5.18543750000000e-01 1.59024637134952e-01 2.88279600508227e-03
5.20581250000000e-01 1.55623580309584e-01 2.82667881911761e-03
5.22618750000000e-01 1.52295261820475e-01 2.77163279417756e-03
5.24656250000000e-01 1.49038126014240e-01 2.71763806777120e-03
5.26693750000000e-01 1.45850650508224e-01 2.66467512904133e-03
5.28731250000000e-01 1.42731345478939e-01 2.61272481304007e-03
5.30768750000000e-01 1.39678752965723e-01 2.56176829508157e-03
5.32806250000000e-01 1.36691446189291e-01 2.51178708517145e-03
5.34843750000000e-01 1.33768028884858e-01 2.46276302251209e-03
5.36881250000000e-01 1.30907134649528e-01 2.41467827008383e-03
5.38918750000000e-01 1.28107426303636e-01 2.36751530930114e-03
5.40956250000000e-01 1.25367595265754e-01 2.32125693474328e-03
5.42993750000000e-01 1.22686360941059e-01 2.27588624895918e-03
5.45031250000000e-01 1.20062470122782e-01 2.23138665734538e-03
5.47068750000000e-01 1.17494696406468e-01 2.18774186309716e-03
5.49106250000000e-01 1.14981839616745e-01 2.14493586223171e-03
5.51143750000000e-01 1.12522725246373e-01 2.10295293868293e-03
5.53181250000000e-01 1.10116203907271e-01 2.06177765946726e-03
5.55218750000000e-01 1.07761150793303e-01 2.02139486991968e-03
5.57256250000000e-01 1.05456465154536e-01 1.98178968899955e-03
5.59293750000000e-01 1.03201069782757e-01 1.94294750466554e-03
5.61331250000000e-01 1.00993910507983e-01 1.90485396931867e-03
5.63368750000000e-01 9.88339557057457e-02 1.86749499531326e-03
5.65406250000000e-01 9.67201958149066e-02 1.83085675053476e-03
5.67443750000000e-01 9.46516428657932e-02 1.79492565404386e-03
5.69481250000000e-01 9.26273300184211e-02 1.75968837178632e-03
5.71518750000000e-01 9.06463111105937e-02 1.72513181236768e-03
5.73556250000000e-01 8.87076602156668e-02 1.69124312289209e-03
5.75593750000000e-01 8.68104712097717e-02 1.65800968486489e-03
5.77631250000000e-01 8.49538573482929e-02 1.62541911015765e-03
5.79668750000000e-01 8.31369508514051e-02 1.59345923703560e-03
5.81706250000000e-01 8.13589024984729e-02 1.56211812624635e-03
5.83743750000000e-01 7.96188812311265e-02 1.53138405716919e-03
5.85781250000000e-01 7.79160737648251e-02 1.50124552402450e-03
5.87818750000000e-01 7.62496842087286e-02 1.47169123214225e-03
5.89856250000000e-01 7.46189336936989e-02 1.44271009428913e-03
5.91893750000000e-01 7.30230600082570e-02 1.41429122705354e-03
5.93931250000000e-01 7.14613172423260e-02 1.38642394728747e-03
5.95968750000000e-01 6.99329754385932e-02 1.35909776860508e-03
5.98006250000000e-01 6.84373202513290e-02 1.33230239793674e-03
6.00043750000000e-01 6.69736526125018e-02 1.30602773213809e-03
6.02081250000000e-01 6.55412884050347e-02 1.28026385465349e-03
6.04118750000000e-01 6.41395581430491e-02 1.25500103223295e-03
6.06156250000000e-01 6.27678066589482e-02 1.23022971170192e-03
6.08193750000000e-01 6.14253927971916e-02 1.20594051678333e-03
6.10231250000000e-01 6.01116891146201e-02 1.18212424497116e-03
6.12268750000000e-01 5.88260815871893e-02 1.15877186445469e-03
6.14306250000000e-01 5.75679693229748e-02 1.13587451109294e-03
6.16343750000000e-01 5.63367642813163e-02 1.11342348543854e-03
6.18381250000000e-01 5.51318909979677e-02 1.09141024981046e-03
6.20418750000000e-01 5.39527863161256e-02 1.06982642541470e-03
6.22456250000000e-01 5.27988991232101e-02 1.04866378951247e-03
6.24493750000000e-01 5.16696900932753e-02 1.02791427263516e-03
6.26531250000000e-01 5.05646314349289e-02 1.00756995584542e-03
6.28568750000000e-01 4.94832066446429e-02 9.87623068043644e-04
6.30606250000000e-01 4.84249102653403e-02 9.68065983319396e-04
6.32643750000000e-01 4.73892476501444e-02 9.48891218346890e-04
6.34681250000000e-01 4.63757347311822e-02 9.30091429824064e-04
6.36718750000000e-01 4.53838977933304e-02 9.11659411954591e-04
6.38756250000000e-01 4.44132732528021e-02 8.93588093972147e-04
6.40793750000000e-01 4.34634074404678e-02 8.75870537706364e-04
6.42831250000000e-01 4.25338563898108e-02 8.58499935189898e-04
