Energy (eV)          EEDF (eV^-(3/2))     First Anisotropy
1.51666666666667e-02 9.31965043701298e-02 4.51433263798671e-05
4.55000000000000e-02 9.26608620523485e-02 7.45809693083137e-05
7.58333333333333e-02 9.21282983112798e-02 9.85520896823911e-05
1.06166666666667e-01 9.15987954544876e-02 1.16822154831338e-04
1.36500000000000e-01 9.10723358904653e-02 1.32108550604129e-04
1.66833333333333e-01 9.05489021242811e-02 1.45436997231682e-04
1.97166666666667e-01 9.00284767692242e-02 1.57337478911823e-04
2.27500000000000e-01 8.95110425339848e-02 1.68129551427064e-04
2.57833333333333e-01 8.89965822250189e-02 1.78024830589939e-04
2.88166666666667e-01 8.84850787521110e-02 1.87172658284289e-04
3.18500000000000e-01 8.79765151207337e-02 1.95683420616614e-04
3.48833333333333e-01 8.74708744327228e-02 2.03641640650127e-04
3.79166666666667e-01 8.69681398901982e-02 2.11113868627381e-04
4.09500000000000e-01 8.64682947900904e-02 2.18153703056175e-04
4.39833333333333e-01 8.59713225242696e-02 2.24805127343119e-04
4.70166666666667e-01 8.54772065824771e-02 2.31104809580561e-04
5.00500000000000e-01 8.49859305480422e-02 2.37083735038707e-04
5.30833333333333e-01 8.44974780977697e-02 2.42768393707140e-04
5.61166666666667e-01 8.40118330042243e-02 2.48181664903211e-04
5.91500000000000e-01 8.35289791322003e-02 2.53343488148256e-04
6.21833333333333e-01 8.30489004384844e-02 2.58271379563599e-04
6.52166666666667e-01 8.25715809736866e-02 2.62980836856004e-04
6.82500000000000e-01 8.20970048792301e-02 2.67485660462325e-04
7.12833333333333e-01 8.16251563870428e-02 2.71798210378319e-04
7.43166666666667e-01 8.11560198210551e-02 2.75929615248220e-04
7.73500000000000e-01 8.06895795945709e-02 2.79889943595112e-04
8.03833333333333e-01 8.02258202099165e-02 2.83688344495766e-04
8.34166666666667e-01 7.97647262596837e-02 2.87333165495195e-04
8.64500000000000e-01 7.93062824243929e-02 2.90832051555400e-04
8.94833333333333e-01 7.88504734721154e-02 2.94192027919155e-04
9.25166666666667e-01 7.83972842595167e-02 2.97419571269567e-04
9.55500000000000e-01 7.79466997297507e-02 3.00520670598053e-04
9.85833333333333e-01 7.74987049120654e-02 3.03500878861548e-04
1.01616666666667e+00 7.70532849226854e-02 3.06365358083553e-04
1.04650000000000e+00 7.66104249641454e-02 3.09118919800688e-04
1.07683333333333e+00 7.61701103186131e-02 3.11766056801644e-04
1.10716666666667e+00 7.57323263612205e-02 3.14310974168915e-04
1.13750000000000e+00 7.52970585468178e-02 3.16757617925132e-04
1.16783333333333e+00 7.48642924102156e-02 3.19109694004857e-04
1.19816666666667e+00 7.44340135769350e-02 3.21370691010327e-04
1.22850000000000e+00 7.40062077512005e-02 3.23543900491194e-04
1.25883333333333e+00 7.35808607160813e-02 3.25632429241476e-04
1.28916666666667e+00 7.31579583432488e-02 3.27639215944554e-04
1.31950000000000e+00 7.27374865820225e-02 3.29567046146652e-04
1.34983333333333e+00 7.23194314594320e-02 3.31418560226666e-04
1.38016666666667e+00 7.19037790891218e-02 3.33196265955354e-04
1.41050000000000e+00 7.14905156613013e-02 3.34902549884926e-04
1.44083333333333e+00 7.10796274427448e-02 3.36539682435330e-04
1.47116666666667e+00 7.06711007849554e-02 3.38109827635167e-04
1.50150000000000e+00 7.02649221149003e-02 3.39615052017828e-04
1.53183333333333e+00 6.98610779349611e-02 3.41057327742376e-04
1.56216666666667e+00 6.94595548304494e-02 3.42438540336664e-04
1.59250000000000e+00 6.90603394610295e-02 3.43760495812624e-04
1.62283333333333e+00 6.86634185606289e-02 3.45024922422468e-04
1.65316666666667e+00 6.82687789443819e-02 3.46233476950777e-04
1.68350000000000e+00 6.78764075006592e-02 3.47387750527809e-04
1.71383333333333e+00 6.74862911909461e-02 3.48489269424042e-04
1.74416666666667e+00 6.70984170562783e-02 3.49539500265118e-04
1.77450000000000e+00 6.67127722098110e-02 3.50539854872968e-04
1.80483333333333e+00 6.63293438366709e-02 3.51491690375050e-04
1.83516666666667e+00 6.59481191999378e-02 3.52396313603572e-04
1.86550000000000e+00 6.55690856336968e-02 3.53254985196609e-04
1.89583333333333e+00 6.51922305428688e-02 3.54068919215243e-04
1.92616666666667e+00 6.48175414087847e-02 3.54839286913733e-04
1.95650000000000e+00 6.44450057826712e-02 3.55567220267366e-04
1.98683333333333e+00 6.40746112854642e-02 3.56253811234671e-04
2.01716666666667e+00 6.37063456130150e-02 3.56900115034206e-04
2.04750000000000e+00 6.33401965299690e-02 3.57507153221244e-04
2.07783333333333e+00 6.29761518695641e-02 3.58075912693827e-04
2.10816666666667e+00 6.26141995385046e-02 3.58607348576785e-04
2.13850000000000e+00 6.22543275111949e-02 3.59102386937729e-04
2.16883333333333e+00 6.18965238295272e-02 3.59561923609087e-04
2.19916666666667e+00 6.15407766074521e-02 3.59986826754899e-04
2.22950000000000e+00 6.11870740255368e-02 3.60377939294461e-04
2.25983333333333e+00 6.08354043307435e-02 3.60736077593603e-04
2.29016666666667e+00 6.04857558407235e-02 3.61062033771803e-04
2.32050000000000e+00 6.01381169386722e-02 3.61356577885847e-04
2.35083333333333e+00 5.97924760730998e-02 3.61620456529939e-04
2.38116666666667e+00 5.94488217618725e-02 3.61854394927582e-04
2.41150000000000e+00 5.91071425873398e-02 3.62059098915742e-04
2.44183333333333e+00 5.87674271960992e-02 3.62235253483574e-04
2.47216666666667e+00 5.84296643028049e-02 3.62383524683856e-04
2.50250000000000e+00 5.80938426855462e-02 3.62504561449484e-04
2.53283333333333e+00 5.77599511856070e-02 3.62598994093322e-04
2.56316666666667e+00 5.74279787110610e-02 3.62667436066621e-04
2.59350000000000e+00 5.70979142323813e-02 3.62710485633053e-04
2.62383333333333e+00 5.67697467821964e-02 3.62728724346696e-04
2.65416666666667e+00 5.64434654586877e-02 3.62722718679508e-04
2.68450000000000e+00 5.61190594214138e-02 3.62693021573183e-04
2.71483333333333e+00 5.57965178910640e-02 3.62640170908228e-04
2.74516666666667e+00 5.54758301526719e-02 3.62564691018233e-04
2.77550000000000e+00 5.51569855516401e-02 3.62467094135852e-04
2.80583333333333e+00 5.48399734934908e-02 3.62347878862972e-04
2.83616666666667e+00 5.45247834469104e-02 3.62207531586219e-04
2.86650000000000e+00 5.42114049399591e-02 3.62046527830557e-04
2.89683333333333e+00 5.38998275598203e-02 3.61865330738024e-04
2.92716666666667e+00 5.35900409556880e-02 3.61664392396444e-04
2.95750000000000e+00 5.32820348351484e-02 3.61444155111647e-04
2.98783333333333e+00 5.29757989639292e-02 3.61205049900497e-04
3.01816666666667e+00 5.26713231686399e-02 3.60947497742821e-04
3.04850000000000e+00 5.23685973333151e-02 3.60671910781336e-04
3.07883333333333e+00 5.20676113991635e-02 3.60378690833389e-04
3.10916666666667e+00 5.17683553671711e-02 3.60068230574376e-04
3.13950000000000e+00 5.14708192947957e-02 3.59740914673067e-04
3.16983333333333e+00 5.11749932957165e-02 3.59397118325380e-04
3.20016666666667e+00 5.08808675423089e-02 3.59037208376192e-04
3.23050000000000e+00 5.05884322624809e-02 3.58661544396625e-04
3.26083333333333e+00 5.02976777394230e-02 3.58270477242273e-04
3.29116666666667e+00 5.00085943139641e-02 3.57864350119339e-04
3.32150000000000e+00 4.97211723815401e-02 3.57443499609525e-04
3.35183333333333e+00 4.94354023919453e-02 3.57008254254334e-04
3.38216666666667e+00 4.91512748515757e-02 3.56558935570718e-04
3.41250000000000e+00 4.88687803205232e-02 3.56095859028193e-04
3.44283333333333e+00 4.85879094123280e-02 3.55619332660587e-04
3.47316666666667e+00 4.83086527961166e-02 3.55129658035578e-04
3.50350000000000e+00 4.80310011938139e-02 3.54627131188096e-04
3.53383333333333e+00 4.77549453798974e-02 3.54112041260347e-04
3.56416666666667e+00 4.74804761834358e-02 3.53584671428969e-04
3.59450000000000e+00 4.72075844854127e-02 3.53045299798378e-04
3.62483333333333e+00 4.69362612184824e-02 3.52494198069576e-04
3.65516666666667e+00 4.66664973689152e-02 3.51931632428260e-04
3.68550000000000e+00 4.63982839740267e-02 3.51357864401154e-04
3.71583333333333e+00 4.61316121219348e-02 3.50773149553839e-04
3.74616666666667e+00 4.58664729534180e-02 3.50177738342765e-04
3.77650000000000e+00 4.56028576594436e-02 3.49571876937342e-04
3.80683333333333e+00 4.53407574809268e-02 3.48955805946807e-04
3.83716666666667e+00 4.50801637105067e-02 3.48329761238725e-04
3.86750000000000e+00 4.48210676901679e-02 3.47693974729167e-04
3.89783333333333e+00 4.45634608110027e-02 3.47048673138599e-04
3.92816666666667e+00 4.43073345149082e-02 3.46394078779116e-04
3.95850000000000e+00 4.40526802922976e-02 3.45730410314853e-04
3.98883333333333e+00 4.37994896818645e-02 3.45057881546651e-04
4.01916666666667e+00 4.35477542722062e-02 3.44376702170095e-04
4.04950000000000e+00 4.32974656996200e-02 3.43687078508070e-04
4.07983333333333e+00 4.30486156478695e-02 3.42989212323886e-04
4.11016666666667e+00 4.28011958497382e-02 3.42283301551856e-04
4.14050000000000e+00 4.25551980849065e-02 3.41569541003773e-04
4.17083333333333e+00 4.23106141797200e-02 3.40848121210051e-04
4.20116666666667e+00 4.20674360086775e-02 3.40119229124501e-04
4.23150000000000e+00 4.18256554923844e-02 3.39383048806352e-04
4.26183333333333e+00 4.15852645973231e-02 3.38639760288864e-04
4.29216666666667e+00 4.13462553372793e-02 3.37889540259853e-04
4.32250000000000e+00 4.11086197713670e-02 3.37132562720503e-04
4.35283333333333e+00 4.08723500038028e-02 3.36368997881050e-04
4.38316666666667e+00 4.06374381852715e-02 3.35599012818446e-04
4.41350000000000e+00 4.04038765110217e-02 3.34822772113173e-04
4.44383333333333e+00 4.01716572206418e-02 3.34040436771486e-04
4.47416666666667e+00 3.99407725993700e-02 3.33252164861359e-04
4.50450000000000e+00 3.97112149762553e-02 3.32458112128525e-04
4.53483333333333e+00 3.94829767239367e-02 3.31658430944770e-04
4.56516666666667e+00 3.92560502598997e-02 3.30853270923208e-04
4.59550000000000e+00 3.90304280446998e-02 3.30042779514657e-04
4.62583333333333e+00 3.88061025817452e-02 3.29227100981346e-04
4.65616666666667e+00 3.85830664185019e-02 3.28406376992595e-04
4.68650000000000e+00 3.83613121447776e-02 3.27580747202461e-04
4.71683333333333e+00 3.81408323925072e-02 3.26750348248233e-04
4.74716666666667e+00 3.79216198369095e-02 3.25915314327583e-04
4.77750000000000e+00 3.77036671948286e-02 3.25075777758339e-04
4.80783333333333e+00 3.74869672245222e-02 3.24231868001231e-04
4.83816666666667e+00 3.72715127267721e-02 3.23383712219242e-04
4.86850000000000e+00 3.70572965432811e-02 3.22531435820361e-04
4.89883333333333e+00 3.68443115564637e-02 3.21675161504097e-04
4.92916666666667e+00 3.66325506905125e-02 3.20815009803784e-04
4.95950000000000e+00 3.64220069098487e-02 3.19951099613144e-04
4.98983333333333e+00 3.62126732189141e-02 3.19083547255804e-04
5.02016666666667e+00 3.60045426631974e-02 3.18212467011463e-04
5.05050000000000e+00 3.57976083277339e-02 3.17337971626877e-04
5.08083333333333e+00 3.55918633369009e-02 3.16460171407954e-04
5.11116666666667e+00 3.53873008554039e-02 3.15579174730412e-04
5.14150000000000e+00 3.51839140868245e-02 3.14695088535777e-04
5.17183333333333e+00 3.49816962734191e-02 3.13808017445511e-04
5.20216666666667e+00 3.47806406970664e-02 3.12918064256796e-04
5.23250000000000e+00 3.45807406778624e-02 3.12025330424281e-04
5.26283333333333e+00 3.43819895739208e-02 3.11129915195564e-04
5.29316666666667e+00 3.41843807822858e-02 3.10231916092726e-04
5.32350000000000e+00 3.39879077375696e-02 3.09331429380413e-04
5.35383333333333e+00 3.37925639117574e-02 3.08428549222167e-04
5.38416666666667e+00 3.35983428150843e-02 3.07523368148271e-04
5.41450000000000e+00 3.34052379947159e-02 3.06615977510684e-04
5.44483333333333e+00 3.32132430345562e-02 3.05706466659622e-04
5.47516666666667e+00 3.30223515560911e-02 3.04794923398338e-04
5.50550000000000e+00 3.28325572171101e-02 3.03881434425343e-04
5.53583333333333e+00 3.26438537115170e-02 3.02966084530794e-04
5.56616666666667e+00 3.24562347701415e-02 3.02048957038682e-04
5.59650000000000e+00 3.22696941595006e-02 3.01130134236811e-04
5.62683333333333e+00 3.20842256816118e-02 3.00209696592480e-04
5.65716666666667e+00 3.18998231747743e-02 2.99287723182461e-04
5.68750000000000e+00 3.17164805123689e-02 2.98364292111331e-04
5.71783333333333e+00 3.15341916026727e-02 2.97439479745896e-04
5.74816666666667e+00 3.13529503896128e-02 2.96513361133428e-04
5.77850000000000e+00 3.11727508516011e-02 2.95586010408690e-04
5.80883333333333e+00 3.09935870013529e-02 2.94657500046661e-04
5.83916666666667e+00 3.08154528866122e-02 2.93727901269451e-04
5.86950000000000e+00 3.06383425890219e-02 2.92797284442470e-04
5.89983333333333e+00 3.04622502239447e-02 2.91865718344941e-04
5.93016666666667e+00 3.02871699411618e-02 2.90933270565866e-04
5.96050000000000e+00 3.01130959237774e-02 2.90000007889747e-04
5.99083333333333e+00 2.99400223880415e-02 2.89065995584376e-04
6.02116666666667e+00 2.97679435840238e-02 2.88131297786322e-04
6.05150000000000e+00 2.95968537945501e-02 2.87195977876497e-04
6.08183333333333e+00 2.94267473350281e-02 2.86260097784810e-04
6.11216666666667e+00 2.92576185540969e-02 2.85323718365506e-04
6.14250000000000e+00 2.90894618325944e-02 2.84386899762889e-04
6.17283333333333e+00 2.89222715833857e-02 2.83449700732466e-04
6.20316666666667e+00 2.87560422519898e-02 2.82512179006481e-04
6.23350000000000e+00 2.85907683155763e-02 2.81574391650141e-04
6.26383333333333e+00 2.84264442827971e-02 2.80636394398682e-04
6.29416666666667e+00 2.82630646943900e-02 2.79698242013498e-04
6.32450000000000e+00 2.81006241222050e-02 2.78759988629208e-04
6.35483333333333e+00 2.79391171690385e-02 2.77821687106283e-04
6.38516666666667e+00 2.77785384692151e-02 2.76883389378021e-04
6.41550000000000e+00 2.76188826876420e-02 2.75945146788697e-04
6.44583333333333e+00 2.74601445196457e-02 2.75007009461428e-04
6.47616666666667e+00 2.73023186915334e-02 2.74069026636237e-04
6.50650000000000e+00 2.71453999596744e-02 2.73131246999626e-04
6.53683333333333e+00 2.69893831103388e-02 2.72193718067226e-04
6.56716666666667e+00 2.68342629602398e-02 2.71256486513252e-04
6.59750000000000e+00 2.66800343556405e-02 2.70319598491763e-04
6.62783333333333e+00 2.65266921721956e-02 2.69383099033738e-04
6.65816666666667e+00 2.63742313154743e-02 2.68447032368202e-04
6.68850000000000e+00 2.62226467200926e-02 2.67511442235419e-04
6.71883333333333e+00 2.60719333495573e-02 2.66576371298002e-04
6.74916666666667e+00 2.59220861967706e-02 2.65641861453956e-04
6.77950000000000e+00 2.57731002831866e-02 2.64707954142078e-04
6.80983333333333e+00 2.56249706586579e-02 2.63774689766757e-04
6.84016666666667e+00 2.54776924019225e-02 2.62842108003153e-04
6.87050000000000e+00 2.53312606197841e-02 2.61910248095069e-04
6.90083333333333e+00 2.51856704469607e-02 2.60979148293051e-04
6.93116666666667e+00 2.50409170465549e-02 2.60048846152006e-04
6.96150000000000e+00 2.48969956092566e-02 2.59119378821715e-04
6.99183333333333e+00 2.47539013531942e-02 2.58190782497845e-04
7.02216666666667e+00 2.46116295243885e-02 2.57263092712309e-04
7.05250000000000e+00 2.44701753959778e-02 2.56336344616631e-04
7.08283333333333e+00 2.43295342680707e-02 2.55410572445641e-04
7.11316666666667e+00 2.41897014681852e-02 2.54485809800614e-04
7.14350000000000e+00 2.40506723504940e-02 2.53562089925770e-04
7.17383333333333e+00 2.39124422956807e-02 2.52639445184253e-04
7.20416666666667e+00 2.37750067113632e-02 2.51717907334414e-04
7.23450000000000e+00 2.36383610313597e-02 2.50797507799555e-04
7.26483333333333e+00 2.35025007155471e-02 2.49878277155917e-04
7.29516666666667e+00 2.33674212502702e-02 2.48960245402271e-04
7.32550000000000e+00 2.32331181476274e-02 2.48043442223088e-04
7.35583333333333e+00 2.30995869453312e-02 2.47127896488316e-04
7.38616666666667e+00 2.29668232071037e-02 2.46213636516366e-04
7.41650000000000e+00 2.28348225219812e-02 2.45300690330999e-04
7.44683333333333e+00 2.27035805041776e-02 2.44389085172454e-04
7.47716666666667e+00 2.25730927934658e-02 2.43478847754162e-04
7.50750000000000e+00 2.24433550545014e-02 2.42570004513474e-04
7.53783333333333e+00 2.23143629766876e-02 2.41662581133856e-04
7.56816666666667e+00 2.21861122745446e-02 2.40756602795496e-04
7.59850000000000e+00 2.20585986870507e-02 2.39852094420023e-04
7.62883333333333e+00 2.19318179775098e-02 2.38949080203585e-04
7.65916666666667e+00 2.18057659339078e-02 2.38047583861426e-04
7.68950000000000e+00 2.16804383682717e-02 2.37147628866816e-04
7.71983333333333e+00 2.15558311165388e-02 2.36249237994693e-04
7.75016666666667e+00 2.14319400389014e-02 2.35352433560402e-04
7.78050000000000e+00 2.13087610191830e-02 2.34457237653028e-04
7.81083333333333e+00 2.11862899647090e-02 2.33563671689332e-04
7.84116666666667e+00 2.10645228066406e-02 2.32671756646812e-04
7.87150000000000e+00 2.09434554993665e-02 2.31781513291498e-04
7.90183333333333e+00 2.08230840203764e-02 2.30892961741998e-04
7.93216666666667e+00 2.07034043705838e-02 2.30006121697067e-04
7.96250000000000e+00 2.05844125737330e-02 2.29121012658065e-04
7.99283333333333e+00 2.04661046762753e-02 2.28237653502736e-04
8.02316666666667e+00 2.03484767476803e-02 2.27356062707466e-04
8.05350000000000e+00 2.02315248798593e-02 2.26476258564547e-04
8.08383333333333e+00 2.01152451870425e-02 2.25598258765534e-04
8.11416666666667e+00 1.99996338060808e-02 2.24722080618272e-04
8.14450000000000e+00 1.98846868958834e-02 2.23847741259096e-04
8.17483333333333e+00 1.97704006372978e-02 2.22975257245531e-04
8.20516666666667e+00 1.96567712334009e-02 2.22104644768209e-04
8.23550000000000e+00 1.95437949089514e-02 2.21235919858200e-04
8.26583333333333e+00 1.94314679102718e-02 2.20369097988769e-04
8.29616666666667e+00 1.93197865055297e-02 2.19504194282412e-04
8.32650000000000e+00 1.92087469842047e-02 2.18641223713363e-04
8.35683333333333e+00 1.90983456569715e-02 2.17780200718209e-04
8.38716666666667e+00 1.89885788559728e-02 2.16921139398140e-04
8.41750000000000e+00 1.88794429342992e-02 2.16064053716797e-04
8.44783333333333e+00 1.87709342658746e-02 2.15208957119516e-04
8.47816666666667e+00 1.86630492457199e-02 2.14355862730929e-04
8.50850000000000e+00 1.85557842894465e-02 2.13504783548290e-04
8.53883333333333e+00 1.84491358331430e-02 2.12655732069137e-04
8.56916666666667e+00 1.83431003336307e-02 2.11808720484347e-04
8.59950000000000e+00 1.82376742679697e-02 2.10963760867033e-04
8.62983333333333e+00 1.81328541333477e-02 2.10120864808429e-04
8.66016666666667e+00 1.80286364473269e-02 2.09280043606561e-04
8.69050000000000e+00 1.79250177473629e-02 2.08441308450807e-04
8.72083333333333e+00 1.78219945906946e-02 2.07604670065825e-04
8.75116666666667e+00 1.77195635545842e-02 2.06770138895906e-04
8.78150000000000e+00 1.76177212358472e-02 2.05937725285340e-04
8.81183333333333e+00 1.75164642507444e-02 2.05107439130209e-04
8.84216666666667e+00 1.74157892352144e-02 2.04279290058474e-04
8.87250000000000e+00 1.73156928444149e-02 2.03453287606306e-04
8.90283333333333e+00 1.72161717526169e-02 2.02629440877531e-04
8.93316666666667e+00 1.71172226534294e-02 2.01807758719627e-04
8.96350000000000e+00 1.70188422593521e-02 2.00988249896049e-04
8.99383333333333e+00 1.69210273016718e-02 2.00170922753143e-04
9.02416666666667e+00 1.68237745306791e-02 1.99355785392164e-04
9.05450000000000e+00 1.67270807152329e-02 1.98542845837745e-04
9.08483333333333e+00 1.66309426426580e-02 1.97732111712050e-04
9.11516666666667e+00 1.65353571189552e-02 1.96923590402917e-04
9.14550000000000e+00 1.64403209683763e-02 1.96117289228581e-04
9.17583333333333e+00 1.63458310333235e-02 1.95313215118922e-04
9.20616666666667e+00 1.62518841745525e-02 1.94511374779831e-04
9.23650000000000e+00 1.61584772707586e-02 1.93711774854181e-04
9.26683333333333e+00 1.60656072184769e-02 1.92914421610083e-04
9.29716666666667e+00 1.59732709322797e-02 1.92119321101591e-04
9.32750000000000e+00 1.58814653443721e-02 1.91326479326003e-04
9.35783333333333e+00 1.57901874044943e-02 1.90535901918942e-04
9.38816666666667e+00 1.56994340801126e-02 1.89747594311422e-04
9.41850000000000e+00 1.56092023560244e-02 1.88961561883659e-04
9.44883333333333e+00 1.55194892342631e-02 1.88177809666811e-04
9.47916666666667e+00 1.54302917342819e-02 1.87396342496512e-04
9.50950000000000e+00 1.53416068925693e-02 1.86617165163267e-04
9.53983333333333e+00 1.52534317625549e-02 1.85840282120602e-04
9.57016666666667e+00 1.51657634147880e-02 1.85065697635236e-04
