Energy (eV)          EEDF (eV^-(3/2))     First Anisotropy
8.05882352941176e-02 5.00109356869940e-02 4.51989651068229e-05
2.41764705882353e-01 4.90046989803261e-02 7.41347104636444e-05
4.02941176470588e-01 4.80187080963031e-02 9.65462571028884e-05
5.64117647058824e-01 4.70525556766296e-02 1.12790065761962e-04
7.25294117647059e-01 4.61058425668649e-02 1.25705012954941e-04
8.86470588235294e-01 4.51781776400444e-02 1.36386882042350e-04
1.04764705882353e+00 4.42691776404658e-02 1.45413899647939e-04
1.20882352941176e+00 4.33784670273905e-02 1.53141825798294e-04
1.37000000000000e+00 4.25056778088391e-02 1.59810893857940e-04
1.53117647058824e+00 4.16504493945368e-02 1.65593864421221e-04
1.69235294117647e+00 4.08124284618155e-02 1.70620769591478e-04
1.85352941176471e+00 3.99912687902574e-02 1.74992922707383e-04
2.01470588235294e+00 3.91866311255556e-02 1.78791428483218e-04
2.17588235294118e+00 3.83981830393402e-02 1.82082644271241e-04
2.33705882352941e+00 3.76255987918301e-02 1.84921840462663e-04
2.49823529411765e+00 3.68685591972505e-02 1.87355743511715e-04
2.65941176470588e+00 3.61267514919612e-02 1.89424356414717e-04
2.82058823529412e+00 3.53998692052382e-02 1.91162295549940e-04
2.98176470588235e+00 3.46876120326446e-02 1.92599794124106e-04
3.14294117647059e+00 3.39896857119881e-02 1.93763469892962e-04
3.30411764705882e+00 3.33058019017329e-02 1.94676922475819e-04
3.46529411764706e+00 3.26356780618734e-02 1.95361205052095e-04
3.62647058823529e+00 3.19790373372050e-02 1.95835201843677e-04
3.78764705882353e+00 3.13356084429438e-02 1.96115933829179e-04
3.94882352941176e+00 3.07051255526475e-02 1.96218809021028e-04
4.11000000000000e+00 3.00873281883918e-02 1.96157829488654e-04
4.27117647058823e+00 2.94819611117314e-02 1.95945763607939e-04
4.43235294117647e+00 2.88887742226382e-02 1.95594291449479e-04
4.59352941176471e+00 2.83075224516644e-02 1.95114128014962e-04
4.75470588235294e+00 2.77379656602427e-02 1.94515127819102e-04
4.91588235294118e+00 2.71798685414750e-02 1.93806375140298e-04
5.07705882352941e+00 2.66330005229178e-02 1.92996261878769e-04
5.23823529411765e+00 2.60971356713224e-02 1.92092555190200e-04
5.39941176470588e+00 2.55720525992937e-02 1.91102456541279e-04
5.56058823529412e+00 2.50575343738253e-02 1.90032653524123e-04
5.72176470588235e+00 2.45533684266736e-02 1.88889365521751e-04
5.88294117647059e+00 2.40593464665421e-02 1.87678384125370e-04
6.04411764705882e+00 2.35752643930251e-02 1.86405109048544e-04
6.20529411764706e+00 2.31009222122854e-02 1.85074580157814e-04
6.36647058823529e+00 2.26361239544289e-02 1.83691506140653e-04
6.52764705882353e+00 2.21806775925415e-02 1.82260290248289e-04
6.68882352941176e+00 2.17343949633549e-02 1.80785053483845e-04
6.85000000000000e+00 2.12970916895086e-02 1.79269655612692e-04
7.01117647058823e+00 2.08685871027669e-02 1.77717713950645e-04
7.17235294117647e+00 2.04487041712456e-02 1.76132620729410e-04
7.33352941176471e+00 2.00372694243631e-02 1.74517558923776e-04
7.49470588235294e+00 1.96341128818240e-02 1.72875516376089e-04
7.65588235294118e+00 1.92390679833934e-02 1.71209298968372e-04
7.81705882352941e+00 1.88519715200840e-02 1.69521542634381e-04
7.97823529411765e+00 1.84726635667283e-02 1.67814724392953e-04
8.13941176470588e+00 1.81009874159062e-02 1.66091172501730e-04
8.30058823529412e+00 1.77367895132037e-02 1.64353075818432e-04
8.46176470588235e+00 1.73799193937722e-02 1.62602492446103e-04
8.62294117647059e+00 1.70302296201669e-02 1.60841357730613e-04
8.78411764705882e+00 1.66875757214336e-02 1.59071491670489e-04
8.94529411764706e+00 1.63518161334222e-02 1.57294605792103e-04
9.10647058823529e+00 1.60228121403004e-02 1.55512309538142e-04
9.26764705882353e+00 1.57004278172451e-02 1.53726116211729e-04
9.42882352941176e+00 1.53845299742858e-02 1.51937448514255e-04
9.59000000000000e+00 1.50749881012787e-02 1.50147643748143e-04
9.75117647058823e+00 1.47716743136786e-02 1.48357958527623e-04
9.91235294117647e+00 1.44744633006502e-02 1.46569573365405e-04
1.00735294117647e+01 1.41832322723324e-02 1.44783596803874e-04
1.02347058823529e+01 1.38978609108097e-02 1.43001069862874e-04
1.03958823529412e+01 1.36182313154168e-02 1.41222969238352e-04
1.05570588235294e+01 1.33442279599538e-02 1.39450210427625e-04
1.07182352941176e+01 1.30757376426408e-02 1.37683651448349e-04
1.08794117647059e+01 1.28126494417785e-02 1.35924096552573e-04
1.10405882352941e+01 1.25548546625469e-02 1.34172298497961e-04
1.12017647058824e+01 1.23022467995704e-02 1.32428960334603e-04
1.13629411764706e+01 1.20547214925791e-02 1.30694739814049e-04
1.15241176470588e+01 1.18121764766649e-02 1.28970250909031e-04
1.16852941176471e+01 1.15745115467454e-02 1.27256065497665e-04
1.18464705882353e+01 1.13416285138985e-02 1.25552716171682e-04
1.20076470588235e+01 1.11134311666972e-02 1.23860698743210e-04
1.21688235294118e+01 1.08898252256674e-02 1.22180473657110e-04
1.23300000000000e+01 1.06707183102133e-02 1.20512467041293e-04
1.24911764705882e+01 1.04560199001866e-02 1.18857073956036e-04
1.26523529411765e+01 1.02456412932618e-02 1.17214659281843e-04
1.28135294117647e+01 1.00394955735847e-02 1.15585558556076e-04
1.29747058823529e+01 9.83749757562840e-03 1.13970080841751e-04
1.31358823529412e+01 9.63956384428944e-03 1.12368509431980e-04
1.32970588235294e+01 9.44561260519382e-03 1.10781102714340e-04
1.34582352941176e+01 9.25556372929260e-03 1.09208095918711e-04
1.36194117647059e+01 9.06933870112568e-03 1.07649702664719e-04
1.37805882352941e+01 8.88686058222781e-03 1.06106115699046e-04
1.39417647058824e+01 8.70805398355304e-03 1.04577507377005e-04
1.41029411764706e+01 8.53284503414885e-03 1.03064031848599e-04
1.42641176470588e+01 8.36116134686725e-03 1.01565825457024e-04
1.44252941176471e+01 8.19293199227755e-03 1.00083007280395e-04
1.45864705882353e+01 8.02808746807323e-03 9.86156804214176e-05
1.47476470588235e+01 7.86655967145011e-03 9.71639331412675e-05
1.49088235294118e+01 7.70828186764150e-03 9.57278393255879e-05
1.50700000000000e+01 7.55318866572350e-03 9.43074587475949e-05
1.52311764705882e+01 7.40121599145478e-03 9.29028387612661e-05
1.53923529411765e+01 7.25230105777808e-03 9.15140145096062e-05
1.55535294117647e+01 7.10638234194696e-03 9.01410091219326e-05
1.57147058823529e+01 6.96339955997799e-03 8.87838352347857e-05
1.58758823529412e+01 6.82329363899268e-03 8.74424951434215e-05
1.60370588235294e+01 6.68600669560292e-03 8.61169810738461e-05
1.61982352941176e+01 6.55148201105237e-03 8.48072760389457e-05
1.63594117647059e+01 6.41966400858807e-03 8.35133545829587e-05
1.65205882352941e+01 6.29049822805567e-03 8.22351830173485e-05
1.66817647058824e+01 6.16393130587590e-03 8.09727195053354e-05
1.68429411764706e+01 6.03991095289630e-03 7.97259152598194e-05
1.70041176470588e+01 5.91838593055837e-03 7.84947145978655e-05
1.71652941176471e+01 5.79930603198821e-03 7.72790550989776e-05
1.73264705882353e+01 5.68262206049112e-03 7.60788682573242e-05
1.74876470588235e+01 5.56828580987742e-03 7.48940800440060e-05
1.76488235294118e+01 5.45625004256354e-03 7.37246110445769e-05
1.78100000000000e+01 5.34646847206724e-03 7.25703764732832e-05
1.79711764705882e+01 5.23889574380182e-03 7.14312871247249e-05
1.81323529411765e+01 5.13348741452563e-03 7.03072493674834e-05
1.82935294117647e+01 5.03019993581737e-03 6.91981651374402e-05
1.84547058823529e+01 4.92899063600926e-03 6.81039328004216e-05
1.86158823529412e+01 4.82981770090066e-03 6.70244471281530e-05
1.87770588235294e+01 4.73264015816303e-03 6.59595993587404e-05
1.89382352941176e+01 4.63741785984403e-03 6.49092776438980e-05
1.90994117647059e+01 4.54411146626767e-03 6.38733674292861e-05
1.92605882352941e+01 4.45268242830222e-03 6.28517515066843e-05
1.94217647058824e+01 4.36309297293299e-03 6.18443099718597e-05
1.95829411764706e+01 4.27530608759702e-03 6.08509209162230e-05
1.97441176470588e+01 4.18928550353584e-03 5.98714603732652e-05
1.99052941176471e+01 4.10499568218514e-03 5.89058023370827e-05
2.00664705882353e+01 4.02240180002845e-03 5.79538191085340e-05
2.02276470588235e+01 3.94146973460800e-03 5.70153815865095e-05
2.03888235294118e+01 3.86216604921563e-03 5.60903592831660e-05
2.05500000000000e+01 3.78445798030751e-03 5.51786202612701e-05
2.07111764705882e+01 3.70831342391887e-03 5.42800316914754e-05
2.08723529411765e+01 3.63370092128860e-03 5.33944597817897e-05
2.10335294117647e+01 3.56058964698910e-03 5.25217697094762e-05
2.11947058823529e+01 3.48894939614607e-03 5.16618261288302e-05
2.13558823529412e+01 3.41875057093941e-03 5.08144930965037e-05
2.15170588235294e+01 3.34996416940957e-03 4.99796340549640e-05
2.16782352941176e+01 3.28256177312575e-03 4.91571120734705e-05
2.18394117647059e+01 3.21651553574604e-03 4.83467900474074e-05
2.20005882352941e+01 3.15179817059837e-03 4.75485306824514e-05
2.21617647058824e+01 3.08838294033410e-03 4.67621964183208e-05
2.23229411764706e+01 3.02624364584567e-03 4.59876498401054e-05
2.24841176470588e+01 2.96535461460160e-03 4.52247535978971e-05
2.26452941176471e+01 2.90569069089234e-03 4.44733703758816e-05
2.28064705882353e+01 2.84722722514965e-03 4.37333630800755e-05
2.29676470588235e+01 2.78994006401062e-03 4.30045949915151e-05
2.31288235294118e+01 2.73380553958448e-03 4.22869297376175e-05
2.32900000000000e+01 2.67880046043946e-03 4.15802312132350e-05
2.34511764705882e+01 2.62490210199152e-03 4.08843639148227e-05
2.36123529411765e+01 2.57208819642138e-03 4.01991928587738e-05
2.37735294117647e+01 2.52033692417852e-03 3.95245835025541e-05
2.39347058823529e+01 2.46962690493918e-03 3.88604020501253e-05
2.40958823529412e+01 2.41993718813416e-03 3.82065153709095e-05
2.42570588235294e+01 2.37124724494128e-03 3.75627909585266e-05
2.44182352941176e+01 2.32353695958488e-03 3.69290970620165e-05
2.45794117647059e+01 2.27678662121431e-03 3.63053027905245e-05
2.47405882352941e+01 2.23097691518586e-03 3.56912780753858e-05
2.49017647058823e+01 2.18608891566552e-03 3.50868935928549e-05
2.50629411764706e+01 2.14210407778765e-03 3.44920210130350e-05
2.52241176470588e+01 2.09900422946354e-03 3.39065329214915e-05
2.53852941176471e+01 2.05677156441064e-03 3.33303027747169e-05
2.55464705882353e+01 2.01538863461474e-03 3.27632050023337e-05
2.57076470588235e+01 1.97483834327814e-03 3.22051150871332e-05
2.58688235294118e+01 1.93510393727944e-03 3.16559095242155e-05
2.60300000000000e+01 1.89616900073562e-03 3.11154657471740e-05
2.61911764705882e+01 1.85801744820133e-03 3.05836623313290e-05
2.63523529411765e+01 1.82063351758348e-03 3.00603789193441e-05
2.65135294117647e+01 1.78400176407504e-03 2.95454961493037e-05
2.66747058823529e+01 1.74810705375701e-03 2.90388958408042e-05
2.68358823529412e+01 1.71293455694030e-03 2.85404609226927e-05
2.69970588235294e+01 1.67846974245033e-03 2.80500753880090e-05
2.71582352941176e+01 1.64469837148445e-03 2.75676243650662e-05
2.73194117647059e+01 1.61160649184969e-03 2.70929941713589e-05
2.74805882352941e+01 1.57918043183279e-03 2.66260722722298e-05
2.76417647058824e+01 1.54740679492250e-03 2.61667472136102e-05
2.78029411764706e+01 1.51627245426102e-03 2.57149087742299e-05
2.79641176470588e+01 1.48576454688282e-03 2.52704478984606e-05
2.81252941176471e+01 1.45587046874284e-03 2.48332566523371e-05
2.82864705882353e+01 1.42657786939363e-03 2.44032282785546e-05
2.84476470588235e+01 1.39787464698296e-03 2.39802572370543e-05
2.86088235294118e+01 1.36974894294933e-03 2.35642391646642e-05
2.87700000000000e+01 1.34218913743171e-03 2.31550708129448e-05
2.89311764705882e+01 1.31518384445716e-03 2.27526501728025e-05
2.90923529411765e+01 1.28872190695517e-03 2.23568764126253e-05
2.92535294117647e+01 1.26279239243363e-03 2.19676498183974e-05
2.94147058823529e+01 1.23738458845141e-03 2.15848719079164e-05
2.95758823529412e+01 1.21248799793229e-03 2.12084453712862e-05
2.97370588235294e+01 1.18809233509213e-03 2.08382740300431e-05
2.98982352941176e+01 1.16418752110009e-03 2.04742628748349e-05
3.00594117647059e+01 1.14076367999208e-03 2.01163180918675e-05
3.02205882352941e+01 1.11781113435541e-03 1.97643470253623e-05
3.03817647058824e+01 1.09532040156901e-03 1.94182581227937e-05
3.05429411764706e+01 1.07328218987686e-03 1.90779610284851e-05
3.07041176470588e+01 1.05168739433161e-03 1.87433665293946e-05
3.08652941176471e+01 1.03052709325350e-03 1.84143865167978e-05
3.10264705882353e+01 1.00979254446990e-03 1.80909340150144e-05
3.11876470588235e+01 9.89475181768245e-04 1.77729232006796e-05
3.13488235294118e+01 9.69566611160288e-04 1.74602693675240e-05
3.15100000000000e+01 9.50058607613618e-04 1.71528888766333e-05
3.16711764705882e+01 9.30943111646073e-04 1.68506992331725e-05
3.18323529411765e+01 9.12212225814002e-04 1.65536190372309e-05
3.19935294117647e+01 8.93858211633997e-04 1.62615679361904e-05
3.21547058823529e+01 8.75873486378903e-04 1.59744666950749e-05
3.23158823529412e+01 8.58250619776613e-04 1.56922371495292e-05
3.24770588235294e+01 8.40982331111128e-04 1.54148021715821e-05
3.26382352941176e+01 8.24061486156834e-04 1.51420856887500e-05
3.27994117647059e+01 8.07481094281236e-04 1.48740126957371e-05
3.29605882352941e+01 7.91234305404364e-04 1.46105092229357e-05
3.31217647058823e+01 7.75314407323260e-04 1.43515022934214e-05
3.32829411764706e+01 7.59714822933198e-04 1.40969199806317e-05
3.34441176470588e+01 7.44429107369128e-04 1.38466913660175e-05
3.36052941176471e+01 7.29450945486223e-04 1.36007465076134e-05
3.37664705882353e+01 7.14774149202475e-04 1.33590164541971e-05
3.39276470588235e+01 7.00392654984164e-04 1.31214332531947e-05
3.40888235294118e+01 6.86300521212887e-04 1.28879299217440e-05
3.42500000000000e+01 6.72491925860494e-04 1.26584404080326e-05
3.44111764705882e+01 6.58961164078959e-04 1.24328996385826e-05
3.45723529411765e+01 6.45702645724937e-04 1.22112434802204e-05
3.47335294117647e+01 6.32710893170381e-04 1.19934087031915e-05
3.48947058823529e+01 6.19980539035065e-04 1.17793330245108e-05
3.50558823529412e+01 6.07506323859240e-04 1.15689550717059e-05
3.52170588235294e+01 5.95283094042121e-04 1.13622143553523e-05
3.53782352941176e+01 5.83305799675059e-04 1.11590512779495e-05
3.55394117647059e+01 5.71569492487976e-04 1.09594071378843e-05
3.57005882352941e+01 5.60069323705475e-04 1.07632241041207e-05
3.58617647058824e+01 5.48800542144515e-04 1.05704451831627e-05
3.60229411764706e+01 5.37758492247821e-04 1.03810142545769e-05
3.61841176470588e+01 5.26938612068122e-04 1.01948760385777e-05
3.63452941176471e+01 5.16336431477024e-04 1.00119760711296e-05
3.65064705882353e+01 5.05947570286606e-04 9.83226071014206e-06
3.66676470588235e+01 4.95767736467300e-04 9.65567713750996e-06
3.68288235294118e+01 4.85792724290954e-04 9.48217333615379e-06
3.69900000000000e+01 4.76018412678157e-04 9.31169806051619e-06
3.71511764705882e+01 4.66440763492539e-04 9.14420086565468e-06
3.73123529411765e+01 4.57055819794757e-04 8.97963207831448e-06
3.74735294117647e+01 4.47859704286460e-04 8.81794276885110e-06
3.76347058823529e+01 4.38848617705530e-04 8.65908477788625e-06
3.77958823529412e+01 4.30018837184372e-04 8.50301068879264e-06
3.79570588235294e+01 4.21366714784925e-04 8.34967380623698e-06
3.81182352941176e+01 4.12888675966838e-04 8.19902815955208e-06
3.82794117647059e+01 4.04581218132206e-04 8.05102850283713e-06
3.84405882352941e+01 3.96440909113092e-04 7.90563029515218e-06
3.86017647058824e+01 3.88464385819854e-04 7.76278967550726e-06
3.87629411764706e+01 3.80648352849313e-04 7.62246348466943e-06
3.89241176470588e+01 3.72989581062545e-04 7.48460924068502e-06
3.90852941176471e+01 3.65484906312354e-04 7.34918511958786e-06
3.92464705882353e+01 3.58131228115235e-04 7.21614995737220e-06
3.94076470588235e+01 3.50925508388561e-04 7.08546324919255e-06
3.95688235294118e+01 3.43864770140300e-04 6.95708513154696e-06
3.97300000000000e+01 3.36946096294990e-04 6.83097636004395e-06
3.98911764705882e+01 3.30166628486534e-04 6.70709832722519e-06
4.00523529411765e+01 3.23523565826091e-04 6.58541304081768e-06
4.02135294117647e+01 3.17014163796811e-04 6.46588310261128e-06
4.03747058823529e+01 3.10635733118069e-04 6.34847172477109e-06
4.05358823529412e+01 3.04385638586867e-04 6.23314270918487e-06
4.06970588235294e+01 2.98261298037331e-04 6.11986043099229e-06
4.08582352941176e+01 2.92260181257612e-04 6.00858983912137e-06
4.10194117647059e+01 2.86379808958766e-04 5.89929645463655e-06
4.11805882352941e+01 2.80617751707266e-04 5.79194635551576e-06
4.13417647058823e+01 2.74971628965080e-04 5.68650615790701e-06
4.15029411764706e+01 2.69439108104597e-04 5.58294302943638e-06
4.16641176470588e+01 2.64017903404781e-04 5.48122467090178e-06
4.18252941176471e+01 2.58705775147531e-04 5.38131930154872e-06
4.19864705882353e+01 2.53500528678619e-04 5.28319565892493e-06
4.21476470588235e+01 2.48400013512977e-04 5.18682299687777e-06
4.23088235294118e+01 2.43402122409772e-04 5.09217107193855e-06
4.24700000000000e+01 2.38504790538798e-04 4.99921012671673e-06
4.26311764705882e+01 2.33705994626067e-04 4.90791090074170e-06
4.27923529411765e+01 2.29003752084011e-04 4.81824461424984e-06
4.29535294117647e+01 2.24396120226756e-04 4.73018295242844e-06
4.31147058823529e+01 2.19881195466274e-04 4.64369807532225e-06
4.32758823529412e+01 2.15457112494426e-04 4.55876260245507e-06
4.34370588235294e+01 2.11122043544268e-04 4.47534960034316e-06
4.35982352941176e+01 2.06874197624133e-04 4.39343258168420e-06
4.37594117647059e+01 2.02711819787117e-04 4.31298550307716e-06
4.39205882352941e+01 1.98633190377397e-04 4.23398275346763e-06
4.40817647058823e+01 1.94636624348804e-04 4.15639914020702e-06
4.42429411764706e+01 1.90720470567623e-04 4.08020989710182e-06
4.44041176470588e+01 1.86883111103797e-04 4.00539067081869e-06
4.45652941176471e+01 1.83122960589498e-04 3.93191750976883e-06
4.47264705882353e+01 1.79438465555027e-04 3.85976686300793e-06
4.48876470588235e+01 1.75828103794977e-04 3.78891557788871e-06
4.50488235294118e+01 1.72290383715115e-04 3.71934088977068e-06
4.52100000000000e+01 1.68823843740712e-04 3.65102040970012e-06
4.53711764705882e+01 1.65427051711822e-04 3.58393213093674e-06
4.55323529411765e+01 1.62098604269054e-04 3.51805441694282e-06
4.56935294117647e+01 1.58837126296640e-04 3.45336598970512e-06
4.58547058823529e+01 1.55641270353491e-04 3.38984593568457e-06
4.60158823529412e+01 1.52509716095547e-04 3.32747369443399e-06
4.61770588235294e+01 1.49441169751552e-04 3.26622904921871e-06
4.63382352941176e+01 1.46434363581352e-04 3.20609212566796e-06
4.64994117647059e+01 1.43488055358421e-04 3.14704338943791e-06
4.66605882352941e+01 1.40601027837565e-04 3.08906363752320e-06
4.68217647058824e+01 1.37772088271365e-04 3.03213398794687e-06
4.69829411764706e+01 1.35000067916723e-04 2.97623588456688e-06
4.71441176470588e+01 1.32283821534237e-04 2.92135108703455e-06
4.73052941176471e+01 1.29622226933066e-04 2.86746166247183e-06
4.74664705882353e+01 1.27014184501218e-04 2.81454998404217e-06
4.76276470588235e+01 1.24458616756575e-04 2.76259872868097e-06
4.77888235294118e+01 1.21954467885575e-04 2.71159086938279e-06
4.79500000000000e+01 1.19500703323400e-04 2.66150966610821e-06
4.81111764705882e+01 1.17096309325969e-04 2.61233866965531e-06
4.82723529411765e+01 1.14740292536071e-04 2.56406171280530e-06
4.84335294117647e+01 1.12431679588222e-04 2.51666290170942e-06
4.85947058823529e+01 1.10169516705976e-04 2.47012661940643e-06
4.87558823529412e+01 1.07952869293886e-04 2.42443751743766e-06
4.89170588235294e+01 1.05780821565574e-04 2.37958050885126e-06
4.90782352941176e+01 1.03652476160588e-04 2.33554076673945e-06
4.92394117647059e+01 1.01566953777858e-04 2.29230372210961e-06
4.94005882352941e+01 9.95233927996725e-05 2.24985505739803e-06
4.95617647058823e+01 9.75209489486294e-05 2.20818069887894e-06
4.97229411764706e+01 9.55587949383768e-05 2.16726681948297e-06
4.98841176470588e+01 9.36361201199489e-05 2.12709983141214e-06
5.00452941176471e+01 9.17521301588912e-05 2.08766637994763e-06
5.02064705882353e+01 8.99060467030229e-05 2.04895334201021e-06
5.03676470588235e+01 8.80971070644228e-05 2.01094782415346e-06
5.05288235294118e+01 8.63245638935168e-05 1.97363715682042e-06
5.06900000000000e+01 8.45876848812821e-05 1.93700888765940e-06
5.08511764705882e+01 8.28857524563101e-05 1.90105078377264e-06
