Energy (eV)          EEDF (eV^-(3/2))     First Anisotropy
8.69444444444444e-02 4.08997485063149e-02 3.59258544301037e-05
2.60833333333333e-01 4.01231894483064e-02 5.89588176216461e-05
4.34722222222222e-01 3.93613748323119e-02 7.68713798710240e-05
6.08611111111111e-01 3.86140247073728e-02 8.99087894237802e-05
7.82500000000000e-01 3.78808644376818e-02 1.00319639412809e-04
9.56388888888889e-01 3.71616246028333e-02 1.08970271015768e-04
1.13027777777778e+00 3.64560408978282e-02 1.16317060047865e-04
1.30416666666667e+00 3.57638540327022e-02 1.22640350133315e-04
1.47805555555556e+00 3.50848096433348e-02 1.28129168082400e-04
1.65194444444444e+00 3.44186581951227e-02 1.32919265180103e-04
1.82583333333333e+00 3.37651548912445e-02 1.37112690344636e-04
1.99972222222222e+00 3.31240595828680e-02 1.40788864418573e-04
2.17361111111111e+00 3.24951366808125e-02 1.44011303331886e-04
2.34750000000000e+00 3.18781550689850e-02 1.46831928611318e-04
2.52138888888889e+00 3.12728880219335e-02 1.49293955092294e-04
2.69527777777778e+00 3.06791131138658e-02 1.51433894997888e-04
2.86916666666667e+00 3.00966121448418e-02 1.53282991414782e-04
3.04305555555556e+00 2.95251710578513e-02 1.54868270835986e-04
3.21694444444444e+00 2.89645798601549e-02 1.56213332060742e-04
3.39083333333333e+00 2.84146325461028e-02 1.57338949402753e-04
3.56472222222222e+00 2.78751270214656e-02 1.58263541623200e-04
3.73861111111111e+00 2.73458650291508e-02 1.59003541940223e-04
3.91250000000000e+00 2.68266520763481e-02 1.59573693783687e-04
4.08638888888889e+00 2.63172973643225e-02 1.59987290491133e-04
4.26027777777778e+00 2.58176137144157e-02 1.60256370926133e-04
4.43416666666667e+00 2.53274175032447e-02 1.60391881021155e-04
4.60805555555556e+00 2.48465285938619e-02 1.60403808895440e-04
4.78194444444444e+00 2.43747702695582e-02 1.60301298022069e-04
4.95583333333333e+00 2.39119691689184e-02 1.60092743126376e-04
5.12972222222222e+00 2.34579552221268e-02 1.59785871942354e-04
5.30361111111111e+00 2.30125615884632e-02 1.59387815362012e-04
5.47750000000000e+00 2.25756245949932e-02 1.58905167913976e-04
5.65138888888889e+00 2.21469836771844e-02 1.58344040526622e-04
5.82527777777778e+00 2.17264813175651e-02 1.57710106234841e-04
5.99916666666667e+00 2.13139629902282e-02 1.57008640228005e-04
6.17305555555556e+00 2.09092771032327e-02 1.56244555468870e-04
6.34694444444444e+00 2.05122749428963e-02 1.55422433922170e-04
6.52083333333333e+00 2.01228106191440e-02 1.54546554348615e-04
6.69472222222222e+00 1.97407410119019e-02 1.53620917076227e-04
6.86861111111111e+00 1.93659257185012e-02 1.52649266155771e-04
7.04250000000000e+00 1.89982270020824e-02 1.51635109189851e-04
7.21638888888889e+00 1.86375097414813e-02 1.50581735385289e-04
7.39027777777778e+00 1.82836413800429e-02 1.49492231605085e-04
7.56416666666667e+00 1.79364918784718e-02 1.48369496888390e-04
7.73805555555556e+00 1.75959336665141e-02 1.47216255895253e-04
7.91194444444444e+00 1.72618415960780e-02 1.46035070936585e-04
8.08583333333333e+00 1.69340928952430e-02 1.44828352999053e-04
8.25972222222222e+00 1.66125671231471e-02 1.43598371825803e-04
8.43361111111111e+00 1.62971461257255e-02 1.42347265153788e-04
8.60750000000000e+00 1.59877139922915e-02 1.41077047155677e-04
8.78138888888889e+00 1.56841570132871e-02 1.39789616361304e-04
8.95527777777778e+00 1.53863636374421e-02 1.38486762768839e-04
9.12916666666667e+00 1.50942244318557e-02 1.37170174401824e-04
9.30305555555556e+00 1.48076320414177e-02 1.35841443575624e-04
9.47694444444445e+00 1.45264811493574e-02 1.34502072543655e-04
9.65083333333333e+00 1.42506684385411e-02 1.33153478774867e-04
9.82472222222222e+00 1.39800925535070e-02 1.31796999857346e-04
9.99861111111111e+00 1.37146540632182e-02 1.30433898186802e-04
1.01725000000000e+01 1.34542554234904e-02 1.29065364561412e-04
1.03463888888889e+01 1.31988009465181e-02 1.27692523263399e-04
1.05202777777778e+01 1.29481967554972e-02 1.26316435409765e-04
1.06941666666667e+01 1.27023507585980e-02 1.24938101435026e-04
1.08680555555556e+01 1.24611726125270e-02 1.23558465406958e-04
1.10419444444444e+01 1.22245736893278e-02 1.22178417736076e-04
1.12158333333333e+01 1.19924670438070e-02 1.20798798023442e-04
1.13897222222222e+01 1.17647673815948e-02 1.19420397735992e-04
1.15636111111111e+01 1.15413910277954e-02 1.18043962722295e-04
1.17375000000000e+01 1.13222558962382e-02 1.16670195339648e-04
1.19113888888889e+01 1.11072814611111e-02 1.15299757402353e-04
1.20852777777778e+01 1.08963887218842e-02 1.13933271793885e-04
1.22591666666667e+01 1.06895001798567e-02 1.12571323942766e-04
1.24330555555556e+01 1.04865398077867e-02 1.11214464450243e-04
1.26069444444444e+01 1.02874330219524e-02 1.09863210596219e-04
1.27808333333333e+01 1.00921066547406e-02 1.08518048004094e-04
1.29547222222222e+01 9.90048892776703e-03 1.07179432216000e-04
1.31286111111111e+01 9.71250942549504e-03 1.05847790184256e-04
1.33025000000000e+01 9.52809906935946e-03 1.04523521494399e-04
1.34763888888889e+01 9.34719009371782e-03 1.03207000272411e-04
1.36502777777778e+01 9.16971601687441e-03 1.01898576067855e-04
1.38241666666667e+01 8.99561162079054e-03 1.00598574658157e-04
1.39980555555556e+01 8.82481292571476e-03 9.93072997899992e-05
1.41719444444444e+01 8.65725716667172e-03 9.80250340583926e-05
1.43458333333333e+01 8.49288277039501e-03 9.67520399336733e-05
1.45197222222222e+01 8.33162933270520e-03 9.54885607379409e-05
1.46936111111111e+01 8.17343759631000e-03 9.42348215739054e-05
1.48675000000000e+01 8.01824942902844e-03 9.29910300577478e-05
1.50413888888889e+01 7.86600780343513e-03 9.17573776128080e-05
1.52152777777778e+01 7.71665677283607e-03 9.05340399630512e-05
1.53891666666667e+01 7.57014145382679e-03 8.93211775773496e-05
1.55630555555556e+01 7.42640800506765e-03 8.81189368723918e-05
1.57369444444444e+01 7.28540360749832e-03 8.69274507409506e-05
1.59108333333333e+01 7.14707644492631e-03 8.57468392087378e-05
1.60847222222222e+01 7.01137568498892e-03 8.45772100609774e-05
1.62586111111111e+01 6.87825146047169e-03 8.34186594402978e-05
1.64325000000000e+01 6.74765485098323e-03 8.22712722966063e-05
1.66063888888889e+01 6.61953786574476e-03 8.11351232940467e-05
1.67802777777778e+01 6.49385342361833e-03 8.00102770850232e-05
1.69541666666667e+01 6.37055533817870e-03 7.88967885518037e-05
1.71280555555556e+01 6.24959829993694e-03 7.77947036619501e-05
1.73019444444444e+01 6.13093785969025e-03 7.67040597898557e-05
1.74758333333333e+01 6.01453041218664e-03 7.56248861469283e-05
1.76497222222222e+01 5.90033318010327e-03 7.45572041928118e-05
1.78236111111111e+01 5.78830419832543e-03 7.35010280285532e-05
1.79975000000000e+01 5.67840229852529e-03 7.24563646755222e-05
1.81713888888889e+01 5.57058709462270e-03 7.14232147263047e-05
1.83452777777778e+01 5.46481896614897e-03 7.04015724908052e-05
1.85191666666667e+01 5.36105904551031e-03 6.93914261200835e-05
1.86930555555556e+01 5.25926920308755e-03 6.83927582274116e-05
1.88669444444444e+01 5.15941203322425e-03 6.74055460834582e-05
1.90408333333333e+01 5.06145084048014e-03 6.64297619020484e-05
1.92147222222222e+01 4.96534962614797e-03 6.54653731136377e-05
1.93886111111111e+01 4.87107307502384e-03 6.45123426270675e-05
1.95625000000000e+01 4.77858654242966e-03 6.35706290018384e-05
1.97363888888889e+01 4.68785604193830e-03 6.26401869231685e-05
1.99102777777778e+01 4.59884823149434e-03 6.17209672720116e-05
2.00841666666667e+01 4.51153040257288e-03 6.08129171793187e-05
2.02580555555556e+01 4.42587046768209e-03 5.99159804837694e-05
2.04319444444444e+01 4.34183694857171e-03 5.90300978477742e-05
2.06058333333333e+01 4.25939896466490e-03 5.81552069484894e-05
2.07797222222222e+01 4.17852622171149e-03 5.72912426606949e-05
2.09536111111111e+01 4.09918900065476e-03 5.64381372318758e-05
2.11275000000000e+01 4.02135814671042e-03 5.55958203864918e-05
2.13013888888889e+01 3.94500505900849e-03 5.47642196769795e-05
2.14752777777778e+01 3.87010167899991e-03 5.39432605082282e-05
2.16491666666667e+01 3.79662048124524e-03 5.31328661506473e-05
2.18230555555556e+01 3.72453446292745e-03 5.23329580812613e-05
2.19969444444444e+01 3.65381713392898e-03 5.15434560493375e-05
2.21708333333333e+01 3.58444250709672e-03 5.07642782039396e-05
2.23447222222222e+01 3.51638508869317e-03 4.99953412159874e-05
2.25186111111111e+01 3.44961986902755e-03 4.92365603950627e-05
2.26925000000000e+01 3.38412231326526e-03 4.84878497497523e-05
2.28663888888889e+01 3.31986835269065e-03 4.77491222493018e-05
2.30402777777778e+01 3.25683437501349e-03 4.70202898210698e-05
2.32141666666667e+01 3.19499721655343e-03 4.63012633395779e-05
2.33880555555556e+01 3.13433415343633e-03 4.55919528827575e-05
2.35619444444444e+01 3.07482289324369e-03 4.48922677653212e-05
2.37358333333333e+01 3.01644156682039e-03 4.42021166231839e-05
2.39097222222222e+01 2.95916872023879e-03 4.35214074941449e-05
2.40836111111111e+01 2.90298330691460e-03 4.28500478949794e-05
2.42575000000000e+01 2.84786467987264e-03 4.21879448532493e-05
2.44313888888889e+01 2.79379258437908e-03 4.15350051036138e-05
2.46052777777778e+01 2.74074714982997e-03 4.08911350697093e-05
2.47791666666667e+01 2.68870888312738e-03 4.02562408397549e-05
2.49530555555556e+01 2.63765866128669e-03 3.96302283601993e-05
2.51269444444444e+01 2.58757772440920e-03 3.90130034484961e-05
2.53008333333333e+01 2.53844766878813e-03 3.84044718479451e-05
2.54747222222222e+01 2.49025044014603e-03 3.78045392799681e-05
2.56486111111111e+01 2.44296832700001e-03 3.72131114939216e-05
2.58225000000000e+01 2.39658395415313e-03 3.66300942804366e-05
2.59963888888889e+01 2.35108027648293e-03 3.60553936193623e-05
2.61702777777778e+01 2.30644057214942e-03 3.54889156532308e-05
2.63441666666667e+01 2.26264843698623e-03 3.49305666559882e-05
2.65180555555556e+01 2.21968777829109e-03 3.43802531799529e-05
2.66919444444444e+01 2.17754280891203e-03 3.38378820556158e-05
2.68658333333333e+01 2.13619804144585e-03 3.33033604261061e-05
2.70397222222222e+01 2.09563828254710e-03 3.27765957798917e-05
2.72136111111111e+01 2.05584862734468e-03 3.22574959817921e-05
2.73875000000000e+01 2.01681445396463e-03 3.17459692745070e-05
2.75613888888889e+01 1.97852141829461e-03 3.12419243904336e-05
2.77352777777778e+01 1.94095544829355e-03 3.07452705212045e-05
2.79091666666667e+01 1.90410273924580e-03 3.02559172836278e-05
2.80830555555556e+01 1.86794974854430e-03 2.97737748315298e-05
2.82569444444444e+01 1.83248319071398e-03 2.92987538476106e-05
2.84308333333333e+01 1.79769003252947e-03 2.88307655638758e-05
2.86047222222222e+01 1.76355748822592e-03 2.83697217808621e-05
2.87786111111111e+01 1.73007301480040e-03 2.79155348857050e-05
2.89525000000000e+01 1.69722430740254e-03 2.74681178463064e-05
2.91263888888889e+01 1.66499929492250e-03 2.70273842959824e-05
2.93002777777778e+01 1.63338613522130e-03 2.65932485018687e-05
2.94741666666667e+01 1.60237321111768e-03 2.61656253305757e-05
2.96480555555556e+01 1.57194912600450e-03 2.57444303334526e-05
2.98219444444444e+01 1.54210269966075e-03 2.53295797338334e-05
2.99958333333333e+01 1.51282296414292e-03 2.49209904378506e-05
3.01697222222222e+01 1.48409915975475e-03 2.45185800444338e-05
3.03436111111111e+01 1.45592073109311e-03 2.41222668545246e-05
3.05175000000000e+01 1.42827732316914e-03 2.37319698608622e-05
3.06913888888889e+01 1.40115877769059e-03 2.33476088120940e-05
3.08652777777778e+01 1.37455512906234e-03 2.29691041817553e-05
3.10391666666667e+01 1.34845660099465e-03 2.25963771351364e-05
3.12130555555556e+01 1.32285360281907e-03 2.22293495943324e-05
3.13869444444444e+01 1.29773672596412e-03 2.18679442230868e-05
3.15608333333333e+01 1.27309674049774e-03 2.15120844310863e-05
3.17347222222222e+01 1.24892459173567e-03 2.11616943777114e-05
3.19086111111111e+01 1.22521139691390e-03 2.08166989752668e-05
3.20825000000000e+01 1.20194844192448e-03 2.04770238763878e-05
3.22563888888889e+01 1.17912717818339e-03 2.01425955225644e-05
3.24302777777778e+01 1.15673921927575e-03 1.98133411146969e-05
3.26041666666667e+01 1.13477633809042e-03 1.94891885820265e-05
3.27780555555556e+01 1.11323046372347e-03 1.91700666317536e-05
3.29519444444444e+01 1.09209367851237e-03 1.88559047329294e-05
3.31258333333333e+01 1.07135821512627e-03 1.85466331164113e-05
3.32997222222222e+01 1.05101645371188e-03 1.82421827744638e-05
3.34736111111111e+01 1.03106091909317e-03 1.79424854600279e-05
3.36475000000000e+01 1.01148427802447e-03 1.76474736730738e-05
3.38213888888889e+01 9.92279336551889e-04 1.73570806972648e-05
3.39952777777778e+01 9.73439037198528e-04 1.70712405726404e-05
3.41691666666667e+01 9.54956456544607e-04 1.67898880670382e-05
3.43430555555556e+01 9.36824802624547e-04 1.65129587139023e-05
3.45169444444444e+01 9.19037412431072e-04 1.62403887961596e-05
3.46908333333333e+01 9.01587749466642e-04 1.59721153433701e-05
3.48647222222222e+01 8.84469401341517e-04 1.57080761286595e-05
3.50386111111111e+01 8.67676077417289e-04 1.54482096654452e-05
3.52125000000000e+01 8.51201606495206e-04 1.51924551936095e-05
3.53863888888889e+01 8.35039934593622e-04 1.49407527071248e-05
3.55602777777778e+01 8.19185122585653e-04 1.46930429291111e-05
3.57341666666667e+01 8.03631344156260e-04 1.44492672859183e-05
3.59080555555556e+01 7.88372883614008e-04 1.42093679358803e-05
3.60819444444444e+01 7.73404133790657e-04 1.39732877537615e-05
3.62558333333333e+01 7.58719593980621e-04 1.37409703261814e-05
3.64297222222222e+01 7.44313867919635e-04 1.35123599469149e-05
3.66036111111111e+01 7.30181661801704e-04 1.32874016120759e-05
3.67775000000000e+01 7.16317782333747e-04 1.30660410066654e-05
3.69513888888889e+01 7.02717134863612e-04 1.28482245253022e-05
3.71252777777778e+01 6.89374721397007e-04 1.26338992497191e-05
3.72991666666667e+01 6.76285638873310e-04 1.24230129255030e-05
3.74730555555556e+01 6.63445077325770e-04 1.22155139838994e-05
3.76469444444444e+01 6.50848318113939e-04 1.20113515271798e-05
3.78208333333333e+01 6.38490732189650e-04 1.18104753230934e-05
3.79947222222222e+01 6.26367778395990e-04 1.16128357992595e-05
3.81686111111111e+01 6.14475001798487e-04 1.14183840375040e-05
3.83425000000000e+01 6.02808032048019e-04 1.12270717611198e-05
3.85163888888889e+01 5.91362581804225e-04 1.10388513503422e-05
3.86902777777778e+01 5.80134445070481e-04 1.08536758222284e-05
3.88641666666667e+01 5.69119495739067e-04 1.06714988099500e-05
3.90380555555556e+01 5.58313686044212e-04 1.04922745792646e-05
3.92119444444444e+01 5.47713045074627e-04 1.03159580149925e-05
3.93858333333333e+01 5.37313677314258e-04 1.01425046150154e-05
3.95597222222222e+01 5.27111761210804e-04 9.97187048425841e-06
3.97336111111111e+01 5.17103547771354e-04 9.80401232866036e-06
3.99075000000000e+01 5.07285359184711e-04 9.63888744333880e-06
4.00813888888889e+01 4.97653587493671e-04 9.47645372405939e-06
4.02552777777778e+01 4.88204693196785e-04 9.31666964937450e-06
4.04291666666667e+01 4.78935204021072e-04 9.15949426230702e-06
4.06030555555556e+01 4.69841713621216e-04 9.00488718272992e-06
4.07769444444444e+01 4.60920880327799e-04 8.85280859503225e-06
4.09508333333333e+01 4.52169425919301e-04 8.70321924201851e-06
4.11247222222222e+01 4.43584134417444e-04 8.55608041881992e-06
4.12986111111111e+01 4.35161850905376e-04 8.41135396682069e-06
4.14725000000000e+01 4.26899480368303e-04 8.26900226281889e-06
4.16463888888889e+01 4.18793986575404e-04 8.12898822744957e-06
4.18202777777778e+01 4.10842390905467e-04 7.99127530941962e-06
4.19941666666667e+01 4.03041771311743e-04 7.85582746938874e-06
4.21680555555556e+01 3.95389261228062e-04 7.72260918921412e-06
4.23419444444444e+01 3.87882048515430e-04 7.59158546081665e-06
4.25158333333333e+01 3.80517374428611e-04 7.46272178021266e-06
4.26897222222222e+01 3.73292532602377e-04 7.33598414157811e-06
4.28636111111111e+01 3.66204868056955e-04 7.21133903134539e-06
4.30375000000000e+01 3.59251776222380e-04 7.08875341838331e-06
4.32113888888889e+01 3.52430701996998e-04 6.96819476010943e-06
4.33852777777778e+01 3.45739138760984e-04 6.84963098863874e-06
4.35591666666667e+01 3.39174627503412e-04 6.73303049666014e-06
4.37330555555556e+01 3.32734755902324e-04 6.61836214428286e-06
4.39069444444444e+01 3.26417157438253e-04 6.50559524906554e-06
4.40808333333333e+01 3.20219510524566e-04 6.39469958033105e-06
4.42547222222222e+01 3.14139537654350e-04 6.28564535352446e-06
4.44286111111111e+01 3.08175004563465e-04 6.17840322461444e-06
4.46025000000000e+01 3.02323719409495e-04 6.07294428127204e-06
4.47763888888889e+01 2.96583531978989e-04 5.96924004723643e-06
4.49502777777778e+01 2.90952332858695e-04 5.86726247019358e-06
4.51241666666667e+01 2.85428052699539e-04 5.76698390944316e-06
4.52980555555556e+01 2.80008661442948e-04 5.66837714091565e-06
4.54719444444444e+01 2.74692167574848e-04 5.57141534830171e-06
4.56458333333333e+01 2.69476617393815e-04 5.47607211773821e-06
4.58197222222222e+01 2.64360094293146e-04 5.38232143254289e-06
4.59936111111111e+01 2.59340718056539e-04 5.29013766799804e-06
4.61675000000000e+01 2.54416644167152e-04 5.19949558348287e-06
4.63413888888889e+01 2.49586063140097e-04 5.11037032552432e-06
4.65152777777778e+01 2.44847199826115e-04 5.02273741722340e-06
4.66891666666667e+01 2.40198312791058e-04 4.93657274751894e-06
4.68630555555556e+01 2.35637693665199e-04 4.85185257481326e-06
4.70369444444444e+01 2.31163666515437e-04 4.76855351912249e-06
4.72108333333333e+01 2.26774587229422e-04 4.68665255718007e-06
4.73847222222222e+01 2.22468842911392e-04 4.60612701759128e-06
4.75586111111111e+01 2.18244851289456e-04 4.52695457603878e-06
4.77325000000000e+01 2.14101060134149e-04 4.44911324830374e-06
4.79063888888889e+01 2.10035946696410e-04 4.37258139233429e-06
4.80802777777778e+01 2.06048017122468e-04 4.29733769904796e-06
4.82541666666667e+01 2.02135805930775e-04 4.22336118300835e-06
4.84280555555556e+01 1.98297875464720e-04 4.15063118499801e-06
4.86019444444444e+01 1.94532815364319e-04 4.07912736510326e-06
4.87758333333333e+01 1.90839242047934e-04 4.00882969825213e-06
4.89497222222222e+01 1.87215798203842e-04 3.93971846980308e-06
4.91236111111111e+01 1.83661152291451e-04 3.87177427118457e-06
4.92975000000000e+01 1.80173998051981e-04 3.80497799373465e-06
4.94713888888889e+01 1.76753054035288e-04 3.73931083003996e-06
4.96452777777778e+01 1.73397063108145e-04 3.67475426595385e-06
4.98191666666667e+01 1.70104792013370e-04 3.61129007251812e-06
4.99930555555556e+01 1.66875030909499e-04 3.54890030774356e-06
5.01669444444444e+01 1.63706592926197e-04 3.48756731054064e-06
5.03408333333333e+01 1.60598313728099e-04 3.42727369668931e-06
5.05147222222222e+01 1.57549051086953e-04 3.36800235485793e-06
5.06886111111111e+01 1.54557684461868e-04 3.30973644267101e-06
5.08625000000000e+01 1.51623114587539e-04 3.25245938129254e-06
5.10363888888889e+01 1.48744263075874e-04 3.19615485622920e-06
5.12102777777778e+01 1.45920072002731e-04 3.14080681041792e-06
5.13841666666667e+01 1.43149503536361e-04 3.08639943723993e-06
5.15580555555556e+01 1.40431539550215e-04 3.03291718170847e-06
5.17319444444444e+01 1.37765181248800e-04 2.98034473515942e-06
5.19058333333333e+01 1.35149448800638e-04 2.92866703163737e-06
5.20797222222222e+01 1.32583380978210e-04 2.87786924432785e-06
5.22536111111111e+01 1.30066034804716e-04 2.82793678203578e-06
5.24275000000000e+01 1.27596485207552e-04 2.77885528443906e-06
5.26013888888889e+01 1.25173824682925e-04 2.73061062250301e-06
5.27752777777778e+01 1.22797162948501e-04 2.68318889250503e-06
5.29491666666667e+01 1.20465626630299e-04 2.63657641000302e-06
5.31230555555556e+01 1.18178358936991e-04 2.59075971058405e-06
5.32969444444444e+01 1.15934519345055e-04 2.54572554523283e-06
5.34708333333333e+01 1.13733283289892e-04 2.50146087711013e-06
5.36447222222222e+01 1.11573841862823e-04 2.45795287837420e-06
5.38186111111111e+01 1.09455401513829e-04 2.41518892704495e-06
5.39925000000000e+01 1.07377183759939e-04 2.37315660285719e-06
5.41663888888889e+01 1.05338424902875e-04 2.33184368739798e-06
5.43402777777778e+01 1.03338375737087e-04 2.29123815894921e-06
5.45141666666667e+01 1.01376301285912e-04 2.25132818728783e-06
5.46880555555556e+01 9.94514805276122e-05 2.21210213411291e-06
5.48619444444444e+01 9.75632061304064e-05 2.17354854901505e-06
