Energy (eV)          EEDF (eV^-(3/2))     First Anisotropy
1.29000000000000e-02 4.79850096474710e+00 7.55599662877097e-03
3.87000000000000e-02 4.47695105028783e+00 1.20997267410940e-02
6.45000000000000e-02 4.17694835406369e+00 1.50035290137593e-02
9.03000000000000e-02 3.89704898636174e+00 1.66890972114491e-02
1.16100000000000e-01 3.63590581323035e+00 1.77100018052732e-02
1.41900000000000e-01 3.39226197282785e+00 1.82954300755813e-02
1.67700000000000e-01 3.16494482624401e+00 1.85729101369562e-02
1.93500000000000e-01 2.95286031367986e+00 1.86239531666386e-02
2.19300000000000e-01 2.75498768882276e+00 1.85049724953536e-02
2.45100000000000e-01 2.57037460607351e+00 1.82570379254683e-02
2.70900000000000e-01 2.39813253698085e+00 1.79110887946462e-02
2.96700000000000e-01 2.23743249382295e+00 1.74909979563361e-02
3.22500000000000e-01 2.08750103975373e+00 1.70155038045441e-02
3.48300000000000e-01 1.94761656631135e+00 1.64994962097629e-02
3.74100000000000e-01 1.81710582037263e+00 1.59549097928707e-02
3.99900000000000e-01 1.69534066383795e+00 1.53913661891117e-02
4.25700000000000e-01 1.58173505045134e+00 1.48166490411843e-02
4.51500000000000e-01 1.47574220520521e+00 1.42370635782461e-02
4.77300000000000e-01 1.37685199275474e+00 1.36577141781789e-02
5.03100000000000e-01 1.28458846217595e+00 1.30827221565148e-02
5.28900000000000e-01 1.19850755625083e+00 1.25153990339914e-02
5.54700000000000e-01 1.11819497425439e+00 1.19583860103395e-02
5.80500000000000e-01 1.04326417795743e+00 1.14137673608169e-02
6.06300000000000e-01 9.73354531247942e-01 1.08831634176064e-02
6.32100000000000e-01 9.08129564417538e-01 1.03678073650805e-02
6.57900000000000e-01 8.47275354758803e-01 9.86860905807373e-03
6.83700000000000e-01 7.90499015679652e-01 9.38620833333182e-03
7.09500000000000e-01 7.37527287062880e-01 8.92101974003844e-03
7.35300000000000e-01 6.88105220086403e-01 8.47327020843869e-03
7.61100000000000e-01 6.41994950174350e-01 8.04303086723550e-03
7.86900000000000e-01 5.98974552173304e-01 7.63024398383917e-03
8.12700000000000e-01 5.58836972243748e-01 7.23474581791584e-03
8.38500000000000e-01 5.21389031325994e-01 6.85628603464723e-03
8.64300000000000e-01 4.86450495384344e-01 6.49454421004233e-03
8.90100000000000e-01 4.53853207954657e-01 6.14914386949114e-03
9.15900000000000e-01 4.23440280820326e-01 5.81966442731313e-03
9.41700000000000e-01 3.95065338921456e-01 5.50565133543783e-03
9.67500000000000e-01 3.68591815863053e-01 5.20662470061957e-03
9.93300000000000e-01 3.43892296631553e-01 4.92208658949107e-03
1.01910000000000e+00 3.20847904356247e-01 4.65152720757184e-03
1.04490000000000e+00 2.99347728164115e-01 4.39443011072705e-03
1.07070000000000e+00 2.79288289374399e-01 4.15027658446984e-03
1.09650000000000e+00 2.60573043463734e-01 3.91854930708478e-03
1.12230000000000e+00 2.43111915404846e-01 3.69873539616533e-03
1.14810000000000e+00 2.26820866142429e-01 3.49032892427454e-03
1.17390000000000e+00 2.11621488119690e-01 3.29283297763288e-03
1.19970000000000e+00 1.97440627908857e-01 3.10576132166366e-03
1.22550000000000e+00 1.84210034129406e-01 2.92863972860660e-03
1.25130000000000e+00 1.71866028959457e-01 2.76100701501204e-03
1.27710000000000e+00 1.60349201659356e-01 2.60241583056307e-03
1.30290000000000e+00 1.49604122632391e-01 2.45243323418409e-03
1.32870000000000e+00 1.39579076646445e-01 2.31064108865040e-03
1.35450000000000e+00 1.30225813932591e-01 2.17663630080677e-03
1.38030000000000e+00 1.21499317962694e-01 2.05003093094032e-03
1.40610000000000e+00 1.13357588788358e-01 1.93045219175916e-03
1.43190000000000e+00 1.05761440898426e-01 1.81754235473666e-03
1.45770000000000e+00 9.86743146221540e-02 1.71095857923776e-03
1.48350000000000e+00 9.20621001703539e-02 1.61037267780003e-03
1.50930000000000e+00 8.58929734676201e-02 1.51547082916012e-03
1.53510000000000e+00 8.01372429855238e-02 1.42595324905925e-03
1.56090000000000e+00 7.47672068395892e-02 1.34153382750182e-03
1.58670000000000e+00 6.97570194622708e-02 1.26193973995223e-03
1.61250000000000e+00 6.50825672102420e-02 1.18691103891652e-03
1.63830000000000e+00 6.07213523072991e-02 1.11620023144606e-03
1.66410000000000e+00 5.66523845643093e-02 1.04957184730656e-03
1.68990000000000e+00 5.28560803550580e-02 9.86802001860536e-04
1.71570000000000e+00 4.93141683617747e-02 9.27677957104527e-04
1.74150000000000e+00 4.60096016366968e-02 8.71997683771809e-04
1.76730000000000e+00 4.29264755564328e-02 8.19569426948189e-04
1.79310000000000e+00 4.00499512742427e-02 7.70211277244497e-04
1.81890000000000e+00 3.73661843018195e-02 7.23750749217297e-04
1.84470000000000e+00 3.48622578768403e-02 6.80024368422821e-04
1.87050000000000e+00 3.25261207955915e-02 6.38877268222781e-04
1.89630000000000e+00 3.03465294114592e-02 6.00162797229527e-04
1.92210000000000e+00 2.83129935201303e-02 5.63742138077821e-04
1.94790000000000e+00 2.64157258710526e-02 5.29483938037652e-04
1.97370000000000e+00 2.46455950621567e-02 4.97263951833370e-04
1.99950000000000e+00 2.29940815911260e-02 4.66964696906527e-04
2.02530000000000e+00 2.14532368516929e-02 4.38475121250262e-04
2.05110000000000e+00 2.00156448776128e-02 4.11690283849727e-04
2.07690000000000e+00 1.86743866501943e-02 3.86511047683969e-04
2.10270000000000e+00 1.74230067975979e-02 3.62843785178004e-04
2.12850000000000e+00 1.62554825256328e-02 3.40600095938098e-04
2.15430000000000e+00 1.51661946305148e-02 3.19696536557040e-04
2.18010000000000e+00 1.41499004540748e-02 3.00054362238304e-04
2.20590000000000e+00 1.32017086512512e-02 2.81599279957362e-04
2.23170000000000e+00 1.23170556484255e-02 2.64261212854097e-04
2.25750000000000e+00 1.14916836792964e-02 2.47974075531432e-04
2.28330000000000e+00 1.07216202925810e-02 2.32675559921198e-04
2.30910000000000e+00 1.00031592329143e-02 2.18306931368285e-04
2.33490000000000e+00 9.33284260293001e-03 2.04812834577688e-04
2.36070000000000e+00 8.70744422066839e-03 1.92141109065615e-04
2.38650000000000e+00 8.12395409221282e-03 1.80242613754998e-04
2.41230000000000e+00 7.57956392482239e-03 1.69071060357133e-04
2.43810000000000e+00 7.07165361083678e-03 1.58582855184364e-04
2.46390000000000e+00 6.59777861730122e-03 1.48736949043537e-04
2.48970000000000e+00 6.15565822061896e-03 1.39494694865978e-04
2.51550000000000e+00 5.74316452960547e-03 1.30819712736929e-04
2.54130000000000e+00 5.35831224411316e-03 1.22677761995326e-04
2.56710000000000e+00 4.99924909993575e-03 1.15036620083505e-04
2.59290000000000e+00 4.66424695400423e-03 1.07865967835613e-04
2.61870000000000e+00 4.35169346696834e-03 1.01137280903126e-04
2.64450000000000e+00 4.06008434313226e-03 9.48237270257622e-05
2.67030000000000e+00 3.78801609039611e-03 8.89000688661458e-05
2.69610000000000e+00 3.53417926535730e-03 8.33425721367816e-05
2.72190000000000e+00 3.29735217106096e-03 7.81289187580761e-05
2.74770000000000e+00 3.07639497706726e-03 7.32381247963361e-05
2.77350000000000e+00 2.87024423353585e-03 6.86504629407447e-05
2.79930000000000e+00 2.67790775292430e-03 6.43473892882772e-05
2.82510000000000e+00 2.49845983466638e-03 6.03114742152972e-05
2.85090000000000e+00 2.33103680984697e-03 5.65263371241570e-05
2.87670000000000e+00 2.17483288443062e-03 5.29765848624990e-05
2.90250000000000e+00 2.02909626103731e-03 4.96477536220616e-05
2.92830000000000e+00 1.89312552059994e-03 4.65262541326598e-05
2.95410000000000e+00 1.76626624648878e-03 4.35993199756017e-05
2.97990000000000e+00 1.64790787485497e-03 4.08549588491146e-05
3.00570000000000e+00 1.53748075603408e-03 3.82819066263788e-05
3.03150000000000e+00 1.43445341286639e-03 3.58695840545111e-05
3.05730000000000e+00 1.33832998273861e-03 3.36080559502940e-05
3.08310000000000e+00 1.24864783103553e-03 3.14879927556069e-05
3.10890000000000e+00 1.16497532451550e-03 2.95006343224004e-05
3.13470000000000e+00 1.08690975389311e-03 2.76377558036510e-05
3.16050000000000e+00 1.01407539563063e-03 2.58916355330535e-05
3.18630000000000e+00 9.46121703609764e-04 2.42550247822565e-05
3.21210000000000e+00 8.82721621980359e-04 2.27211192902344e-05
3.23790000000000e+00 8.23570011065957e-04 2.12835324649069e-05
3.26370000000000e+00 7.68382178750203e-04 1.99362701623948e-05
3.28950000000000e+00 7.16892510275759e-04 1.86737069543268e-05
3.31530000000000e+00 6.68853189861079e-04 1.74905637984044e-05
3.34110000000000e+00 6.24033007982267e-04 1.63818870319950e-05
3.36690000000000e+00 5.82216248579570e-04 1.53430286128676e-05
3.39270000000000e+00 5.43201650832708e-04 1.43696275353146e-05
3.41850000000000e+00 5.06801440508153e-04 1.34575923538306e-05
3.44430000000000e+00 4.72840426216306e-04 1.26030847502487e-05
3.47010000000000e+00 4.41155156228925e-04 1.18025040837789e-05
3.49590000000000e+00 4.11593131798627e-04 1.10524728667511e-05
3.52170000000000e+00 3.84012073194248e-04 1.03498231120590e-05
3.54750000000000e+00 3.58279234919529e-04 9.69158350132085e-06
3.57330000000000e+00 3.34270766819332e-04 9.07496732564148e-06
3.59910000000000e+00 3.11871117998454e-04 8.49736115357526e-06
3.62490000000000e+00 2.90972480684125e-04 7.95631418346006e-06
3.65070000000000e+00 2.71474271355557e-04 7.44952823972792e-06
3.67650000000000e+00 2.53282646643263e-04 6.97484837510152e-06
3.70230000000000e+00 2.36310051668189e-04 6.53025404276597e-06
3.72810000000000e+00 2.20474798646881e-04 6.11385080466602e-06
3.75390000000000e+00 2.05700673734507e-04 5.72386254402846e-06
3.77970000000000e+00 1.91916570213539e-04 5.35862415205183e-06
3.80550000000000e+00 1.79056146262634e-04 5.01657466044538e-06
3.83130000000000e+00 1.67057505658592e-04 4.69625079314476e-06
3.85710000000000e+00 1.55862899874632e-04 4.39628091208392e-06
3.88290000000000e+00 1.45418450141214e-04 4.11537933336962e-06
3.90870000000000e+00 1.35673888131698e-04 3.85234099158853e-06
3.93450000000000e+00 1.26582314024783e-04 3.60603643128347e-06
3.96030000000000e+00 1.18099970779310e-04 3.37540710586743e-06
3.98610000000000e+00 1.10186033535009e-04 3.15946096540663e-06
4.01190000000000e+00 1.02802413125619e-04 2.95726831580024e-06
4.03770000000000e+00 9.59135727586795e-05 2.76795793291825e-06
4.06350000000000e+00 8.94863569797079e-05 2.59071341623325e-06
4.08930000000000e+00 8.34898320975647e-05 2.42476976740094e-06
4.11510000000000e+00 7.78951373029993e-05 2.26941018010945e-06
4.14090000000000e+00 7.26753457638118e-05 2.12396302833341e-06
4.16670000000000e+00 6.78053350280984e-05 1.98779904089700e-06
4.19250000000000e+00 6.32616661118384e-05 1.86032865097411e-06
4.21830000000000e+00 5.90224706888814e-05 1.74099950983505e-06
4.24410000000000e+00 5.50673458403897e-05 1.62929415479137e-06
4.26990000000000e+00 5.13772558571718e-05 1.52472782189416e-06
4.29570000000000e+00 4.79344406222904e-05 1.42684639451055e-06
4.32150000000000e+00 4.47223301329969e-05 1.33522447943773e-06
4.34730000000000e+00 4.17254647505928e-05 1.24946360271825e-06
4.37310000000000e+00 3.89294207943878e-05 1.16919051779392e-06
4.39890000000000e+00 3.63207411216427e-05 1.09405561908181e-06
4.42470000000000e+00 3.38868703593856e-05 1.02373145447540e-06
4.45050000000000e+00 3.16160944763748e-05 9.57911330668330e-07
4.47630000000000e+00 2.94974844043751e-05 8.96308005569467e-07
4.50210000000000e+00 2.75208434373998e-05 8.38652462427055e-07
4.52790000000000e+00 2.56766581557556e-05 7.84692760607592e-07
4.55370000000000e+00 2.39560526386913e-05 7.34192958283821e-07
4.57950000000000e+00 2.23507457452794e-05 6.86932102576043e-07
4.60530000000000e+00 2.08530112579271e-05 6.42703282963711e-07
4.63110000000000e+00 1.94556406966903e-05 6.01312744040344e-07
4.65690000000000e+00 1.81519086254183e-05 5.62579053925595e-07
4.68270000000000e+00 1.69355402827514e-05 5.26332324874596e-07
4.70850000000000e+00 1.58006813821808e-05 4.92413482837262e-07
4.73430000000000e+00 1.47418699358220e-05 4.60673582919923e-07
4.76010000000000e+00 1.37540099662903e-05 4.30973167889338e-07
4.78590000000000e+00 1.28323469801571e-05 4.03181667035342e-07
4.81170000000000e+00 1.19724450849413e-05 3.77176832873939e-07
4.83750000000000e+00 1.11701656395033e-05 3.52844213328124e-07
4.86330000000000e+00 1.04216473350859e-05 3.30076657169715e-07
4.88910000000000e+00 9.72328761113453e-06 3.08773850642594e-07
4.91490000000000e+00 9.07172531645286e-06 2.88841883316490e-07
4.94070000000000e+00 8.46382453224267e-06 2.70192841341288e-07
4.96650000000000e+00 7.89665947916988e-06 2.52744426385360e-07
4.99230000000000e+00 7.36750043581547e-06 2.36419598647919e-07
5.01810000000000e+00 6.87380060073798e-06 2.21146242435395e-07
5.04390000000000e+00 6.41318383491565e-06 2.06856852885685e-07
5.06970000000000e+00 5.98343322557360e-06 1.93488242512243e-07
5.09550000000000e+00 5.58248041635454e-06 1.80981266322624e-07
5.12130000000000e+00 5.20839565248001e-06 1.69280564343701e-07
5.14710000000000e+00 4.85937849299027e-06 1.58334320458570e-07
5.17290000000000e+00 4.53374914536162e-06 1.48094036528482e-07
5.19870000000000e+00 4.22994038079519e-06 1.38514320837211e-07
5.22450000000000e+00 3.94648999126629e-06 1.29552689955444e-07
5.25030000000000e+00 3.68203375203059e-06 1.21169383179156e-07
5.27610000000000e+00 3.43529885571619e-06 1.13327188748899e-07
5.30190000000000e+00 3.20509778640043e-06 1.05991281106532e-07
5.32770000000000e+00 2.99032260418791e-06 9.91290684925338e-08
5.35350000000000e+00 2.78993961278159e-06 9.27100502306896e-08
5.37930000000000e+00 2.60298438438274e-06 8.67056830879208e-08
5.40510000000000e+00 2.42855711797474e-06 8.10892561354387e-08
5.43090000000000e+00 2.26581830865050e-06 7.58357735734434e-08
5.45670000000000e+00 2.11398470714051e-06 7.09218450153661e-08
5.48250000000000e+00 1.97232555009478e-06 6.63255827593445e-08
5.50830000000000e+00 1.84015904297558e-06 6.20265056043247e-08
5.53410000000000e+00 1.71684907863313e-06 5.80054487960343e-08
5.55990000000000e+00 1.60180217577125e-06 5.42444797141933e-08
5.58570000000000e+00 1.49446462256790e-06 5.07268189368119e-08
5.61150000000000e+00 1.39431981170312e-06 4.74367663403762e-08
5.63730000000000e+00 1.30088575396805e-06 4.43596319162403e-08
5.66310000000000e+00 1.21371275848826e-06 4.14816710037194e-08
5.68890000000000e+00 1.13238126839642e-06 3.87900236592814e-08
5.71470000000000e+00 1.05649984153767e-06 3.62726578989603e-08
5.74050000000000e+00 9.85703266488835e-07 3.39183165677249e-08
5.76630000000000e+00 9.19650804824200e-07 3.17164676051063e-08
5.79210000000000e+00 8.58024551167883e-07 2.96572574909790e-08
5.81790000000000e+00 8.00527903139909e-07 2.77314676690672e-08
5.84370000000000e+00 7.46884133831960e-07 2.59304737585606e-08
5.86950000000000e+00 6.96835059942218e-07 2.42462073762357e-08
5.89530000000000e+00 6.50139799159161e-07 2.26711204027332e-08
5.92110000000000e+00 6.06573610813674e-07 2.11981515371854e-08
5.94690000000000e+00 5.65926814219637e-07 1.98206949942696e-08
5.97270000000000e+00 5.28003779497041e-07 1.85325712070221e-08
5.99850000000000e+00 4.92621986020549e-07 1.73279994074218e-08
6.02430000000000e+00 4.59611143961878e-07 1.62015719648799e-08
6.05010000000000e+00 4.28812374698060e-07 1.51482303703849e-08
6.07590000000000e+00 4.00077446140952e-07 1.41632427611879e-08
6.10170000000000e+00 3.73268059307688e-07 1.32421828875943e-08
6.12750000000000e+00 3.48255182698403e-07 1.23809104296882e-08
6.15330000000000e+00 3.24918431277627e-07 1.15755525776808e-08
6.17910000000000e+00 3.03145487070444e-07 1.08224867950672e-08
6.20490000000000e+00 2.82831558584792e-07 1.01183246889212e-08
6.23070000000000e+00 2.63878876458134e-07 9.45989691647805e-09
6.25650000000000e+00 2.46196222901100e-07 8.84423906166787e-09
6.28230000000000e+00 2.29698492673342e-07 8.26857841949286e-09
6.30810000000000e+00 2.14306283478606e-07 7.73032163009996e-09
6.33390000000000e+00 1.99945513807643e-07 7.22704310810956e-09
6.35970000000000e+00 1.86547066389650e-07 6.75647421623509e-09
6.38550000000000e+00 1.74046455536198e-07 6.31649313548022e-09
6.41130000000000e+00 1.62383516776625e-07 5.90511538724770e-09
6.43710000000000e+00 1.51502117291095e-07 5.52048496554593e-09
6.46290000000000e+00 1.41349885747694e-07 5.16086604015105e-09
6.48870000000000e+00 1.31877960243269e-07 4.82463519408370e-09
6.51450000000000e+00 1.23040753134879e-07 4.51027416110225e-09
6.54030000000000e+00 1.14795731630000e-07 4.21636303110741e-09
6.56610000000000e+00 1.07103213079499e-07 3.94157389340688e-09
6.59190000000000e+00 9.99261739881173e-08 3.68466488971163e-09
6.61770000000000e+00 9.32300718232588e-08 3.44447465053559e-09
6.64350000000000e+00 8.69826787644606e-08 3.21991709035678e-09
6.66930000000000e+00 8.11539265933912e-08 3.00997653847539e-09
6.69510000000000e+00 7.57157619778482e-08 2.81370318398201e-09
6.72090000000000e+00 7.06420114532453e-08 2.63020881463317e-09
6.74670000000000e+00 6.59082554517568e-08 2.45866283072531e-09
6.77250000000000e+00 6.14917107728318e-08 2.29828851627144e-09
6.79830000000000e+00 5.73711209294163e-08 2.14835955091915e-09
6.82410000000000e+00 5.35266538421295e-08 2.00819674711142e-09
6.84990000000000e+00 4.99398063890034e-08 1.87716499798589e-09
6.87570000000000e+00 4.65933153513922e-08 1.75467042243942e-09
6.90150000000000e+00 4.34710743274390e-08 1.64015769465610e-09
6.92730000000000e+00 4.05580562132130e-08 1.53310754621242e-09
6.95310000000000e+00 3.78402408784236e-08 1.43303442963708e-09
6.97890000000000e+00 3.53045476886202e-08 1.33948433301744e-09
7.00470000000000e+00 3.29387725491134e-08 1.25203273591332e-09
7.03050000000000e+00 3.07315291676133e-08 1.17028269746518e-09
7.05630000000000e+00 2.86721942528878e-08 1.09386306816957e-09
7.08210000000000e+00 2.67508563856857e-08 1.02242681734295e-09
7.10790000000000e+00 2.49582683158442e-08 9.55649468808641e-10
7.13370000000000e+00 2.32858024559913e-08 8.93227637821514e-10
7.15950000000000e+00 2.17254093576368e-08 8.34877662695126e-10
7.18530000000000e+00 2.02695789698007e-08 7.80334325016238e-10
7.21110000000000e+00 1.89113044937201e-08 7.29349652725645e-10
7.23690000000000e+00 1.76440486596705e-08 6.81691800712667e-10
7.26270000000000e+00 1.64617122635934e-08 6.37144003915370e-10
7.28850000000000e+00 1.53586048120999e-08 5.95503598241286e-10
7.31430000000000e+00 1.43294171345678e-08 5.56581104925397e-10
7.34010000000000e+00 1.33691958305144e-08 5.20199374224568e-10
7.36590000000000e+00 1.24733194292647e-08 4.86192784612091e-10
7.39170000000000e+00 1.16374761471713e-08 4.54406493883368e-10
7.41750000000000e+00 1.08576431353337e-08 4.24695738815222e-10
7.44330000000000e+00 1.01300671179389e-08 3.96925180237927e-10
7.46910000000000e+00 9.45124632803602e-09 3.70968290581768e-10
7.49490000000000e+00 8.81791365380298e-09 3.46706781149488e-10
7.52070000000000e+00 8.22702091419118e-09 3.24030066543462e-10
7.54650000000000e+00 7.67572418826629e-09 3.02834763842411e-10
7.57230000000000e+00 7.16137012763732e-09 2.83024224277826e-10
7.59810000000000e+00 6.68148318609660e-09 2.64508095305527e-10
7.62390000000000e+00 6.23375370500782e-09 2.47201911103786e-10
7.64970000000000e+00 5.81602679709819e-09 2.31026709656633e-10
7.67550000000000e+00 5.42629197515299e-09 2.15908674699926e-10
7.70130000000000e+00 5.06267347569662e-09 2.01778800919156e-10
7.72710000000000e+00 4.72342123108837e-09 1.88572580892063e-10
7.75290000000000e+00 4.40690244658262e-09 1.76229712366593e-10
7.77870000000000e+00 4.11159374181433e-09 1.64693824555894e-10
7.80450000000000e+00 3.83607381888748e-09 1.53912222217295e-10
7.83030000000000e+00 3.57901662177851e-09 1.43835646362001e-10
7.85610000000000e+00 3.33918495413150e-09 1.34418050516873e-10
7.88190000000000e+00 3.11542452472808e-09 1.25616391529428e-10
7.90770000000000e+00 2.90665839197326e-09 1.17390433972548e-10
7.93350000000000e+00 2.71188178065909e-09 1.09702567266424e-10
7.95930000000000e+00 2.53015724605947e-09 1.02517634692436e-10
7.98510000000000e+00 2.36061016208139e-09 9.58027735270971e-11
8.01090000000000e+00 2.20242451175739e-09 8.95272655741869e-11
8.03670000000000e+00 2.05483895981912e-09 8.36623974199792e-11
8.06250000000000e+00 1.91714318844979e-09 7.81813297801915e-11
8.08830000000000e+00 1.78867447857955e-09 7.30589753482094e-11
8.11410000000000e+00 1.66881452027005e-09 6.82718845924086e-11
8.13990000000000e+00 1.55698643683661e-09 6.37981389861855e-11
