Energy (eV)          EEDF (eV^-(3/2))     First Anisotropy
1.00000000000000e-04 2.15064894677188e+02 4.21990382758143e-02
3.00000000000000e-04 2.13641888286116e+02 6.96863459936653e-02
5.00000000000000e-04 2.12228297412745e+02 9.20037809843235e-02
7.00000000000000e-04 2.10824059757538e+02 1.08964547572740e-01
9.00000000000000e-04 2.09429113433553e+02 1.23115038061104e-01
1.10000000000000e-03 2.08043396963391e+02 1.35417640947812e-01
1.30000000000000e-03 2.06666849276444e+02 1.46370211687238e-01
1.50000000000000e-03 2.05299409706191e+02 1.56273283370051e-01
1.70000000000000e-03 2.03941017987526e+02 1.65326104449924e-01
1.90000000000000e-03 2.02591614254093e+02 1.73669450074258e-01
2.10000000000000e-03 2.01251139035654e+02 1.81407492739409e-01
2.30000000000000e-03 1.99919533255461e+02 1.88620089101884e-01
2.50000000000000e-03 1.98596738227660e+02 1.95370186787369e-01
2.70000000000000e-03 1.97282695654697e+02 2.01708539909685e-01
2.90000000000000e-03 1.95977347624753e+02 2.07676845090965e-01
3.10000000000000e-03 1.94680636609190e+02 2.13309902957544e-01
3.30000000000000e-03 1.93392505460018e+02 2.18637153115463e-01
3.50000000000000e-03 1.92112897407373e+02 2.23683792196438e-01
3.70000000000000e-03 1.90841756057016e+02 2.28471606176733e-01
3.90000000000000e-03 1.89579025387851e+02 2.33019601857099e-01
4.10000000000000e-03 1.88324649749449e+02 2.37344494016780e-01
4.30000000000000e-03 1.87078573859605e+02 2.41461086815046e-01
4.50000000000000e-03 1.85840742801892e+02 2.45382576354895e-01
4.70000000000000e-03 1.84611102023246e+02 2.49120793559693e-01
4.90000000000000e-03 1.83389597331564e+02 2.52686401229993e-01
5.10000000000000e-03 1.82176174893307e+02 2.56089055481737e-01
5.30000000000000e-03 1.80970781231138e+02 2.59337539178319e-01
5.50000000000000e-03 1.79773363221558e+02 2.62439873111306e-01
5.70000000000000e-03 1.78583868092566e+02 2.65403409332460e-01
5.90000000000000e-03 1.77402243421336e+02 2.68234910042374e-01
6.10000000000000e-03 1.76228437131904e+02 2.70940614695905e-01
6.30000000000000e-03 1.75062397492874e+02 2.73526297422123e-01
6.50000000000000e-03 1.73904073115137e+02 2.75997316427347e-01
6.70000000000000e-03 1.72753412949609e+02 2.78358656719005e-01
6.90000000000000e-03 1.71610366284977e+02 2.80614967230828e-01
7.10000000000000e-03 1.70474882745469e+02 2.82770593228480e-01
7.30000000000000e-03 1.69346912288627e+02 2.84829604715288e-01
7.50000000000000e-03 1.68226405203112e+02 2.86795821430957e-01
7.70000000000000e-03 1.67113312106500e+02 2.88672834934560e-01
7.90000000000000e-03 1.66007583943118e+02 2.90464028181118e-01
8.10000000000000e-03 1.64909171981874e+02 2.92172592934544e-01
8.30000000000000e-03 1.63818027814112e+02 2.93801545305268e-01
8.50000000000000e-03 1.62734103351480e+02 2.95353739656418e-01
8.70000000000000e-03 1.61657350823807e+02 2.96831881085549e-01
8.90000000000000e-03 1.60587722777003e+02 2.98238536658358e-01
9.10000000000000e-03 1.59525172070960e+02 2.99576145545590e-01
9.30000000000000e-03 1.58469651877484e+02 3.00847028192803e-01
9.50000000000000e-03 1.57421115678222e+02 3.02053394634932e-01
9.70000000000000e-03 1.56379517262619e+02 3.03197352052520e-01
9.90000000000000e-03 1.55344810725877e+02 3.04280911653578e-01
1.01000000000000e-02 1.54316950466933e+02 3.05305994954372e-01
1.03000000000000e-02 1.53295891186452e+02 3.06274439522959e-01
1.05000000000000e-02 1.52281587884825e+02 3.07188004241453e-01
1.07000000000000e-02 1.51273995860191e+02 3.08048374136256e-01
1.09000000000000e-02 1.50273070706466e+02 3.08857164819482e-01
1.11000000000000e-02 1.49278768311382e+02 3.09615926579780e-01
1.13000000000000e-02 1.48291044854549e+02 3.10326148156462e-01
1.15000000000000e-02 1.47309856805518e+02 3.10989260226810e-01
1.17000000000000e-02 1.46335160921868e+02 3.11606638633294e-01
1.19000000000000e-02 1.45366914247294e+02 3.12179607374587e-01
1.21000000000000e-02 1.44405074109720e+02 3.12709441381347e-01
1.23000000000000e-02 1.43449598119415e+02 3.13197369095891e-01
1.25000000000000e-02 1.42500444167124e+02 3.13644574872850e-01
1.27000000000000e-02 1.41557570422216e+02 3.14052201215935e-01
1.29000000000000e-02 1.40620935330837e+02 3.14421350864554e-01
1.31000000000000e-02 1.39690497614079e+02 3.14753088742905e-01
1.33000000000000e-02 1.38766216266163e+02 3.15048443782447e-01
1.35000000000000e-02 1.37848050552630e+02 3.15308410628039e-01
1.37000000000000e-02 1.36935960008545e+02 3.15533951236851e-01
1.39000000000000e-02 1.36029904436715e+02 3.15725996378351e-01
1.41000000000000e-02 1.35129843905920e+02 3.15885447043027e-01
1.43000000000000e-02 1.34235738749146e+02 3.16013175766604e-01
1.45000000000000e-02 1.33347549561845e+02 3.16110027875995e-01
1.47000000000000e-02 1.32465237200192e+02 3.16176822662820e-01
1.49000000000000e-02 1.31588762779365e+02 3.16214354489709e-01
1.51000000000000e-02 1.30718087671826e+02 3.16223393834034e-01
1.53000000000000e-02 1.29853173505624e+02 3.16204688273570e-01
1.55000000000000e-02 1.28993982162699e+02 3.16158963418003e-01
1.57000000000000e-02 1.28140475777206e+02 3.16086923790135e-01
1.59000000000000e-02 1.27292616733843e+02 3.15989253660016e-01
1.61000000000000e-02 1.26450367666197e+02 3.15866617835146e-01
1.63000000000000e-02 1.25613691455094e+02 3.15719662409700e-01
1.65000000000000e-02 1.24782551226962e+02 3.15549015475352e-01
1.67000000000000e-02 1.23956910352212e+02 3.15355287796166e-01
1.69000000000000e-02 1.23136732443617e+02 3.15139073449861e-01
1.71000000000000e-02 1.22321981354711e+02 3.14900950437497e-01
1.73000000000000e-02 1.21512621178197e+02 3.14641481263468e-01
1.75000000000000e-02 1.20708616244364e+02 3.14361213487761e-01
1.77000000000000e-02 1.19909931119513e+02 3.14060680251985e-01
1.79000000000000e-02 1.19116530604399e+02 3.13740400780812e-01
1.81000000000000e-02 1.18328379732675e+02 3.13400880860257e-01
1.83000000000000e-02 1.17545443769357e+02 3.13042613294050e-01
1.85000000000000e-02 1.16767688209285e+02 3.12666078339547e-01
1.87000000000000e-02 1.15995078775613e+02 3.12271744124114e-01
1.89000000000000e-02 1.15227581418288e+02 3.11860067043195e-01
1.91000000000000e-02 1.14465162312555e+02 3.11431492141100e-01
1.93000000000000e-02 1.13707787857466e+02 3.10986453475347e-01
1.95000000000000e-02 1.12955424674397e+02 3.10525374465540e-01
1.97000000000000e-02 1.12208039605580e+02 3.10048668227627e-01
1.99000000000000e-02 1.11465599712638e+02 3.09556737894200e-01
2.01000000000000e-02 1.10728072275137e+02 3.09049976921600e-01
2.03000000000000e-02 1.09995424789140e+02 3.08528769384618e-01
2.05000000000000e-02 1.09267624965780e+02 3.07993490259292e-01
2.07000000000000e-02 1.08544640729831e+02 3.07444505694487e-01
2.09000000000000e-02 1.07826440218298e+02 3.06882173272794e-01
2.11000000000000e-02 1.07112991779011e+02 3.06306842261192e-01
2.13000000000000e-02 1.06404263969234e+02 3.05718853852148e-01
2.15000000000000e-02 1.05700225554272e+02 3.05118541395484e-01
2.17000000000000e-02 1.05000845506102e+02 3.04506230621500e-01
2.19000000000000e-02 1.04306093002000e+02 3.03882239855761e-01
2.21000000000000e-02 1.03615937423186e+02 3.03246880225944e-01
2.23000000000000e-02 1.02930348353473e+02 3.02600455861125e-01
2.25000000000000e-02 1.02249295577926e+02 3.01943264083845e-01
2.27000000000000e-02 1.01572749081534e+02 3.01275595595275e-01
2.29000000000000e-02 1.00900679047880e+02 3.00597734653803e-01
2.31000000000000e-02 1.00233055857836e+02 2.99909959247361e-01
2.33000000000000e-02 9.95698500882507e+01 2.99212541259712e-01
2.35000000000000e-02 9.89110325106547e+01 2.98505746631013e-01
2.37000000000000e-02 9.82565740899739e+01 2.97789835512908e-01
2.39000000000000e-02 9.76064459832482e+01 2.97065062418351e-01
2.41000000000000e-02 9.69606195383611e+01 2.96331676366401e-01
2.43000000000000e-02 9.63190662927768e+01 2.95589921022205e-01
2.45000000000000e-02 9.56817579722855e+01 2.94840034832341e-01
2.47000000000000e-02 9.50486664897579e+01 2.94082251155789e-01
2.49000000000000e-02 9.44197639439069e+01 2.93316798390656e-01
2.51000000000000e-02 9.37950226180581e+01 2.92543900096816e-01
2.53000000000000e-02 9.31744149789282e+01 2.91763775114651e-01
2.55000000000000e-02 9.25579136754118e+01 2.90976637680059e-01
2.57000000000000e-02 9.19454915373759e+01 2.90182697535880e-01
2.59000000000000e-02 9.13371215744621e+01 2.89382160039842e-01
2.61000000000000e-02 9.07327769748977e+01 2.88575226269203e-01
2.63000000000000e-02 9.01324311043136e+01 2.87762093122215e-01
2.65000000000000e-02 8.95360575045709e+01 2.86942953416529e-01
2.67000000000000e-02 8.89436298925943e+01 2.86117995984628e-01
2.69000000000000e-02 8.83551221592143e+01 2.85287405766431e-01
2.71000000000000e-02 8.77705083680161e+01 2.84451363899173e-01
2.73000000000000e-02 8.71897627541970e+01 2.83610047804636e-01
2.75000000000000e-02 8.66128597234304e+01 2.82763631273924e-01
2.77000000000000e-02 8.60397738507383e+01 2.81912284549694e-01
2.79000000000000e-02 8.54704798793704e+01 2.81056174406099e-01
2.81000000000000e-02 8.49049527196912e+01 2.80195464226468e-01
2.83000000000000e-02 8.43431674480742e+01 2.79330314078774e-01
2.85000000000000e-02 8.37850993058037e+01 2.78460880789019e-01
2.87000000000000e-02 8.32307236979830e+01 2.77587318012578e-01
2.89000000000000e-02 8.26800161924513e+01 2.76709776303572e-01
2.91000000000000e-02 8.21329525187064e+01 2.75828403182358e-01
2.93000000000000e-02 8.15895085668352e+01 2.74943343201191e-01
2.95000000000000e-02 8.10496603864513e+01 2.74054738008135e-01
2.97000000000000e-02 8.05133841856390e+01 2.73162726409250e-01
2.99000000000000e-02 7.99806563299053e+01 2.72267444429127e-01
3.01000000000000e-02 7.94514533411381e+01 2.71369025369818e-01
3.03000000000000e-02 7.89257518965714e+01 2.70467599868264e-01
3.05000000000000e-02 7.84035288277575e+01 2.69563295952221e-01
3.07000000000000e-02 7.78847611195457e+01 2.68656239094699e-01
3.09000000000000e-02 7.73694259090685e+01 2.67746552267068e-01
3.11000000000000e-02 7.68575004847335e+01 2.66834355990817e-01
3.13000000000000e-02 7.63489622852229e+01 2.65919768387924e-01
3.15000000000000e-02 7.58437888984986e+01 2.65002905230028e-01
3.17000000000000e-02 7.53419580608151e+01 2.64083879986363e-01
3.19000000000000e-02 7.48434476557380e+01 2.63162803870553e-01
3.21000000000000e-02 7.43482357131693e+01 2.62239785886147e-01
3.23000000000000e-02 7.38563004083791e+01 2.61314932871103e-01
3.25000000000000e-02 7.33676200610438e+01 2.60388349541227e-01
3.27000000000000e-02 7.28821731342908e+01 2.59460138532496e-01
3.29000000000000e-02 7.23999382337491e+01 2.58530400442390e-01
3.31000000000000e-02 7.19208941066064e+01 2.57599233870264e-01
3.33000000000000e-02 7.14450196406727e+01 2.56666735456718e-01
3.35000000000000e-02 7.09722938634495e+01 2.55732999922090e-01
3.37000000000000e-02 7.05026959412060e+01 2.54798120103995e-01
3.39000000000000e-02 7.00362051780603e+01 2.53862186994017e-01
3.41000000000000e-02 6.95728010150680e+01 2.52925289773558e-01
3.43000000000000e-02 6.91124630293155e+01 2.51987515848855e-01
3.45000000000000e-02 6.86551709330203e+01 2.51048950885188e-01
3.47000000000000e-02 6.82009045726368e+01 2.50109678840320e-01
3.49000000000000e-02 6.77496439279681e+01 2.49169781997161e-01
3.51000000000000e-02 6.73013691112838e+01 2.48229340995748e-01
3.53000000000000e-02 6.68560603664431e+01 2.47288434864442e-01
3.55000000000000e-02 6.64136980680247e+01 2.46347141050472e-01
3.57000000000000e-02 6.59742627204614e+01 2.45405535449801e-01
3.59000000000000e-02 6.55377349571813e+01 2.44463692436308e-01
3.61000000000000e-02 6.51040955397540e+01 2.43521684890383e-01
3.63000000000000e-02 6.46733253570426e+01 2.42579584226835e-01
3.65000000000000e-02 6.42454054243619e+01 2.41637460422248e-01
3.67000000000000e-02 6.38203168826415e+01 2.40695382041721e-01
3.69000000000000e-02 6.33980409975945e+01 2.39753416265049e-01
3.71000000000000e-02 6.29785591588920e+01 2.38811628912315e-01
3.73000000000000e-02 6.25618528793430e+01 2.37870084468962e-01
3.75000000000000e-02 6.21479037940794e+01 2.36928846110373e-01
3.77000000000000e-02 6.17366936597468e+01 2.35987975725849e-01
3.79000000000000e-02 6.13282043537005e+01 2.35047533942145e-01
3.81000000000000e-02 6.09224178732067e+01 2.34107580146527e-01
3.83000000000000e-02 6.05193163346494e+01 2.33168172509291e-01
3.85000000000000e-02 6.01188819727415e+01 2.32229368005866e-01
3.87000000000000e-02 5.97210971397430e+01 2.31291222438461e-01
3.89000000000000e-02 5.93259443046820e+01 2.30353790457257e-01
3.91000000000000e-02 5.89334060525831e+01 2.29417125581157e-01
3.93000000000000e-02 5.85434650836992e+01 2.28481280218134e-01
3.95000000000000e-02 5.81561042127496e+01 2.27546305685183e-01
3.97000000000000e-02 5.77713063681621e+01 2.26612252227833e-01
3.99000000000000e-02 5.73890545913212e+01 2.25679169039301e-01
4.01000000000000e-02 5.70093320358201e+01 2.24747104279246e-01
4.03000000000000e-02 5.66321219667188e+01 2.23816105092148e-01
4.05000000000000e-02 5.62574077598062e+01 2.22886217625368e-01
4.07000000000000e-02 5.58851729008676e+01 2.21957487046810e-01
4.09000000000000e-02 5.55154009849569e+01 2.21029957562231e-01
4.11000000000000e-02 5.51480757156736e+01 2.20103672432246e-01
4.13000000000000e-02 5.47831809044444e+01 2.19178673988995e-01
4.15000000000000e-02 5.44207004698101e+01 2.18255003652466e-01
4.17000000000000e-02 5.40606184367166e+01 2.17332701946524e-01
4.19000000000000e-02 5.37029189358110e+01 2.16411808514635e-01
4.21000000000000e-02 5.33475862027421e+01 2.15492362135283e-01
4.23000000000000e-02 5.29946045774657e+01 2.14574400737085e-01
4.25000000000000e-02 5.26439585035545e+01 2.13657961413644e-01
4.27000000000000e-02 5.22956325275123e+01 2.12743080438097e-01
4.29000000000000e-02 5.19496112980931e+01 2.11829793277386e-01
4.31000000000000e-02 5.16058795656247e+01 2.10918134606293e-01
4.33000000000000e-02 5.12644221813362e+01 2.10008138321200e-01
4.35000000000000e-02 5.09252240966909e+01 2.09099837553550e-01
4.37000000000000e-02 5.05882703627225e+01 2.08193264683127e-01
4.39000000000000e-02 5.02535461293768e+01 2.07288451351062e-01
4.41000000000000e-02 4.99210366448570e+01 2.06385428472577e-01
4.43000000000000e-02 4.95907272549736e+01 2.05484226249536e-01
4.45000000000000e-02 4.92626034024983e+01 2.04584874182735e-01
4.47000000000000e-02 4.89366506265231e+01 2.03687401083948e-01
4.49000000000000e-02 4.86128545618223e+01 2.02791835087836e-01
4.51000000000000e-02 4.82912009382198e+01 2.01898203663589e-01
4.53000000000000e-02 4.79716755799601e+01 2.01006533626323e-01
4.55000000000000e-02 4.76542644050835e+01 2.00116851148307e-01
4.57000000000000e-02 4.73389534248053e+01 1.99229181770010e-01
4.59000000000000e-02 4.70257287429000e+01 1.98343550410929e-01
4.61000000000000e-02 4.67145765550879e+01 1.97459981380219e-01
4.63000000000000e-02 4.64054831484275e+01 1.96578498387146e-01
4.65000000000000e-02 4.60984349007108e+01 1.95699124551333e-01
4.67000000000000e-02 4.57934182798629e+01 1.94821882412852e-01
4.69000000000000e-02 4.54904198433459e+01 1.93946793942130e-01
4.71000000000000e-02 4.51894262375661e+01 1.93073880549662e-01
4.73000000000000e-02 4.48904241972858e+01 1.92203163095591e-01
4.75000000000000e-02 4.45934005450387e+01 1.91334661899101e-01
4.77000000000000e-02 4.42983421905488e+01 1.90468396747621e-01
4.79000000000000e-02 4.40052361301537e+01 1.89604386905918e-01
4.81000000000000e-02 4.37140694462317e+01 1.88742651125006e-01
4.83000000000000e-02 4.34248293066322e+01 1.87883207650873e-01
4.85000000000000e-02 4.31375029641102e+01 1.87026074233122e-01
4.87000000000000e-02 4.28520777557648e+01 1.86171268133431e-01
4.89000000000000e-02 4.25685411024809e+01 1.85318806133860e-01
4.91000000000000e-02 4.22868805083745e+01 1.84468704545001e-01
4.93000000000000e-02 4.20070835602429e+01 1.83620979214040e-01
4.95000000000000e-02 4.17291379270165e+01 1.82775645532652e-01
4.97000000000000e-02 4.14530313592162e+01 1.81932718444731e-01
4.99000000000000e-02 4.11787516884134e+01 1.81092212454056e-01
5.01000000000000e-02 4.09062868266933e+01 1.80254141631799e-01
5.03000000000000e-02 4.06356247661225e+01 1.79418519623872e-01
5.05000000000000e-02 4.03667535782198e+01 1.78585359658182e-01
5.07000000000000e-02 4.00996614134305e+01 1.77754674551795e-01
5.09000000000000e-02 3.98343365006039e+01 1.76926476717902e-01
5.11000000000000e-02 3.95707671464750e+01 1.76100778172733e-01
5.13000000000000e-02 3.93089417351487e+01 1.75277590542371e-01
5.15000000000000e-02 3.90488487275880e+01 1.74456925069353e-01
5.17000000000000e-02 3.87904766611059e+01 1.73638792619271e-01
5.19000000000000e-02 3.85338141488593e+01 1.72823203687223e-01
5.21000000000000e-02 3.82788498793482e+01 1.72010168404130e-01
5.23000000000000e-02 3.80255726159163e+01 1.71199696542989e-01
5.25000000000000e-02 3.77739711962565e+01 1.70391797524994e-01
5.27000000000000e-02 3.75240345319185e+01 1.69586480425576e-01
5.29000000000000e-02 3.72757516078201e+01 1.68783753980360e-01
5.31000000000000e-02 3.70291114817622e+01 1.67983626590979e-01
5.33000000000000e-02 3.67841032839461e+01 1.67186106330806e-01
5.35000000000000e-02 3.65407162164945e+01 1.66391200950638e-01
5.37000000000000e-02 3.62989395529761e+01 1.65598917884235e-01
5.39000000000000e-02 3.60587626379321e+01 1.64809264253773e-01
5.41000000000000e-02 3.58201748864072e+01 1.64022246875243e-01
5.43000000000000e-02 3.55831657834829e+01 1.63237872263750e-01
5.45000000000000e-02 3.53477248838141e+01 1.62456146638685e-01
5.47000000000000e-02 3.51138418111687e+01 1.61677075928875e-01
5.49000000000000e-02 3.48815062579705e+01 1.60900665777623e-01
5.51000000000000e-02 3.46507079848447e+01 1.60126921547658e-01
5.53000000000000e-02 3.44214368201666e+01 1.59355848326022e-01
5.55000000000000e-02 3.41936826596137e+01 1.58587450928844e-01
5.57000000000000e-02 3.39674354657200e+01 1.57821733906105e-01
5.59000000000000e-02 3.37426852674338e+01 1.57058701546269e-01
5.61000000000000e-02 3.35194221596782e+01 1.56298357880853e-01
5.63000000000000e-02 3.32976363029146e+01 1.55540706688937e-01
5.65000000000000e-02 3.30773179227091e+01 1.54785751501593e-01
5.67000000000000e-02 3.28584573093017e+01 1.54033495606232e-01
5.69000000000000e-02 3.26410448171782e+01 1.53283942050905e-01
5.71000000000000e-02 3.24250708646456e+01 1.52537093648546e-01
5.73000000000000e-02 3.22105259334091e+01 1.51792952981113e-01
5.75000000000000e-02 3.19974005681532e+01 1.51051522403653e-01
5.77000000000000e-02 3.17856853761249e+01 1.50312804048355e-01
5.79000000000000e-02 3.15753710267194e+01 1.49576799828517e-01
5.81000000000000e-02 3.13664482510692e+01 1.48843511442441e-01
5.83000000000000e-02 3.11589078416357e+01 1.48112940377255e-01
5.85000000000000e-02 3.09527406518031e+01 1.47385087912717e-01
5.87000000000000e-02 3.07479375954754e+01 1.46659955124921e-01
5.89000000000000e-02 3.05444896466761e+01 1.45937542889961e-01
5.91000000000000e-02 3.03423878391501e+01 1.45217851887528e-01
5.93000000000000e-02 3.01416232659692e+01 1.44500882604461e-01
5.95000000000000e-02 2.99421870791387e+01 1.43786635338257e-01
5.97000000000000e-02 2.97440704892080e+01 1.43075110200490e-01
5.99000000000000e-02 2.95472647648832e+01 1.42366307120193e-01
6.01000000000000e-02 2.93517612326421e+01 1.41660225847193e-01
6.03000000000000e-02 2.91575512763519e+01 1.40956865955398e-01
6.05000000000000e-02 2.89646263368900e+01 1.40256226846015e-01
6.07000000000000e-02 2.87729779117662e+01 1.39558307750738e-01
6.09000000000000e-02 2.85825975547481e+01 1.38863107734867e-01
6.11000000000000e-02 2.83934768754891e+01 1.38170625700396e-01
6.13000000000000e-02 2.82056075391584e+01 1.37480860389048e-01
6.15000000000000e-02 2.80189812660738e+01 1.36793810385254e-01
6.17000000000000e-02 2.78335898313368e+01 1.36109474119092e-01
6.19000000000000e-02 2.76494250644700e+01 1.35427849869186e-01
6.21000000000000e-02 2.74664788490570e+01 1.34748935765548e-01
6.23000000000000e-02 2.72847431223849e+01 1.34072729792390e-01
6.25000000000000e-02 2.71042098750890e+01 1.33399229790888e-01
6.27000000000000e-02 2.69248711507992e+01 1.32728433461894e-01
6.29000000000000e-02 2.67467190457903e+01 1.32060338368625e-01
6.31000000000000e-02 2.65697457086330e+01 1.31394941939286e-01
