Energy (eV)          EEDF (eV^-(3/2))     First Anisotropy
2.42222222222222e-02 7.81183940904460e-01 9.53589526796408e-04
7.26666666666667e-02 7.51744887564497e-01 1.55018834743202e-03
1.21111111111111e-01 7.23415250074901e-01 1.98263489189700e-03
1.69555555555556e-01 6.96153219979284e-01 2.27469191513138e-03
2.18000000000000e-01 6.69918564168829e-01 2.48970999153857e-03
2.66444444444444e-01 6.44672566003293e-01 2.65285306857846e-03
3.14888888888889e-01 6.20377967641280e-01 2.77773587721254e-03
3.63333333333333e-01 5.96998915502286e-01 2.87291831899952e-03
4.11777777777778e-01 5.74500906995497e-01 2.94428786266537e-03
4.60222222222222e-01 5.52850739899077e-01 2.99614314960343e-03
5.08666666666667e-01 5.32016463150989e-01 3.03175879028439e-03
5.57111111111111e-01 5.11967329742338e-01 3.05370910925047e-03
6.05555555555556e-01 4.92673751444880e-01 3.06406733516221e-03
6.54000000000000e-01 4.74107255001167e-01 3.06453505359923e-03
7.02444444444444e-01 4.56240440233176e-01 3.05653011885115e-03
7.50888888888889e-01 4.39046939489313e-01 3.04124854771274e-03
7.99333333333333e-01 4.22501378836371e-01 3.01970942533744e-03
8.47777777777778e-01 4.06579340517794e-01 2.99278833221107e-03
8.96222222222222e-01 3.91257327004887e-01 2.96124277580278e-03
9.44666666666667e-01 3.76512726255913e-01 2.92573191813891e-03
9.93111111111111e-01 3.62323778355146e-01 2.88683212252117e-03
1.04155555555556e+00 3.48669543479231e-01 2.84504941195481e-03
1.09000000000000e+00 3.35529870762440e-01 2.80082954433979e-03
1.13844444444444e+00 3.22885368959385e-01 2.75456630051959e-03
1.18688888888889e+00 3.10717377358809e-01 2.70660834223390e-03
1.23533333333333e+00 2.99007938693166e-01 2.65726494672660e-03
1.28377777777778e+00 2.87739772220940e-01 2.60681085177732e-03
1.33222222222222e+00 2.76896248611120e-01 2.55549036235502e-03
1.38066666666667e+00 2.66461365115865e-01 2.50352089340314e-03
1.42911111111111e+00 2.56419721989189e-01 2.45109597436383e-03
1.47755555555556e+00 2.46756499967526e-01 2.39838789432404e-03
1.52600000000000e+00 2.37457438122438e-01 2.34554998715985e-03
1.57444444444444e+00 2.28508813073952e-01 2.29271862971929e-03
1.62288888888889e+00 2.19897418494832e-01 2.24001500246419e-03
1.67133333333333e+00 2.11610545848517e-01 2.18754663744575e-03
1.71977777777778e+00 2.03635965420543e-01 2.13540879322963e-03
1.76822222222222e+00 1.95961908470395e-01 2.08368566891609e-03
1.81666666666667e+00 1.88577049715000e-01 2.03245150265239e-03
1.86511111111111e+00 1.81470490631139e-01 1.98177152396399e-03
1.91355555555556e+00 1.74631743484082e-01 1.93170283324210e-03
1.96200000000000e+00 1.68050715699829e-01 1.88229517994259e-03
2.01044444444444e+00 1.61717695111994e-01 1.83359166217958e-03
2.05888888888889e+00 1.55623335495496e-01 1.78562936041703e-03
2.10733333333333e+00 1.49758642899095e-01 1.73843990659180e-03
2.15577777777778e+00 1.44114962253811e-01 1.69205000168408e-03
2.20422222222222e+00 1.38683964711603e-01 1.64648188007303e-03
2.25266666666667e+00 1.33457635270907e-01 1.60175374145424e-03
2.30111111111111e+00 1.28428260956433e-01 1.55788012464736e-03
2.34955555555556e+00 1.23588419501040e-01 1.51487226439698e-03
2.39800000000000e+00 1.18930968306023e-01 1.47273840883824e-03
2.44644444444444e+00 1.14449033981509e-01 1.43148410839095e-03
2.49488888888889e+00 1.10136002125837e-01 1.39111248107714e-03
2.54333333333333e+00 1.05985507636925e-01 1.35162445260383e-03
2.59177777777778e+00 1.01991425249813e-01 1.31301897730179e-03
2.64022222222222e+00 9.81478605623208e-02 1.27529323705599e-03
2.68866666666667e+00 9.44491412877378e-02 1.23844282998492e-03
2.73711111111111e+00 9.08898088882422e-02 1.20246193097323e-03
2.78555555555556e+00 8.74646105576950e-02 1.16734344942156e-03
2.83400000000000e+00 8.41684914184603e-02 1.13307916879709e-03
2.88244444444444e+00 8.09965871099908e-02 1.09965987408757e-03
2.93088888888889e+00 7.79442165640521e-02 1.06707546962912e-03
2.97933333333333e+00 7.50068751401123e-02 1.03531508560660e-03
3.02777777777778e+00 7.21802279360304e-02 1.00436717659402e-03
3.07622222222222e+00 6.94601034299695e-02 9.74219609793703e-04
3.12466666666667e+00 6.68424872949311e-02 9.44859750205617e-04
3.17311111111111e+00 6.43235164770428e-02 9.16274530637698e-04
3.22155555555556e+00 6.18994735179800e-02 8.88450522825155e-04
3.27000000000000e+00 5.95667810375712e-02 8.61373999262267e-04
3.31844444444444e+00 5.73219964840068e-02 8.35030989486442e-04
3.36688888888889e+00 5.51618070251740e-02 8.09407332193669e-04
3.41533333333333e+00 5.30830246864148e-02 7.84488721870648e-04
3.46377777777778e+00 5.10825816202811e-02 7.60260751962575e-04
3.51222222222222e+00 4.91575256032603e-02 7.36708952877766e-04
3.56066666666667e+00 4.73050156609339e-02 7.13818829450752e-04
3.60911111111111e+00 4.55223178768307e-02 6.91575889737871e-04
3.65755555555556e+00 4.38068013723510e-02 6.69965675788894e-04
3.70600000000000e+00 4.21559344047309e-02 6.48973789405904e-04
3.75444444444444e+00 4.05672806492064e-02 6.28585915270829e-04
3.80288888888889e+00 3.90384955859282e-02 6.08787842263960e-04
3.85133333333333e+00 3.75673230566893e-02 5.89565482028013e-04
3.89977777777778e+00 3.61515919193776e-02 5.70904886041023e-04
3.94822222222222e+00 3.47892128590043e-02 5.52792260008452e-04
3.99666666666667e+00 3.34781752930467e-02 5.35213978590731e-04
4.04511111111111e+00 3.22165444051818e-02 5.18156594995636e-04
4.09355555555556e+00 3.10024582991304e-02 5.01606852485116e-04
4.14200000000000e+00 2.98341252386354e-02 4.85551693089173e-04
4.19044444444444e+00 2.87098210149194e-02 4.69978265076241e-04
4.23888888888889e+00 2.76278863909890e-02 4.54873929689545e-04
4.28733333333333e+00 2.65867246635595e-02 4.40226266486316e-04
4.33577777777778e+00 2.55847992965519e-02 4.26023078090337e-04
4.38422222222222e+00 2.46206316631263e-02 4.12252393535068e-04
4.43266666666667e+00 2.36927988563837e-02 3.98902472191475e-04
4.48111111111111e+00 2.27999315900305e-02 3.85961804585873e-04
4.52955555555556e+00 2.19407121834948e-02 3.73419114816712e-04
4.57800000000000e+00 2.11138726094793e-02 3.61263361389237e-04
4.62644444444444e+00 2.03181926300900e-02 3.49483737489781e-04
4.67488888888889e+00 1.95524979889021e-02 3.38069671022998e-04
4.72333333333333e+00 1.88156586847998e-02 3.27010823951391e-04
4.77177777777778e+00 1.81065872978548e-02 3.16297091465421e-04
4.82022222222222e+00 1.74242373907075e-02 3.05918600417556e-04
4.86866666666667e+00 1.67676019596527e-02 2.95865708350368e-04
4.91711111111111e+00 1.61357119488761e-02 2.86129000614856e-04
4.96555555555556e+00 1.55276348241331e-02 2.76699288744308e-04
5.01400000000000e+00 1.49424731914775e-02 2.67567607926680e-04
5.06244444444444e+00 1.43793634777175e-02 2.58725214255560e-04
5.11088888888889e+00 1.38374746513650e-02 2.50163581968117e-04
5.15933333333333e+00 1.33160070006012e-02 2.41874400351169e-04
5.20777777777778e+00 1.28141909488789e-02 2.33849570663542e-04
5.25622222222222e+00 1.23312859231940e-02 2.26081202684782e-04
5.30466666666667e+00 1.18665792581818e-02 2.18561611783148e-04
5.35311111111111e+00 1.14193851446024e-02 2.11283314800702e-04
5.40155555555556e+00 1.09890436197027e-02 2.04239026893599e-04
5.45000000000000e+00 1.05749195899689e-02 1.97421657860370e-04
5.49844444444444e+00 1.01764018969984e-02 1.90824308413834e-04
5.54688888888889e+00 9.79290241256559e-03 1.84440266532451e-04
5.59533333333333e+00 9.42385517352918e-03 1.78263003670642e-04
5.64377777777778e+00 9.06871554385919e-03 1.72286171059313e-04
5.69222222222222e+00 8.72695941347942e-03 1.66503595828122e-04
5.74066666666667e+00 8.39808242285232e-03 1.60909277551950e-04
5.78911111111111e+00 8.08159921879783e-03 1.55497384060952e-04
5.83755555555556e+00 7.77704273983161e-03 1.50262247964223e-04
5.88600000000000e+00 7.48396352473404e-03 1.45198362886209e-04
5.93444444444444e+00 7.20192905129311e-03 1.40300379722696e-04
5.98288888888889e+00 6.93052309603216e-03 1.35563103005590e-04
6.03133333333333e+00 6.66934512182688e-03 1.30981487224017e-04
6.07977777777778e+00 6.41800968500600e-03 1.26550633256222e-04
6.12822222222222e+00 6.17614586823067e-03 1.22265784727242e-04
6.17666666666667e+00 5.94339673182624e-03 1.18122324700456e-04
6.22511111111111e+00 5.71941878710970e-03 1.14115771909585e-04
6.27355555555556e+00 5.50388149053727e-03 1.10241777517809e-04
6.32200000000000e+00 5.29646675447908e-03 1.06496121719458e-04
6.37044444444444e+00 5.09686847914053e-03 1.02874710391788e-04
6.41888888888889e+00 4.90479209953208e-03 9.93735718557635e-05
6.46733333333333e+00 4.71995415198921e-03 9.59888536403524e-05
6.51577777777778e+00 4.54208185465892e-03 9.27168193539814e-05
6.56422222222222e+00 4.37091270606130e-03 8.95538455354768e-05
6.61266666666667e+00 4.20619409685323e-03 8.64964187618473e-05
6.66111111111111e+00 4.04768293709227e-03 8.35411324692466e-05
6.70955555555556e+00 3.89514529819122e-03 8.06846841603504e-05
6.75800000000000e+00 3.74835606675451e-03 7.79238725289243e-05
6.80644444444444e+00 3.60709861325264e-03 7.52555946423465e-05
6.85488888888889e+00 3.47116447146787e-03 7.26768432212275e-05
6.90333333333333e+00 3.34035303166031e-03 7.01847039430006e-05
6.95177777777778e+00 3.21447124372804e-03 6.77763528393478e-05
7.00022222222222e+00 3.09333333305474e-03 6.54490536991932e-05
7.04866666666667e+00 2.97676052578923e-03 6.32001556662944e-05
7.09711111111111e+00 2.86458078505359e-03 6.10270906581505e-05
7.14555555555556e+00 2.75662855752067e-03 5.89273710666944e-05
7.19400000000000e+00 2.65274452847175e-03 5.68985874184819e-05
7.24244444444444e+00 2.55277538727582e-03 5.49384060901337e-05
7.29088888888889e+00 2.45657360056729e-03 5.30445671051238e-05
7.33933333333333e+00 2.36399719506194e-03 5.12148819611835e-05
7.38777777777778e+00 2.27490954751398e-03 4.94472315355340e-05
7.43622222222222e+00 2.18917918358733e-03 4.77395640068643e-05
7.48466666666667e+00 2.10667958345696e-03 4.60898929231803e-05
7.53311111111111e+00 2.02728899511915e-03 4.44962951587533e-05
7.58155555555556e+00 1.95089025502300e-03 4.29569090757746e-05
7.63000000000000e+00 1.87737061474805e-03 4.14699326689491e-05
7.67844444444444e+00 1.80662157500766e-03 4.00336217583249e-05
7.72688888888889e+00 1.73853872514792e-03 3.86462882477978e-05
7.77533333333333e+00 1.67302158942269e-03 3.73062984140591e-05
7.82377777777778e+00 1.60997347836526e-03 3.60120712579806e-05
7.87222222222222e+00 1.54930134642781e-03 3.47620768761037e-05
7.92066666666667e+00 1.49091565441867e-03 3.35548349406189e-05
7.96911111111111e+00 1.43473023737904e-03 3.23889131109206e-05
8.01755555555556e+00 1.38066217763027e-03 3.12629255934491e-05
8.06600000000000e+00 1.32863168212818e-03 3.01755316969763e-05
8.11444444444444e+00 1.27856196497047e-03 2.91254344279478e-05
8.16288888888889e+00 1.23037913382326e-03 2.81113791375687e-05
8.21133333333333e+00 1.18401208111472e-03 2.71321521961388e-05
8.25977777777778e+00 1.13939237886267e-03 2.61865797163616e-05
8.30822222222222e+00 1.09645417791226e-03 2.52735262962537e-05
8.35666666666667e+00 1.05513411059088e-03 2.43918938422657e-05
8.40511111111111e+00 1.01537119720260e-03 2.35406203505384e-05
8.45355555555556e+00 9.77106756175035e-04 2.27186787953412e-05
8.50200000000000e+00 9.40284317271994e-04 2.19250760191962e-05
8.55044444444444e+00 9.04849538433317e-04 2.11588516552277e-05
8.59888888888889e+00 8.70750125407144e-04 2.04190770895813e-05
8.64733333333333e+00 8.37935754737897e-04 1.97048544468657e-05
8.69577777777778e+00 8.06357999343237e-04 1.90153156133975e-05
8.74422222222222e+00 7.75970257195681e-04 1.83496212778461e-05
8.79266666666667e+00 7.46727682436577e-04 1.77069600309037e-05
8.84111111111111e+00 7.18587119200934e-04 1.70865474396369e-05
8.88955555555555e+00 6.91507038022648e-04 1.64876251991740e-05
8.93800000000000e+00 6.65447474420845e-04 1.59094602888202e-05
8.98644444444444e+00 6.40369970040516e-04 1.53513441535327e-05
9.03488888888889e+00 6.16237515781459e-04 1.48125919160355e-05
9.08333333333333e+00 5.93014497290576e-04 1.42925416076938e-05
9.13177777777778e+00 5.70666642297395e-04 1.37905534282237e-05
9.18022222222222e+00 5.49160970136310e-04 1.33060090200476e-05
9.22866666666667e+00 5.28465742999130e-04 1.28383107859235e-05
9.27711111111111e+00 5.08550419102034e-04 1.23868811915025e-05
9.32555555555555e+00 4.89385607675857e-04 1.19511621236101e-05
9.37400000000000e+00 4.70943025507265e-04 1.15306142538017e-05
9.42244444444444e+00 4.53195455279499e-04 1.11247164215632e-05
9.47088888888889e+00 4.36116705328010e-04 1.07329650407117e-05
9.51933333333333e+00 4.19681571061272e-04 1.03548735207118e-05
9.56777777777778e+00 4.03865797693106e-04 9.98997170978494e-06
9.61622222222222e+00 3.88646044515843e-04 9.63780534993358e-06
9.66466666666667e+00 3.73999850403773e-04 9.29793556359582e-06
9.71311111111111e+00 3.59905600668781e-04 8.96993833152325e-06
9.76155555555555e+00 3.46342495204574e-04 8.65340401076305e-06
9.81000000000000e+00 3.33290517733159e-04 8.34793685779958e-06
9.85844444444444e+00 3.20730406319670e-04 8.05315456673170e-06
9.90688888888889e+00 3.08643624893514e-04 7.76868782488251e-06
9.95533333333333e+00 2.97012335943215e-04 7.49417988006097e-06
1.00037777777778e+01 2.85819374143972e-04 7.22928612417342e-06
1.00522222222222e+01 2.75048221071346e-04 6.97367368019174e-06
1.01006666666667e+01 2.64682980828717e-04 6.72702104445433e-06
1.01491111111111e+01 2.54708356422022e-04 6.48901765690771e-06
1.01975555555556e+01 2.45109627520222e-04 6.25936356677622e-06
1.02460000000000e+01 2.35872628345349e-04 6.03776907686002e-06
1.02944444444444e+01 2.26983727136692e-04 5.82395439092075e-06
1.03428888888889e+01 2.18429805678694e-04 5.61764929104039e-06
1.03913333333333e+01 2.10198240281070e-04 5.41859280767153e-06
1.04397777777778e+01 2.02276882823192e-04 5.22653291753259e-06
1.04882222222222e+01 1.94654043138277e-04 5.04122622429701e-06
1.05366666666667e+01 1.87318471528977e-04 4.86243771871225e-06
1.05851111111111e+01 1.80259342181084e-04 4.68994042654486e-06
1.06335555555556e+01 1.73466237384127e-04 4.52351518079176e-06
1.06820000000000e+01 1.66929131895216e-04 4.36295035259375e-06
1.07304444444444e+01 1.60638378394917e-04 4.20804159018588e-06
1.07788888888889e+01 1.54584693009230e-04 4.05859157926244e-06
1.08273333333333e+01 1.48759141839251e-04 3.91440979891096e-06
1.08757777777778e+01 1.43153127555475e-04 3.77531229743819e-06
1.09242222222222e+01 1.37758376921991e-04 3.64112145684995e-06
1.09726666666667e+01 1.32566928429258e-04 3.51166581295028e-06
1.10211111111111e+01 1.27571120555327e-04 3.38677979819254e-06
1.10695555555556e+01 1.22763580593100e-04 3.26630357120389e-06
1.11180000000000e+01 1.18137213591821e-04 3.15008281815971e-06
1.11664444444444e+01 1.13685192057064e-04 3.03796856020294e-06
1.12148888888889e+01 1.09400945711196e-04 2.92981697615928e-06
1.12633333333333e+01 1.05278151953920e-04 2.82548922261462e-06
1.13117777777778e+01 1.01310726381039e-04 2.72485126819914e-06
1.13602222222222e+01 9.74928139493943e-05 2.62777372039954e-06
1.14086666666667e+01 9.38187802288053e-05 2.53413169134312e-06
1.14571111111111e+01 9.02832030941030e-05 2.44380461034119e-06
1.15055555555556e+01 8.68808648144769e-05 2.35667609692983e-06
1.15540000000000e+01 8.36067442320619e-05 2.27263381471076e-06
1.16024444444444e+01 8.04560094679521e-05 2.19156932971163e-06
1.16508888888889e+01 7.74240106799671e-05 2.11337797966951e-06
1.16993333333333e+01 7.45062733073071e-05 2.03795874178324e-06
1.17477777777778e+01 7.16984913646015e-05 1.96521411060978e-06
1.17962222222222e+01 6.89965211854371e-05 1.89504997104844e-06
1.18446666666667e+01 6.63963752341152e-05 1.82737549864798e-06
1.18931111111111e+01 6.38942162258203e-05 1.76210302319269e-06
1.19415555555556e+01 6.14863515258131e-05 1.69914793454286e-06
1.19900000000000e+01 5.91692276172923e-05 1.63842857537285e-06
1.20384444444444e+01 5.69394249363712e-05 1.57986613727188e-06
1.20868888888889e+01 5.47936527495575e-05 1.52338456464344e-06
1.21353333333333e+01 5.27287443701917e-05 1.46891045774799e-06
1.21837777777778e+01 5.07416524152088e-05 1.41637298298746e-06
1.22322222222222e+01 4.88294443748717e-05 1.36570377996708e-06
1.22806666666667e+01 4.69892982351611e-05 1.31683688772343e-06
1.23291111111111e+01 4.52184983164272e-05 1.26970864560799e-06
1.23775555555556e+01 4.35144313080940e-05 1.22425762370199e-06
1.24260000000000e+01 4.18745823555833e-05 1.18042454428532e-06
1.24744444444444e+01 4.02965314030064e-05 1.13815220579740e-06
1.25228888888889e+01 3.87779495698002e-05 1.09738541236461e-06
1.25713333333333e+01 3.73165957635532e-05 1.05807090287557e-06
1.26197777777778e+01 3.59103133248999e-05 1.02015728522493e-06
1.26682222222222e+01 3.45570268905324e-05 9.83594968448211e-07
1.27166666666667e+01 3.32547392963532e-05 9.48336108308312e-07
1.27651111111111e+01 3.20015286323625e-05 9.14334535378229e-07
1.28135555555556e+01 3.07955454353570e-05 8.81545703774923e-07
1.28620000000000e+01 2.96350099209746e-05 8.49926633782871e-07
1.29104444444444e+01 2.85182093940820e-05 8.19435856317478e-07
1.29588888888889e+01 2.74434956857346e-05 7.90033361361486e-07
1.30073333333333e+01 2.64092827548517e-05 7.61680546185714e-07
1.30557777777778e+01 2.54140443149184e-05 7.34340167258301e-07
1.31042222222222e+01 2.44563116128217e-05 7.07976290777773e-07
1.31526666666667e+01 2.35346712379947e-05 6.82554252651462e-07
1.32011111111111e+01 2.26477630380744e-05 6.58040606378262e-07
1.32495555555556e+01 2.17942781314721e-05 6.34403085380472e-07
1.32980000000000e+01 2.09729569493679e-05 6.11610561160573e-07
1.33464444444444e+01 2.01825874021577e-05 5.89633002812445e-07
1.33948888888889e+01 1.94220030663909e-05 5.68441439367616e-07
1.34433333333333e+01 1.86900814866672e-05 5.48007922059923e-07
1.34917777777778e+01 1.79857424967863e-05 5.28305489222081e-07
1.35402222222222e+01 1.73079466470895e-05 5.09308130287323e-07
1.35886666666667e+01 1.66556936545081e-05 4.90990756426267e-07
1.36371111111111e+01 1.60280209274164e-05 4.73329162820749e-07
1.36855555555556e+01 1.54240021586616e-05 4.56300001052391e-07
1.37340000000000e+01 1.48427459404626e-05 4.39880748637685e-07
1.37824444444444e+01 1.42833944662173e-05 4.24049679557430e-07
1.38308888888889e+01 1.37451222479290e-05 4.08785836808909e-07
1.38793333333333e+01 1.32271349139213e-05 3.94069004948774e-07
1.39277777777778e+01 1.27286680212005e-05 3.79879684513609e-07
1.39762222222222e+01 1.22489859419936e-05 3.66199065860936e-07
1.40246666666667e+01 1.17873807671893e-05 3.53009007673274e-07
1.40731111111111e+01 1.13431712623377e-05 3.40292009677076e-07
1.41215555555556e+01 1.09157018716267e-05 3.28031192445576e-07
1.41700000000000e+01 1.05043417380300e-05 3.16210275250886e-07
1.42184444444444e+01 1.01084837841857e-05 3.04813554644439e-07
1.42668888888889e+01 9.72754380507040e-06 2.93825884480424e-07
1.43153333333333e+01 9.36095961678434e-06 2.83232655965696e-07
1.43637777777778e+01 9.00819021638196e-06 2.73019779049098e-07
1.44122222222222e+01 8.66871499354732e-06 2.63173663437318e-07
1.44606666666667e+01 8.34203295478579e-06 2.53681202889074e-07
1.45091111111111e+01 8.02766198455886e-06 2.44529755505561e-07
1.45575555555556e+01 7.72513814019095e-06 2.35707128984364e-07
1.46060000000000e+01 7.43401495868319e-06 2.27201564539517e-07
1.46544444444444e+01 7.15386280599100e-06 2.19001721353948e-07
1.47028888888889e+01 6.88426823514268e-06 2.11096662061191e-07
1.47513333333333e+01 6.62483338359636e-06 2.03475838268454e-07
1.47997777777778e+01 6.37517537886571e-06 1.96129077035018e-07
1.48482222222222e+01 6.13492578040424e-06 1.89046567111375e-07
1.48966666666667e+01 5.90373003071608e-06 1.82218847484005e-07
1.49451111111111e+01 5.68124693244336e-06 1.75636793148059e-07
1.49935555555556e+01 5.46714814923326e-06 1.69291604359233e-07
1.50420000000000e+01 5.26111771533972e-06 1.63174794973488e-07
1.50904444444444e+01 5.06285157493334e-06 1.57278181175176e-07
1.51388888888889e+01 4.87205712799713e-06 1.51593870939243e-07
1.51873333333333e+01 4.68845280367679e-06 1.46114253538202e-07
1.52357777777778e+01 4.51176763978412e-06 1.40831989730401e-07
1.52842222222222e+01 4.34174088767265e-06 1.35740001796090e-07
