Energy (eV)          EEDF (eV^-(3/2))     First Anisotropy
1.50000000000000e-02 4.89108413353457e-01 4.05856524181037e-04
4.50000000000000e-02 4.80727478540115e-01 6.66683890596343e-04
7.50000000000000e-02 4.72490152109793e-01 8.70873099242874e-04
1.05000000000000e-01 4.64393973314572e-01 1.02049610619740e-03
1.35000000000000e-01 4.56436523571784e-01 1.14081222760243e-03
1.65000000000000e-01 4.48615425741485e-01 1.24152434316083e-03
1.95000000000000e-01 4.40928343416327e-01 1.32772957193761e-03
2.25000000000000e-01 4.33372980223602e-01 1.40255078634607e-03
2.55000000000000e-01 4.25947079139235e-01 1.46808845521831e-03
2.85000000000000e-01 4.18648421813552e-01 1.52584757446127e-03
3.15000000000000e-01 4.11474827908576e-01 1.57695708701038e-03
3.45000000000000e-01 4.04424154446704e-01 1.62229388714970e-03
3.75000000000000e-01 3.97494295170522e-01 1.66255801730002e-03
4.05000000000000e-01 3.90683179913607e-01 1.69832082615636e-03
4.35000000000000e-01 3.83988773982101e-01 1.73005718702940e-03
4.65000000000000e-01 3.77409077546882e-01 1.75816783783252e-03
4.95000000000000e-01 3.70942125046155e-01 1.78299534208031e-03
5.25000000000000e-01 3.64585984598277e-01 1.80483578600504e-03
5.55000000000000e-01 3.58338757424641e-01 1.82394754055656e-03
5.85000000000000e-01 3.52198577282454e-01 1.84055795105488e-03
6.15000000000000e-01 3.46163609907229e-01 1.85486853091248e-03
6.45000000000000e-01 3.40232052464836e-01 1.86705905426318e-03
6.75000000000000e-01 3.34402133012934e-01 1.87729082397445e-03
7.05000000000000e-01 3.28672109971642e-01 1.88570931246906e-03
7.35000000000000e-01 3.23040271603271e-01 1.89244631882711e-03
7.65000000000000e-01 3.17504935500973e-01 1.89762174808944e-03
7.95000000000000e-01 3.12064448086158e-01 1.90134509208944e-03
8.25000000000000e-01 3.06717184114512e-01 1.90371667200065e-03
8.55000000000000e-01 3.01461546190491e-01 1.90482868881557e-03
8.85000000000000e-01 2.96295964290127e-01 1.90476611763126e-03
9.15000000000000e-01 2.91218895292010e-01 1.90360747387311e-03
9.45000000000000e-01 2.86228822516314e-01 1.90142547372309e-03
9.75000000000000e-01 2.81324255271713e-01 1.89828760652956e-03
1.00500000000000e+00 2.76503728410065e-01 1.89425663350494e-03
1.03500000000000e+00 2.71765801888731e-01 1.88939102431241e-03
1.06500000000000e+00 2.67109060340384e-01 1.88374534101568e-03
1.09500000000000e+00 2.62532112650194e-01 1.87737057717795e-03
1.12500000000000e+00 2.58033591540264e-01 1.87031445855078e-03
1.15500000000000e+00 2.53612153161175e-01 1.86262171071043e-03
1.18500000000000e+00 2.49266476690538e-01 1.85433429812294e-03
1.21500000000000e+00 2.44995263938427e-01 1.84549163840608e-03
1.24500000000000e+00 2.40797238959561e-01 1.83613079497190e-03
1.27500000000000e+00 2.36671147672146e-01 1.82628665075238e-03
1.30500000000000e+00 2.32615757483239e-01 1.81599206531222e-03
1.33500000000000e+00 2.28629856920534e-01 1.80527801732169e-03
1.36500000000000e+00 2.24712255270454e-01 1.79417373408548e-03
1.39500000000000e+00 2.20861782222453e-01 1.78270680959074e-03
1.42500000000000e+00 2.17077287519406e-01 1.77090331234146e-03
1.45500000000000e+00 2.13357640613986e-01 1.75878788408065e-03
1.48500000000000e+00 2.09701730330943e-01 1.74638383036020e-03
1.51500000000000e+00 2.06108464535152e-01 1.73371320379838e-03
1.54500000000000e+00 2.02576769805364e-01 1.72079688076165e-03
1.57500000000000e+00 1.99105591113540e-01 1.70765463211915e-03
1.60500000000000e+00 1.95693891509679e-01 1.69430518864155e-03
1.63500000000000e+00 1.92340651812051e-01 1.68076630155069e-03
1.66500000000000e+00 1.89044870302734e-01 1.66705479866850e-03
1.69500000000000e+00 1.85805562428371e-01 1.65318663656426e-03
1.72500000000000e+00 1.82621760506051e-01 1.63917694905618e-03
1.75500000000000e+00 1.79492513434231e-01 1.62504009238505e-03
1.78500000000000e+00 1.76416886408618e-01 1.61078968734407e-03
1.81500000000000e+00 1.73393960642905e-01 1.59643865862066e-03
1.84500000000000e+00 1.70422833094307e-01 1.58199927157957e-03
1.87500000000000e+00 1.67502616193792e-01 1.56748316669399e-03
1.90500000000000e+00 1.64632437580936e-01 1.55290139181168e-03
1.93500000000000e+00 1.61811439843323e-01 1.53826443242451e-03
1.96500000000000e+00 1.59038780260404e-01 1.52358224009479e-03
1.99500000000000e+00 1.56313630551757e-01 1.50886425917672e-03
2.02500000000000e+00 1.53635176629650e-01 1.49411945195963e-03
2.05500000000000e+00 1.51002618355847e-01 1.47935632234778e-03
2.08500000000000e+00 1.48415169302581e-01 1.46458293818132e-03
2.11500000000000e+00 1.45872056517628e-01 1.44980695229450e-03
2.14500000000000e+00 1.43372520293395e-01 1.43503562239842e-03
2.17500000000000e+00 1.40915813939978e-01 1.42027582986890e-03
2.20500000000000e+00 1.38501203562097e-01 1.40553409751274e-03
2.23500000000000e+00 1.36127967839864e-01 1.39081660638027e-03
2.26500000000000e+00 1.33795397813295e-01 1.37612921168639e-03
2.29500000000000e+00 1.31502796670529e-01 1.36147745789735e-03
2.32500000000000e+00 1.29249479539663e-01 1.34686659303607e-03
2.35500000000000e+00 1.27034773284160e-01 1.33230158225510e-03
2.38500000000000e+00 1.24858016301766e-01 1.31778712072214e-03
2.41500000000000e+00 1.22718558326863e-01 1.30332764585987e-03
2.44500000000000e+00 1.20615760236219e-01 1.28892734897904e-03
2.47500000000000e+00 1.18548993858058e-01 1.27459018634042e-03
2.50500000000000e+00 1.16517641784409e-01 1.26031988967924e-03
2.53500000000000e+00 1.14521097186664e-01 1.24611997622298e-03
2.56500000000000e+00 1.12558763634299e-01 1.23199375823145e-03
2.59500000000000e+00 1.10630054916706e-01 1.21794435208594e-03
2.62500000000000e+00 1.08734394868068e-01 1.20397468695257e-03
2.65500000000000e+00 1.06871217195243e-01 1.19008751304322e-03
2.68500000000000e+00 1.05039965308593e-01 1.17628540949584e-03
2.71500000000000e+00 1.03240092155716e-01 1.16257079189466e-03
2.74500000000000e+00 1.01471060058022e-01 1.14894591944933e-03
2.77500000000000e+00 9.97323405501110e-02 1.13541290185084e-03
2.80500000000000e+00 9.80234142219050e-02 1.12197370582118e-03
2.83500000000000e+00 9.63437705634842e-02 1.10863016137230e-03
2.86500000000000e+00 9.46929078125810e-02 1.09538396778927e-03
2.89500000000000e+00 9.30703328046878e-02 1.08223669935137e-03
2.92500000000000e+00 9.14755608257337e-02 1.06918981080432e-03
2.95500000000000e+00 8.99081154672849e-02 1.05624464259588e-03
2.98500000000000e+00 8.83675284842267e-02 1.04340242588628e-03
3.01500000000000e+00 8.68533396548839e-02 1.03066428734451e-03
3.04500000000000e+00 8.53650966435382e-02 1.01803125374076e-03
3.07500000000000e+00 8.39023548653014e-02 1.00550425634456e-03
3.10500000000000e+00 8.24646773533036e-02 9.93084135137729e-04
3.13500000000000e+00 8.10516346281580e-02 9.80771642851065e-04
3.16500000000000e+00 7.96628045696616e-02 9.68567448832702e-04
3.19500000000000e+00 7.82977722906947e-02 9.56472142755920e-04
3.22500000000000e+00 7.69561300132809e-02 9.44486238173637e-04
3.25500000000000e+00 7.56374769467717e-02 9.32610175926732e-04
3.28500000000000e+00 7.43414191681170e-02 9.20844327412561e-04
3.31500000000000e+00 7.30675695041881e-02 9.09188997719859e-04
3.34500000000000e+00 7.18155474161174e-02 8.97644428636113e-04
3.37500000000000e+00 7.05849788856189e-02 8.86210801532847e-04
3.40500000000000e+00 6.93754963032575e-02 8.74888240134231e-04
3.43500000000000e+00 6.81867383586324e-02 8.63676813173872e-04
3.46500000000000e+00 6.70183499324427e-02 8.52576536944815e-04
3.49500000000000e+00 6.58699819904015e-02 8.41587377747284e-04
3.52500000000000e+00 6.47412914789692e-02 8.30709254238295e-04
3.55500000000000e+00 6.36319412228717e-02 8.19942039687483e-04
3.58500000000000e+00 6.25415998243763e-02 8.09285564142942e-04
3.61500000000000e+00 6.14699415642927e-02 7.98739616510896e-04
3.64500000000000e+00 6.04166463046700e-02 7.88303946552807e-04
3.67500000000000e+00 5.93813993931620e-02 7.77978266803157e-04
3.70500000000000e+00 5.83638915690305e-02 7.67762254411257e-04
3.73500000000000e+00 5.73638188707589e-02 7.57655552910190e-04
3.76500000000000e+00 5.63808825452504e-02 7.47657773915799e-04
3.79500000000000e+00 5.54147889585802e-02 7.37768498758553e-04
3.82500000000000e+00 5.44652495082779e-02 7.27987280050953e-04
3.85500000000000e+00 5.35319805371135e-02 7.18313643193092e-04
3.88500000000000e+00 5.26147032483595e-02 7.08747087818757e-04
3.91500000000000e+00 5.17131436225057e-02 6.99287089184506e-04
3.94500000000000e+00 5.08270323354011e-02 6.89933099503935e-04
3.97500000000000e+00 4.99561046777983e-02 6.80684549229222e-04
4.00500000000000e+00 4.91001004762763e-02 6.71540848282072e-04
4.03500000000000e+00 4.82587640155189e-02 6.62501387236052e-04
4.06500000000000e+00 4.74318439619243e-02 6.53565538452105e-04
4.09500000000000e+00 4.66190932885239e-02 6.44732657169123e-04
4.12500000000000e+00 4.58202692011875e-02 6.36002082551276e-04
4.15500000000000e+00 4.50351330660933e-02 6.27373138693766e-04
4.18500000000000e+00 4.42634503384404e-02 6.18845135588632e-04
4.21500000000000e+00 4.35049904923827e-02 6.10417370051982e-04
4.24500000000000e+00 4.27595269521638e-02 6.02089126614295e-04
4.27500000000000e+00 4.20268370244319e-02 5.93859678375147e-04
4.30500000000000e+00 4.13067018317137e-02 5.85728287823552e-04
4.33500000000000e+00 4.05989062470296e-02 5.77694207625395e-04
4.36500000000000e+00 3.99032388296279e-02 5.69756681379157e-04
4.39500000000000e+00 3.92194917618210e-02 5.61914944341016e-04
4.42500000000000e+00 3.85474607869040e-02 5.54168224120587e-04
4.45500000000000e+00 3.78869451481365e-02 5.46515741348310e-04
4.48500000000000e+00 3.72377475287702e-02 5.38956710315600e-04
4.51500000000000e+00 3.65996739931047e-02 5.31490339588763e-04
4.54500000000000e+00 3.59725339285520e-02 5.24115832597583e-04
4.57500000000000e+00 3.53561399886955e-02 5.16832388199610e-04
4.60500000000000e+00 3.47503080373230e-02 5.09639201220984e-04
4.63500000000000e+00 3.41548570934196e-02 5.02535462974677e-04
4.66500000000000e+00 3.35696092771033e-02 4.95520361757013e-04
4.69500000000000e+00 3.29943897564864e-02 4.88593083323210e-04
4.72500000000000e+00 3.24290266954478e-02 4.81752811342733e-04
4.75500000000000e+00 3.18733512023001e-02 4.74998727835239e-04
4.78500000000000e+00 3.13271972793367e-02 4.68330013587808e-04
4.81500000000000e+00 3.07904017732423e-02 4.61745848554085e-04
4.84500000000000e+00 3.02628043263550e-02 4.55245412236063e-04
4.87500000000000e+00 2.97442473287612e-02 4.48827884049154e-04
4.90500000000000e+00 2.92345758712138e-02 4.42492443671100e-04
4.93500000000000e+00 2.87336376988547e-02 4.36238271375331e-04
4.96500000000000e+00 2.82412831657328e-02 4.30064548349378e-04
4.99500000000000e+00 2.77573651900988e-02 4.23970456998832e-04
5.02500000000000e+00 2.72817392104683e-02 4.17955181237444e-04
5.05500000000000e+00 2.68142631424359e-02 4.12017906763805e-04
5.08500000000000e+00 2.63547973362310e-02 4.06157821325140e-04
5.11500000000000e+00 2.59032045349993e-02 4.00374114968664e-04
5.14500000000000e+00 2.54593498338000e-02 3.94665980280949e-04
5.17500000000000e+00 2.50231006393060e-02 3.89032612615819e-04
5.20500000000000e+00 2.45943266301933e-02 3.83473210311082e-04
5.23500000000000e+00 2.41728997182106e-02 3.77986974894548e-04
5.26500000000000e+00 2.37586940099150e-02 3.72573111279768e-04
5.29500000000000e+00 2.33515857690637e-02 3.67230827951858e-04
5.32500000000000e+00 2.29514533796502e-02 3.61959337143718e-04
5.35500000000000e+00 2.25581773095736e-02 3.56757855003035e-04
5.38500000000000e+00 2.21716400749310e-02 3.51625601750463e-04
5.41500000000000e+00 2.17917262049209e-02 3.46561801829230e-04
5.44500000000000e+00 2.14183222073487e-02 3.41565684046504e-04
5.47500000000000e+00 2.10513165347228e-02 3.36636481706877e-04
5.50500000000000e+00 2.06905995509325e-02 3.31773432738191e-04
5.53500000000000e+00 2.03360634984953e-02 3.26975779810023e-04
5.56500000000000e+00 1.99876024663671e-02 3.22242770445122e-04
5.59500000000000e+00 1.96451123583030e-02 3.17573657124044e-04
5.62500000000000e+00 1.93084908617605e-02 3.12967697383222e-04
5.65500000000000e+00 1.89776374173353e-02 3.08424153906771e-04
5.68500000000000e+00 1.86524531887215e-02 3.03942294612183e-04
5.71500000000000e+00 1.83328410331859e-02 2.99521392730223e-04
5.74500000000000e+00 1.80187054725481e-02 2.95160726879242e-04
5.77500000000000e+00 1.77099526646587e-02 2.90859581134045e-04
5.80500000000000e+00 1.74064903753654e-02 2.86617245089594e-04
5.83500000000000e+00 1.71082279509597e-02 2.82433013919741e-04
5.86500000000000e+00 1.68150762910961e-02 2.78306188431136e-04
5.89500000000000e+00 1.65269478221747e-02 2.74236075112552e-04
5.92500000000000e+00 1.62437564711805e-02 2.70221986179765e-04
5.95500000000000e+00 1.59654176399704e-02 2.66263239616195e-04
5.98500000000000e+00 1.56918481800013e-02 2.62359159209446e-04
6.01500000000000e+00 1.54229663674909e-02 2.58509074583922e-04
6.04500000000000e+00 1.51586918790044e-02 2.54712321229690e-04
6.07500000000000e+00 1.48989457674592e-02 2.50968240527712e-04
6.10500000000000e+00 1.46436504385409e-02 2.47276179771598e-04
6.13500000000000e+00 1.43927296275238e-02 2.43635492186045e-04
6.16500000000000e+00 1.41461083764877e-02 2.40045536942074e-04
6.19500000000000e+00 1.39037130119260e-02 2.36505679169186e-04
6.22500000000000e+00 1.36654711227370e-02 2.33015289964606e-04
6.25500000000000e+00 1.34313115385924e-02 2.29573746399692e-04
6.28500000000000e+00 1.32011643086765e-02 2.26180431523652e-04
6.31500000000000e+00 1.29749606807898e-02 2.22834734364685e-04
6.34500000000000e+00 1.27526330808103e-02 2.19536049928639e-04
6.37500000000000e+00 1.25341150925074e-02 2.16283779195289e-04
6.40500000000000e+00 1.23193414377010e-02 2.13077329112380e-04
6.43500000000000e+00 1.21082479567607e-02 2.09916112587490e-04
6.46500000000000e+00 1.19007715894397e-02 2.06799548477805e-04
6.49500000000000e+00 1.16968503560366e-02 2.03727061577941e-04
6.52500000000000e+00 1.14964233388799e-02 2.00698082605854e-04
6.55500000000000e+00 1.12994306641302e-02 1.97712048186982e-04
6.58500000000000e+00 1.11058134838940e-02 1.94768400836625e-04
6.61500000000000e+00 1.09155139586439e-02 1.91866588940703e-04
6.64500000000000e+00 1.07284752399400e-02 1.89006066734951e-04
6.67500000000000e+00 1.05446414534480e-02 1.86186294282633e-04
6.70500000000000e+00 1.03639576822471e-02 1.83406737450825e-04
6.73500000000000e+00 1.01863699504250e-02 1.80666867885350e-04
6.76500000000000e+00 1.00118252069535e-02 1.77966162984451e-04
6.79500000000000e+00 9.84027130984067e-03 1.75304105871229e-04
6.82500000000000e+00 9.67165701055400e-03 1.72680185364939e-04
6.85500000000000e+00 9.50593193871125e-03 1.70093895951180e-04
6.88500000000000e+00 9.34304658703303e-03 1.67544737751064e-04
6.91500000000000e+00 9.18295229655348e-03 1.65032216489401e-04
6.94500000000000e+00 9.02560124208431e-03 1.62555843461956e-04
6.97500000000000e+00 8.87094641792789e-03 1.60115135501825e-04
7.00500000000000e+00 8.71894162383521e-03 1.57709614945006e-04
7.03500000000000e+00 8.56954145120440e-03 1.55338809595177e-04
7.06500000000000e+00 8.42270126951573e-03 1.53002252687756e-04
7.09500000000000e+00 8.27837721299911e-03 1.50699482853275e-04
7.12500000000000e+00 8.13652616753001e-03 1.48430044080109e-04
7.15500000000000e+00 7.99710575774988e-03 1.46193485676610e-04
7.18500000000000e+00 7.86007433440733e-03 1.43989362232679e-04
7.21500000000000e+00 7.72539096191619e-03 1.41817233580831e-04
7.24500000000000e+00 7.59301540612676e-03 1.39676664756756e-04
7.27500000000000e+00 7.46290812230660e-03 1.37567225959448e-04
7.30500000000000e+00 7.33503024332728e-03 1.35488492510912e-04
7.33500000000000e+00 7.20934356805357e-03 1.33440044815498e-04
7.36500000000000e+00 7.08581054993154e-03 1.31421468318895e-04
7.39500000000000e+00 6.96439428577225e-03 1.29432353466786e-04
7.42500000000000e+00 6.84505850472755e-03 1.27472295663244e-04
7.45500000000000e+00 6.72776755745493e-03 1.25540895228848e-04
7.48500000000000e+00 6.61248640546785e-03 1.23637757358566e-04
7.51500000000000e+00 6.49918061066873e-03 1.21762492079456e-04
7.54500000000000e+00 6.38781632506113e-03 1.19914714208166e-04
7.57500000000000e+00 6.27836028063835e-03 1.18094043308284e-04
7.60500000000000e+00 6.17077977944522e-03 1.16300103647567e-04
7.63500000000000e+00 6.06504268381018e-03 1.14532524155040e-04
7.66500000000000e+00 5.96111740674473e-03 1.12790938378025e-04
7.69500000000000e+00 5.85897290250747e-03 1.11074984439092e-04
7.72500000000000e+00 5.75857865732971e-03 1.09384304992971e-04
7.75500000000000e+00 5.65990468030006e-03 1.07718547183424e-04
7.78500000000000e+00 5.56292149440521e-03 1.06077362600117e-04
7.81500000000000e+00 5.46760012772421e-03 1.04460407235498e-04
7.84500000000000e+00 5.37391210477367e-03 1.02867341441686e-04
7.87500000000000e+00 5.28182943800123e-03 1.01297829887418e-04
7.90500000000000e+00 5.19132461942477e-03 9.97515415150402e-05
7.93500000000000e+00 5.10237061241497e-03 9.82281494975699e-05
7.96500000000000e+00 5.01494084361858e-03 9.67273311958488e-05
7.99500000000000e+00 4.92900919502011e-03 9.52487681157785e-05
8.02500000000000e+00 4.84454999613962e-03 9.37921458656867e-05
8.05500000000000e+00 4.76153801636409e-03 9.23571541137998e-05
8.08500000000000e+00 4.67994845741025e-03 9.09434865458482e-05
8.11500000000000e+00 4.59975694591659e-03 8.95508408228344e-05
8.14500000000000e+00 4.52093952616221e-03 8.81789185389377e-05
8.17500000000000e+00 4.44347265291057e-03 8.68274251795970e-05
8.20500000000000e+00 4.36733318437572e-03 8.54960700797646e-05
8.23500000000000e+00 4.29249837530918e-03 8.41845663823463e-05
8.26500000000000e+00 4.21894587020517e-03 8.28926309968380e-05
8.29500000000000e+00 4.14665369662235e-03 8.16199845581536e-05
8.32500000000000e+00 4.07560025861996e-03 8.03663513856807e-05
8.35500000000000e+00 4.00576433030643e-03 7.91314594425372e-05
8.38500000000000e+00 3.93712504949852e-03 7.79150402950562e-05
8.41500000000000e+00 3.86966191148918e-03 7.67168290725124e-05
8.44500000000000e+00 3.80335476292209e-03 7.55365644270714e-05
8.47500000000000e+00 3.73818379577127e-03 7.43739884939901e-05
8.50500000000000e+00 3.67412954142379e-03 7.32288468520718e-05
8.53500000000000e+00 3.61117286486386e-03 7.21008884843643e-05
8.56500000000000e+00 3.54929495895662e-03 7.09898657391181e-05
8.59500000000000e+00 3.48847733882986e-03 6.98955342910213e-05
8.62500000000000e+00 3.42870183635199e-03 6.88176531026932e-05
8.65500000000000e+00 3.36995059470470e-03 6.77559843864492e-05
8.68500000000000e+00 3.31220606304849e-03 6.67102935663473e-05
8.71500000000000e+00 3.25545099127974e-03 6.56803492405100e-05
8.74500000000000e+00 3.19966842487755e-03 6.46659231437378e-05
8.77500000000000e+00 3.14484169983889e-03 6.36667901104004e-05
8.80500000000000e+00 3.09095443770055e-03 6.26827280376190e-05
8.83500000000000e+00 3.03799054064634e-03 6.17135178487411e-05
8.86500000000000e+00 2.98593418669822e-03 6.07589434571158e-05
8.89500000000000e+00 2.93476982498974e-03 5.98187917301577e-05
8.92500000000000e+00 2.88448217112054e-03 5.88928524537075e-05
8.95500000000000e+00 2.83505620259039e-03 5.79809182967007e-05
8.98500000000000e+00 2.78647715431150e-03 5.70827847761356e-05
9.01500000000000e+00 2.73873051419776e-03 5.61982502223394e-05
9.04500000000000e+00 2.69180201882948e-03 5.53271157445451e-05
9.07500000000000e+00 2.64567764919249e-03 5.44691851967710e-05
9.10500000000000e+00 2.60034362649021e-03 5.36242651440044e-05
9.13500000000000e+00 2.55578640802747e-03 5.27921648286985e-05
9.16500000000000e+00 2.51199268316493e-03 5.19726961375707e-05
9.19500000000000e+00 2.46894936934273e-03 5.11656735687129e-05
9.22500000000000e+00 2.42664360817234e-03 5.03709141990096e-05
9.25500000000000e+00 2.38506276159535e-03 4.95882376518606e-05
9.28500000000000e+00 2.34419440810810e-03 4.88174660652185e-05
9.31500000000000e+00 2.30402633905094e-03 4.80584240599347e-05
9.34500000000000e+00 2.26454655496119e-03 4.73109387084072e-05
9.37500000000000e+00 2.22574326198847e-03 4.65748395035419e-05
9.40500000000000e+00 2.18760486837153e-03 4.58499583280214e-05
9.43500000000000e+00 2.15011998097542e-03 4.51361294238796e-05
9.46500000000000e+00 2.11327740188800e-03 4.44331893623844e-05
