Energy (eV)          EEDF (eV^-(3/2))     First Anisotropy
2.41333333333333e-02 3.67823294711530e-01 3.51854675835269e-04
7.24000000000000e-02 3.59445039236923e-01 5.76332465935727e-04
1.20666666666667e-01 3.51257623140695e-01 7.48526964014156e-04
1.68933333333333e-01 3.43256699482268e-01 8.72094155833110e-04
2.17200000000000e-01 3.35438020334540e-01 9.69316580662059e-04
2.65466666666667e-01 3.27797434585315e-01 1.04883256572910e-03
3.13733333333333e-01 3.20330885600288e-01 1.11521859641385e-03
3.62000000000000e-01 3.13034409182279e-01 1.17130074787920e-03
4.10266666666667e-01 3.05904131450508e-01 1.21899380376677e-03
4.58533333333333e-01 2.98936266723055e-01 1.25967896299499e-03
5.06800000000000e-01 2.92127115567433e-01 1.29439864678664e-03
5.55066666666667e-01 2.85473062829817e-01 1.32396698907478e-03
6.03333333333333e-01 2.78970575675760e-01 1.34903707355633e-03
6.51600000000000e-01 2.72616201754421e-01 1.37014414988894e-03
6.99866666666667e-01 2.66406567361904e-01 1.38773465728173e-03
7.48133333333333e-01 2.60338375621306e-01 1.40218642098568e-03
7.96400000000000e-01 2.54408404761171e-01 1.41382313684670e-03
8.44666666666667e-01 2.48613506402577e-01 1.42292503191282e-03
8.92933333333333e-01 2.42950603865705e-01 1.42973687834371e-03
9.41200000000000e-01 2.37416690558330e-01 1.43447413647654e-03
9.89466666666667e-01 2.32008828377887e-01 1.43732774727508e-03
1.03773333333333e+00 2.26724146134314e-01 1.43846792245800e-03
1.08600000000000e+00 2.21559838028261e-01 1.43804717792184e-03
1.13426666666667e+00 2.16513162232438e-01 1.43620281095470e-03
1.18253333333333e+00 2.11581439280560e-01 1.43305891923173e-03
1.23080000000000e+00 2.06762050785033e-01 1.42872806646500e-03
1.27906666666667e+00 2.02052438037479e-01 1.42331270179346e-03
1.32733333333333e+00 1.97450100535787e-01 1.41690633179604e-03
1.37560000000000e+00 1.92952594772016e-01 1.40959451470055e-03
1.42386666666667e+00 1.88557532927771e-01 1.40145573358901e-03
1.47213333333333e+00 1.84262581510956e-01 1.39256212621567e-03
1.52040000000000e+00 1.80065460213268e-01 1.38298011601742e-03
1.56866666666667e+00 1.75963940693673e-01 1.37277098190149e-03
1.61693333333333e+00 1.71955845314741e-01 1.36199133741236e-03
1.66520000000000e+00 1.68039046067876e-01 1.35069355137471e-03
1.71346666666667e+00 1.64211463438735e-01 1.33892613765548e-03
1.76173333333333e+00 1.60471065234524e-01 1.32673408340259e-03
1.81000000000000e+00 1.56815865574413e-01 1.31415914077520e-03
1.85826666666667e+00 1.53243923831232e-01 1.30124010400356e-03
1.90653333333333e+00 1.49753343542248e-01 1.28801304214674e-03
1.95480000000000e+00 1.46342271461818e-01 1.27451150807670e-03
2.00306666666667e+00 1.43008896574163e-01 1.26076674176518e-03
2.05133333333333e+00 1.39751449080969e-01 1.24680784010547e-03
2.09960000000000e+00 1.36568199513209e-01 1.23266191068454e-03
2.14786666666667e+00 1.33457457810134e-01 1.21835422492825e-03
2.19613333333333e+00 1.30417572377788e-01 1.20390834497702e-03
2.24440000000000e+00 1.27446929256832e-01 1.18934623938946e-03
2.29266666666667e+00 1.24543951263283e-01 1.17468840109545e-03
2.34093333333333e+00 1.21707097112572e-01 1.15995394408820e-03
2.38920000000000e+00 1.18934860640264e-01 1.14516069213271e-03
2.43746666666667e+00 1.16225770000366e-01 1.13032527132675e-03
2.48573333333333e+00 1.13578386850075e-01 1.11546318503364e-03
2.53400000000000e+00 1.10991305620337e-01 1.10058888297917e-03
2.58226666666667e+00 1.08463152767845e-01 1.08571583504691e-03
2.63053333333333e+00 1.05992586016046e-01 1.07085659017613e-03
2.67880000000000e+00 1.03578293672596e-01 1.05602283090922e-03
2.72706666666667e+00 1.01218993931428e-01 1.04122543302544e-03
2.77533333333333e+00 9.89134341659586e-02 1.02647451239424e-03
2.82360000000000e+00 9.66603902906111e-02 1.01177946852943e-03
2.87186666666667e+00 9.44586661095938e-02 9.97149033338496e-04
2.92013333333333e+00 9.23070926585702e-02 9.82591308776000e-04
2.96840000000000e+00 9.02045276075541e-02 9.68113801957413e-04
3.01666666666667e+00 8.81498546532612e-02 9.53723465407214e-04
3.06493333333333e+00 8.61419829058083e-02 9.39426727581472e-04
3.11320000000000e+00 8.41798463304175e-02 9.25229521409639e-04
3.16146666666667e+00 8.22624031804171e-02 9.11137317808144e-04
3.20973333333333e+00 8.03886354257992e-02 8.97155150604169e-04
3.25800000000000e+00 7.85575482313057e-02 8.83287639896491e-04
3.30626666666667e+00 7.67681694273525e-02 8.69539020167144e-04
3.35453333333333e+00 7.50195489775154e-02 8.55913160758980e-04
3.40280000000000e+00 7.33107584907041e-02 8.42413585107508e-04
3.45106666666667e+00 7.16408907274674e-02 8.29043494471298e-04
3.49933333333333e+00 7.00090591036960e-02 8.15805784843098e-04
3.54760000000000e+00 6.84143972347208e-02 8.02703062859286e-04
3.59586666666667e+00 6.68560584746283e-02 7.89737665941947e-04
3.64413333333333e+00 6.53332154536694e-02 7.76911676323936e-04
3.69240000000000e+00 6.38450596522421e-02 7.64226934262082e-04
3.74066666666667e+00 6.23908009710084e-02 7.51685055214771e-04
3.78893333333333e+00 6.09696672996779e-02 7.39287441513241e-04
3.83720000000000e+00 5.95809041189597e-02 7.27035293370322e-04
3.88546666666667e+00 5.82237740994172e-02 7.14929623590014e-04
3.93373333333333e+00 5.68975566994664e-02 7.02971267305805e-04
3.98200000000000e+00 5.56015477934944e-02 6.91160891175143e-04
4.03026666666667e+00 5.43350592975298e-02 6.79499006020199e-04
4.07853333333333e+00 5.30974187944477e-02 6.67985974969254e-04
4.12680000000000e+00 5.18879691865642e-02 6.56622021149281e-04
4.17506666666667e+00 5.07060683463277e-02 6.45407238581936e-04
4.22333333333333e+00 4.95510887668665e-02 6.34341598998609e-04
4.27160000000000e+00 4.84224172374719e-02 6.23424958283387e-04
4.31986666666667e+00 4.73194545176367e-02 6.12657065889624e-04
4.36813333333333e+00 4.62416150112125e-02 6.02037570548187e-04
4.41640000000000e+00 4.51883264632939e-02 5.91566025666097e-04
4.46466666666667e+00 4.41590296560416e-02 5.81241897482642e-04
4.51293333333333e+00 4.31531781048387e-02 5.71064569850321e-04
4.56120000000000e+00 4.21702377751810e-02 5.61033348757310e-04
4.60946666666667e+00 4.12096867988285e-02 5.51147469405019e-04
4.65773333333333e+00 4.02710151904609e-02 5.41406100209428e-04
4.70600000000000e+00 3.93537245832685e-02 5.31808346586035e-04
4.75426666666667e+00 3.84573279640723e-02 5.22353257101012e-04
4.80253333333333e+00 3.75813494090841e-02 5.13039826815146e-04
4.85080000000000e+00 3.67253238369748e-02 5.03867000446164e-04
4.89906666666667e+00 3.58887967616948e-02 4.94833677721529e-04
4.94733333333333e+00 3.50713240460412e-02 4.85938716166589e-04
4.99560000000000e+00 3.42724716710573e-02 4.77180933740113e-04
5.04386666666667e+00 3.34918155053713e-02 4.68559113496959e-04
5.09213333333333e+00 3.27289410753606e-02 4.60072005905395e-04
5.14040000000000e+00 3.19834433498129e-02 4.51718331036008e-04
5.18866666666667e+00 3.12549265246774e-02 4.43496782626246e-04
5.23693333333333e+00 3.05430038087017e-02 4.35406029998205e-04
5.28520000000000e+00 2.98472972223521e-02 4.27444719868356e-04
5.33346666666667e+00 2.91674373969465e-02 4.19611479892406e-04
5.38173333333333e+00 2.85030633747172e-02 4.11904920243702e-04
5.43000000000000e+00 2.78538224210508e-02 4.04323635100638e-04
5.47826666666667e+00 2.72193698370434e-02 3.96866205739078e-04
5.52653333333333e+00 2.65993687730116e-02 3.89531201822207e-04
5.57480000000000e+00 2.59934900531770e-02 3.82317182613733e-04
5.62306666666667e+00 2.54014120007444e-02 3.75222699675766e-04
5.67133333333333e+00 2.48228202639534e-02 3.68246297913172e-04
5.71960000000000e+00 2.42574076523864e-02 3.61386516553475e-04
5.76786666666667e+00 2.37048739737340e-02 3.54641891500082e-04
5.81613333333333e+00 2.31649258715390e-02 3.48010956167793e-04
5.86440000000000e+00 2.26372766723618e-02 3.41492242264194e-04
5.91266666666667e+00 2.21216462334516e-02 3.35084281841409e-04
5.96093333333333e+00 2.16177607913938e-02 3.28785607954049e-04
6.00920000000000e+00 2.11253528194156e-02 3.22594755271746e-04
6.05746666666667e+00 2.06441608852352e-02 3.16510261866911e-04
6.10573333333333e+00 2.01739295098758e-02 3.10530669721806e-04
6.15400000000000e+00 1.97144090344428e-02 3.04654525197616e-04
6.20226666666667e+00 1.92653554874692e-02 2.98880380590801e-04
6.25053333333333e+00 1.88265304532127e-02 2.93206794512105e-04
6.29880000000000e+00 1.83977009472768e-02 2.87632332233937e-04
6.34706666666667e+00 1.79786392928189e-02 2.82155567043694e-04
6.39533333333333e+00 1.75691229976907e-02 2.76775080514292e-04
6.44360000000000e+00 1.71689346383187e-02 2.71489462748511e-04
6.49186666666667e+00 1.67778617441830e-02 2.66297313554089e-04
6.54013333333333e+00 1.63956966832044e-02 2.61197242622585e-04
6.58840000000000e+00 1.60222365533390e-02 2.56187869686646e-04
6.63666666666667e+00 1.56572830747740e-02 2.51267825538609e-04
6.68493333333333e+00 1.53006424830071e-02 2.46435752132129e-04
6.73320000000000e+00 1.49521254276434e-02 2.41690302666143e-04
6.78146666666667e+00 1.46115468717939e-02 2.37030142465967e-04
6.82973333333333e+00 1.42787259923284e-02 2.32453949020086e-04
6.87800000000000e+00 1.39534860853986e-02 2.27960412002646e-04
6.92626666666667e+00 1.36356544725569e-02 2.23548234033747e-04
6.97453333333333e+00 1.33250624077013e-02 2.19216130662075e-04
7.02280000000000e+00 1.30215449888784e-02 2.14962830336072e-04
7.07106666666667e+00 1.27249410706736e-02 2.10787075058109e-04
7.11933333333333e+00 1.24350931773978e-02 2.06687620322105e-04
7.16760000000000e+00 1.21518474207544e-02 2.02663235042151e-04
7.21586666666667e+00 1.18750534180816e-02 1.98712702113437e-04
7.26413333333333e+00 1.16045642113614e-02 1.94834818312782e-04
7.31240000000000e+00 1.13402361903612e-02 1.91028394192224e-04
7.36066666666667e+00 1.10819290163382e-02 1.87292254558059e-04
7.40893333333333e+00 1.08295055464788e-02 1.83625238341061e-04
7.45720000000000e+00 1.05828317621514e-02 1.80026198461513e-04
7.50546666666667e+00 1.03417766977086e-02 1.76494002236360e-04
7.55373333333333e+00 1.01062123699910e-02 1.73027531224956e-04
7.60200000000000e+00 9.87601371135412e-03 1.69625681071095e-04
7.65026666666667e+00 9.65105850322517e-03 1.66287361847110e-04
7.69853333333333e+00 9.43122731033366e-03 1.63011497880131e-04
7.74680000000000e+00 9.21640341819306e-03 1.59797027575898e-04
7.79506666666667e+00 9.00647277109678e-03 1.56642903707596e-04
7.84333333333333e+00 8.80132391075640e-03 1.53548093226911e-04
7.89160000000000e+00 8.60084791794342e-03 1.50511577073710e-04
7.93986666666667e+00 8.40493835462722e-03 1.47532350416482e-04
7.98813333333333e+00 8.21349120672528e-03 1.44609422451874e-04
8.03640000000000e+00 8.02640482962875e-03 1.41741816203731e-04
8.08466666666667e+00 7.84357989420551e-03 1.38928568721211e-04
8.13293333333333e+00 7.66491933338653e-03 1.36168730869929e-04
8.18120000000000e+00 7.49032829131713e-03 1.33461367123355e-04
8.22946666666667e+00 7.31971407296701e-03 1.30805555723962e-04
8.27773333333333e+00 7.15298609429531e-03 1.28200388468642e-04
8.32600000000000e+00 6.99005583478657e-03 1.25644970495004e-04
8.37426666666667e+00 6.83083679042688e-03 1.23138420410293e-04
8.42253333333333e+00 6.67524442720735e-03 1.20679870073346e-04
8.47080000000000e+00 6.52319613682004e-03 1.18268464377945e-04
8.51906666666667e+00 6.37461119277519e-03 1.15903361353686e-04
8.56733333333333e+00 6.22941070701924e-03 1.13583731946399e-04
8.61560000000000e+00 6.08751758858062e-03 1.11308759800378e-04
8.66386666666667e+00 5.94885650261824e-03 1.09077641334894e-04
8.71213333333333e+00 5.81335382994519e-03 1.06889585524686e-04
8.76040000000000e+00 5.68093762842819e-03 1.04743813682608e-04
8.80866666666667e+00 5.55153759477162e-03 1.02639559515051e-04
8.85693333333333e+00 5.42508502675197e-03 1.00576068903859e-04
8.90520000000000e+00 5.30151278718788e-03 9.85525996906673e-05
8.95346666666667e+00 5.18075526827692e-03 9.65684217141085e-05
9.00173333333333e+00 5.06274835635905e-03 9.46228165942872e-05
9.05000000000000e+00 4.94742939828632e-03 9.27150775198721e-05
9.09826666666667e+00 4.83473716814185e-03 9.08445092696328e-05
9.14653333333333e+00 4.72461183436272e-03 8.90104280003883e-05
9.19480000000000e+00 4.61699492834974e-03 8.72121610377405e-05
9.24306666666667e+00 4.51182931340946e-03 8.54490468841727e-05
9.29133333333333e+00 4.40905915407842e-03 8.37204350112366e-05
9.33960000000000e+00 4.30862988682382e-03 8.20256856546335e-05
9.38786666666667e+00 4.21048819106019e-03 8.03641698108555e-05
9.43613333333333e+00 4.11458196052734e-03 7.87352690342176e-05
9.48440000000000e+00 4.02086027594293e-03 7.71383752368578e-05
9.53266666666667e+00 3.92927337795513e-03 7.55728906756612e-05
9.58093333333333e+00 3.83977264043664e-03 7.40382277546163e-05
9.62920000000000e+00 3.75231054495930e-03 7.25338088301911e-05
9.67746666666667e+00 3.66684065555339e-03 7.10590661900681e-05
9.72573333333333e+00 3.58331759378934e-03 6.96134418611961e-05
9.77400000000000e+00 3.50169701495309e-03 6.81963874208819e-05
9.82226666666667e+00 3.42193558449137e-03 6.68073639686885e-05
9.87053333333333e+00 3.34399095476136e-03 6.54458419404623e-05
9.91880000000000e+00 3.26782174279351e-03 6.41113009253928e-05
9.96706666666667e+00 3.19338750831024e-03 6.28032296322486e-05
1.00153333333333e+01 3.12064873203176e-03 6.15211257525518e-05
1.00636000000000e+01 3.04956679471258e-03 6.02644955693456e-05
1.01118666666667e+01 2.98010395766681e-03 5.90328543018432e-05
1.01601333333333e+01 2.91222334045413e-03 5.78257257692696e-05
1.02084000000000e+01 2.84588890338302e-03 5.66426417861217e-05
1.02566666666667e+01 2.78106542829214e-03 5.54831428803011e-05
1.03049333333333e+01 2.71771849796253e-03 5.43467777517455e-05
1.03532000000000e+01 2.65581447976184e-03 5.32331027505148e-05
1.04014666666667e+01 2.59532050771051e-03 5.21416825361935e-05
1.04497333333333e+01 2.53620446329371e-03 5.10720895703657e-05
1.04980000000000e+01 2.47843496017291e-03 5.00239036272716e-05
1.05462666666667e+01 2.42198132745094e-03 4.89967123993242e-05
1.05945333333333e+01 2.36681359178789e-03 4.79901110213598e-05
1.06428000000000e+01 2.31290246311108e-03 4.70037016118833e-05
1.06910666666667e+01 2.26021931899882e-03 4.60370938291373e-05
1.07393333333333e+01 2.20873618801108e-03 4.50899044251864e-05
1.07876000000000e+01 2.15842573633326e-03 4.41617568158763e-05
1.08358666666667e+01 2.10926125320390e-03 4.32522815915290e-05
1.08841333333333e+01 2.06121663537709e-03 4.23611160990260e-05
1.09324000000000e+01 2.01426637463959e-03 4.14879040387224e-05
1.09806666666667e+01 1.96838554421262e-03 4.06322959334986e-05
1.10289333333333e+01 1.92354978426877e-03 3.97939487371151e-05
1.10772000000000e+01 1.87973529026587e-03 3.89725254564279e-05
1.11254666666667e+01 1.83691880025767e-03 3.81676955822105e-05
1.11737333333333e+01 1.79507758139339e-03 3.73791347221622e-05
1.12220000000000e+01 1.75418941901521e-03 3.66065242468678e-05
1.12702666666667e+01 1.71423260481721e-03 3.58495516855207e-05
1.13185333333333e+01 1.67518592426041e-03 3.51079103820602e-05
1.13668000000000e+01 1.63702864638438e-03 3.43812991634093e-05
1.14150666666667e+01 1.59974051275769e-03 3.36694227029742e-05
1.14633333333333e+01 1.56330172574600e-03 3.29719911984746e-05
1.15116000000000e+01 1.52769293899147e-03 3.22887200610812e-05
1.15598666666667e+01 1.49289524710165e-03 3.16193302493288e-05
1.16081333333333e+01 1.45889017471267e-03 3.09635479672924e-05
1.16564000000000e+01 1.42565966759288e-03 3.03211043733284e-05
1.17046666666667e+01 1.39318608302090e-03 2.96917358868172e-05
1.17529333333333e+01 1.36145217958968e-03 2.90751839054205e-05
1.18012000000000e+01 1.33044110889380e-03 2.84711945322061e-05
1.18494666666667e+01 1.30013640655055e-03 2.78795188574413e-05
1.18977333333333e+01 1.27052198269454e-03 2.72999126937416e-05
1.19460000000000e+01 1.24158211421047e-03 2.67321363204336e-05
1.19942666666667e+01 1.21330143635440e-03 2.61759547424343e-05
1.20425333333333e+01 1.18566493389184e-03 2.56311374421735e-05
1.20908000000000e+01 1.15865793384048e-03 2.50974581401231e-05
1.21390666666667e+01 1.13226609765153e-03 2.45746950326284e-05
1.21873333333333e+01 1.10647541294745e-03 2.40626305595540e-05
1.22356000000000e+01 1.08127218674151e-03 2.35610511799713e-05
1.22838666666667e+01 1.05664303814157e-03 2.30697475906559e-05
1.23321333333333e+01 1.03257489064692e-03 2.25885145084736e-05
1.23804000000000e+01 1.00905496581333e-03 2.21171504602761e-05
1.24286666666667e+01 9.86070776444528e-04 2.16554579836394e-05
1.24769333333333e+01 9.63610119409985e-04 2.12032434230642e-05
1.25252000000000e+01 9.41661069726518e-04 2.07603167331923e-05
1.25734666666667e+01 9.20211974204721e-04 2.03264916632295e-05
1.26217333333333e+01 8.99251444752448e-04 1.99015855660932e-05
1.26700000000000e+01 8.78768352845636e-04 1.94854192141125e-05
1.27182666666667e+01 8.58751823599347e-04 1.90778169684640e-05
1.27665333333333e+01 8.39191229523939e-04 1.86786066004518e-05
1.28148000000000e+01 8.20076185359670e-04 1.82876191189098e-05
1.28630666666667e+01 8.01396542543956e-04 1.79046889258646e-05
1.29113333333333e+01 7.83142383389528e-04 1.75296536491866e-05
1.29596000000000e+01 7.65304016258993e-04 1.71623539809578e-05
1.30078666666667e+01 7.47871970401837e-04 1.68026338204818e-05
1.30561333333333e+01 7.30836990525939e-04 1.64503401175881e-05
1.31044000000000e+01 7.14190032289830e-04 1.61053227212751e-05
1.31526666666667e+01 6.97922257484727e-04 1.57674345110964e-05
1.32009333333333e+01 6.82025028972733e-04 1.54365312504446e-05
1.32492000000000e+01 6.66489906475980e-04 1.51124714448234e-05
1.32974666666667e+01 6.51308642080628e-04 1.47951164625520e-05
1.33457333333333e+01 6.36473175516906e-04 1.44843303974000e-05
1.33940000000000e+01 6.21975630225672e-04 1.41799799358804e-05
1.34422666666667e+01 6.07808309162858e-04 1.38819344681386e-05
1.34905333333333e+01 5.93963690398192e-04 1.35900659593483e-05
1.35388000000000e+01 5.80434423440984e-04 1.33042488254558e-05
1.35870666666667e+01 5.67213325324928e-04 1.30243600350495e-05
1.36353333333333e+01 5.54293376503929e-04 1.27502789889614e-05
1.36836000000000e+01 5.41667717420098e-04 1.24818874039305e-05
1.37318666666667e+01 5.29329644850182e-04 1.22190694061844e-05
1.37801333333333e+01 5.17272608078375e-04 1.19617114187256e-05
1.38284000000000e+01 5.05490205690618e-04 1.17097020524139e-05
1.38766666666667e+01 4.93976182165178e-04 1.14629321919309e-05
1.39249333333333e+01 4.82724424303688e-04 1.12212948902667e-05
1.39732000000000e+01 4.71728958236901e-04 1.09846852667490e-05
1.40214666666667e+01 4.60983946243085e-04 1.07530005860104e-05
1.40697333333333e+01 4.50483683419833e-04 1.05261401592172e-05
1.41180000000000e+01 4.40222594887365e-04 1.03040052486062e-05
1.41662666666667e+01 4.30195232819527e-04 1.00864991400209e-05
1.42145333333333e+01 4.20396273340072e-04 9.87352705045491e-06
1.42628000000000e+01 4.10820513910534e-04 9.66499603868510e-06
1.43110666666667e+01 4.01462870559615e-04 9.46081507189696e-06
1.43593333333333e+01 3.92318374988764e-04 9.26089493914169e-06
1.44076000000000e+01 3.83382172132481e-04 9.06514816767926e-06
1.44558666666667e+01 3.74649517572832e-04 8.87348908417185e-06
1.45041333333333e+01 3.66115774840184e-04 8.68583373367859e-06
1.45524000000000e+01 3.57776413134587e-04 8.50209980134594e-06
1.46006666666667e+01 3.49627004913058e-04 8.32220666861019e-06
1.46489333333333e+01 3.41663223372262e-04 8.14607533737787e-06
1.46972000000000e+01 3.33880840320394e-04 7.97362835672291e-06
1.47454666666667e+01 3.26275723925664e-04 7.80478987450270e-06
1.47937333333333e+01 3.18843836368651e-04 7.63948556639427e-06
1.48420000000000e+01 3.11581231854760e-04 7.47764256728125e-06
1.48902666666667e+01 3.04484054513150e-04 7.31918951865448e-06
1.49385333333333e+01 2.97548536207288e-04 7.16405650219448e-06
1.49868000000000e+01 2.90770994678725e-04 7.01217497554979e-06
1.50350666666667e+01 2.84147831586423e-04 6.86347781586450e-06
1.50833333333333e+01 2.77675530464810e-04 6.71789925761730e-06
1.51316000000000e+01 2.71350654990240e-04 6.57537483251145e-06
1.51798666666667e+01 2.65169847151321e-04 6.43584140944331e-06
1.52281333333333e+01 2.59129825344527e-04 6.29923713632716e-06
