Energy (eV)          EEDF (eV^-(3/2))     First Anisotropy
4.20833333333333e-02 2.23348980281674e-01 2.38879900936024e-04
1.26250000000000e-01 2.16993247558539e-01 3.90157789103727e-04
2.10416666666667e-01 2.10818376826575e-01 5.03783138580121e-04
2.94583333333333e-01 2.04819221362892e-01 5.83537185038620e-04
3.78750000000000e-01 1.98990780925806e-01 6.44821906229861e-04
4.62916666666667e-01 1.93328197579054e-01 6.93664208805820e-04
5.47083333333333e-01 1.87826751593902e-01 7.33283828417799e-04
6.31250000000000e-01 1.82481857563746e-01 7.65683884967721e-04
7.15416666666667e-01 1.77289060575080e-01 7.92230513897228e-04
7.99583333333333e-01 1.72244032468857e-01 8.13914762914957e-04
8.83750000000000e-01 1.67342568258489e-01 8.31488182314838e-04
9.67916666666667e-01 1.62580582622066e-01 8.45540022720709e-04
1.05208333333333e+00 1.57954106480820e-01 8.56544398222809e-04
1.13625000000000e+00 1.53459283694675e-01 8.64890718054589e-04
1.22041666666667e+00 1.49092367908345e-01 8.70904212764325e-04
1.30458333333333e+00 1.44849719297760e-01 8.74860273028335e-04
1.38875000000000e+00 1.40727801653660e-01 8.76994772604998e-04
1.47291666666667e+00 1.36723179423621e-01 8.77511710810279e-04
1.55708333333333e+00 1.32832514761477e-01 8.76588972498001e-04
1.64125000000000e+00 1.29052564833155e-01 8.74382762176541e-04
1.72541666666667e+00 1.25380179106494e-01 8.71031088313955e-04
1.80958333333333e+00 1.21812296657889e-01 8.66656521714261e-04
1.89375000000000e+00 1.18345943689194e-01 8.61368416670945e-04
1.97791666666667e+00 1.14978231043756e-01 8.55264731901210e-04
2.06208333333333e+00 1.11706351744842e-01 8.48433521319225e-04
2.14625000000000e+00 1.08527578710186e-01 8.40954173927413e-04
2.23041666666667e+00 1.05439262474965e-01 8.32898463559845e-04
2.31458333333333e+00 1.02438828940262e-01 8.24331428827745e-04
2.39875000000000e+00 9.95237772713681e-02 8.15312122935857e-04
2.48291666666667e+00 9.66916778102415e-02 8.05894265028162e-04
2.56708333333333e+00 9.39401700149603e-02 7.96126795398843e-04
2.65125000000000e+00 9.12669605281612e-02 7.86054357521731e-04
2.73541666666667e+00 8.86698212630740e-02 7.75717725782947e-04
2.81958333333333e+00 8.61465875170391e-02 7.65154174396139e-04
2.90375000000000e+00 8.36951561970547e-02 7.54397802434960e-04
2.98791666666667e+00 8.13134840648765e-02 7.43479827539152e-04
3.07208333333333e+00 7.89995860093990e-02 7.32428841268100e-04
3.15625000000000e+00 7.67515334170397e-02 7.21271036735422e-04
3.24041666666667e+00 7.45674525626323e-02 7.10030417597306e-04
3.32458333333333e+00 7.24455230269489e-02 6.98728980677648e-04
3.40875000000000e+00 7.03839762004518e-02 6.87386880317668e-04
3.49291666666667e+00 6.83810938078327e-02 6.76022581418020e-04
3.57708333333333e+00 6.64352064582374e-02 6.64652993547297e-04
3.66125000000000e+00 6.45446922717206e-02 6.53293592563057e-04
3.74541666666667e+00 6.27079755263082e-02 6.41958535334710e-04
3.82958333333333e+00 6.09235253296165e-02 6.30660760364983e-04
3.91375000000000e+00 5.91898543581316e-02 6.19412079618752e-04
3.99791666666667e+00 5.75055176166015e-02 6.08223266181697e-04
4.08208333333333e+00 5.58691112207556e-02 5.97104131095388e-04
4.16625000000000e+00 5.42792712402735e-02 5.86063593841916e-04
4.25041666666667e+00 5.27346725611709e-02 5.75109750384070e-04
4.33458333333333e+00 5.12340277702260e-02 5.64249932688445e-04
4.41875000000000e+00 4.97760860932131e-02 5.53490763561705e-04
4.50291666666667e+00 4.83596323517210e-02 5.42838210151387e-04
4.58708333333333e+00 4.69834859407153e-02 5.32297630605399e-04
4.67125000000000e+00 4.56464998542677e-02 5.21873817208062e-04
4.75541666666667e+00 4.43475597289638e-02 5.11571038900107e-04
4.83958333333333e+00 4.30855829067661e-02 5.01393078209244e-04
4.92375000000000e+00 4.18595175410892e-02 4.91343265489702e-04
5.00791666666667e+00 4.06683417196037e-02 4.81424513013621e-04
5.09208333333333e+00 3.95110626052394e-02 4.71639344431138e-04
5.17625000000000e+00 3.83867156160256e-02 4.61989922147235e-04
5.26041666666667e+00 3.72943636206979e-02 4.52478074852974e-04
5.34458333333333e+00 3.62330961512908e-02 4.43105321174261e-04
5.42875000000000e+00 3.52020286506928e-02 4.33872891689110e-04
5.51291666666667e+00 3.42003017350096e-02 4.24781751291647e-04
5.59708333333333e+00 3.32270804717534e-02 4.15832618269583e-04
5.68125000000000e+00 3.22815536895490e-02 4.07025982091192e-04
5.76541666666667e+00 3.13629333017127e-02 3.98362121657228e-04
5.84958333333333e+00 3.04704536445503e-02 3.89841120748053e-04
5.93375000000000e+00 2.96033708441038e-02 3.81462882441324e-04
6.01791666666667e+00 2.87609621958634e-02 3.73227144062439e-04
6.10208333333333e+00 2.79425255581518e-02 3.65133489724946e-04
6.18625000000000e+00 2.71473787712157e-02 3.57181362043807e-04
6.27041666666667e+00 2.63748590884115e-02 3.49370074415060e-04
6.35458333333333e+00 2.56243226200752e-02 3.41698821212644e-04
6.43875000000000e+00 2.48951438006472e-02 3.34166687316519e-04
6.52291666666667e+00 2.41867148670582e-02 3.26772658217694e-04
6.60708333333333e+00 2.34984453488733e-02 3.19515628314312e-04
6.69125000000000e+00 2.28297615794875e-02 3.12394408664350e-04
6.77541666666667e+00 2.21801062177971e-02 3.05407735310160e-04
6.85958333333333e+00 2.15489377807554e-02 2.98554276025313e-04
6.94375000000000e+00 2.09357301950066e-02 2.91832636618039e-04
7.02791666666667e+00 2.03399723582474e-02 2.85241367791111e-04
7.11208333333333e+00 1.97611677106608e-02 2.78778970620770e-04
7.19625000000000e+00 1.91988338236491e-02 2.72443901672558e-04
7.28041666666667e+00 1.86525019975928e-02 2.66234578651615e-04
7.36458333333333e+00 1.81217168689224e-02 2.60149384840443e-04
7.44875000000000e+00 1.76060360328872e-02 2.54186673238528e-04
7.53291666666667e+00 1.71050296746908e-02 2.48344771210427e-04
7.61708333333333e+00 1.66182802092323e-02 2.42621984066315e-04
7.70125000000000e+00 1.61453819350995e-02 2.37016598397228e-04
7.78541666666667e+00 1.56859406963109e-02 2.31526885890563e-04
7.86958333333333e+00 1.52395735520059e-02 2.26151106203459e-04
7.95375000000000e+00 1.48059084590825e-02 2.20887509634082e-04
8.03791666666667e+00 1.43845839620056e-02 2.15734340244008e-04
8.12208333333333e+00 1.39752488899531e-02 2.10689838147456e-04
8.20625000000000e+00 1.35775620657300e-02 2.05752241633889e-04
8.29041666666667e+00 1.31911920213148e-02 2.00919789712496e-04
8.37458333333333e+00 1.28158167201753e-02 1.96190723918538e-04
8.45875000000000e+00 1.24511232902877e-02 1.91563289982291e-04
8.54291666666667e+00 1.20968077632841e-02 1.87035739891203e-04
8.62708333333333e+00 1.17525748198449e-02 1.82606333297006e-04
8.71125000000000e+00 1.14181375448281e-02 1.78273338809619e-04
8.79541666666667e+00 1.10932171880603e-02 1.74035035656516e-04
8.87958333333333e+00 1.07775429308859e-02 1.69889714759945e-04
8.96375000000000e+00 1.04708516615772e-02 1.65835679721011e-04
9.04791666666667e+00 1.01728877559735e-02 1.61871248142653e-04
9.13208333333333e+00 9.88340286342662e-03 1.57994752434618e-04
9.21625000000000e+00 9.60215570081445e-03 1.54204540541926e-04
9.30041666666667e+00 9.32891185138087e-03 1.50498976987060e-04
9.38458333333333e+00 9.06344356846475e-03 1.46876443450669e-04
9.46875000000000e+00 8.80552958657755e-03 1.43335339289630e-04
9.55291666666667e+00 8.55495493693343e-03 1.39874082345074e-04
9.63708333333333e+00 8.31151076748334e-03 1.36491109338836e-04
9.72125000000000e+00 8.07499416964419e-03 1.33184876218838e-04
9.80541666666667e+00 7.84520800913444e-03 1.29953858772126e-04
9.88958333333333e+00 7.62196076095763e-03 1.26796552870522e-04
9.97375000000000e+00 7.40506635048748e-03 1.23711474589407e-04
1.00579166666667e+01 7.19434399895182e-03 1.20697161002911e-04
1.01420833333333e+01 6.98961806965419e-03 1.17752169958279e-04
1.02262500000000e+01 6.79071792537995e-03 1.14875079745904e-04
1.03104166666667e+01 6.59747778650257e-03 1.12064490598328e-04
1.03945833333333e+01 6.40973658715778e-03 1.09319024042603e-04
1.04787500000000e+01 6.22733784674866e-03 1.06637322171016e-04
1.05629166666667e+01 6.05012953922420e-03 1.04018049268951e-04
1.06470833333333e+01 5.87796396131061e-03 1.01459891062029e-04
1.07312500000000e+01 5.71069761454975e-03 9.89615539807955e-05
1.08154166666667e+01 5.54819108543006e-03 9.65217665639036e-05
1.08995833333333e+01 5.39030892465890e-03 9.41392787069969e-05
1.09837500000000e+01 5.23691953887659e-03 9.18128609301730e-05
1.10679166666667e+01 5.08789508073824e-03 8.95413055860299e-05
1.11520833333333e+01 4.94311133829769e-03 8.73234261176498e-05
1.12362500000000e+01 4.80244763560804e-03 8.51580563357708e-05
1.13204166666667e+01 4.66578673192828e-03 8.30440514573274e-05
1.14045833333333e+01 4.53301472036785e-03 8.09802873782667e-05
1.14887500000000e+01 4.40402093664867e-03 7.89656599658034e-05
1.15729166666667e+01 4.27869786667866e-03 7.69990859497343e-05
1.16570833333333e+01 4.15694105367844e-03 7.50795022144604e-05
1.17412500000000e+01 4.03864901443821e-03 7.32058651104378e-05
1.18254166666667e+01 3.92372315456340e-03 7.13771512176407e-05
1.19095833333333e+01 3.81206768337080e-03 6.95923566600588e-05
1.19937500000000e+01 3.70358953702762e-03 6.78504964394083e-05
1.20779166666667e+01 3.59819830083229e-03 6.61506050875958e-05
1.21620833333333e+01 3.49580613122761e-03 6.44917360060666e-05
1.22462500000000e+01 3.39632768525895e-03 6.28729608239872e-05
1.23304166666667e+01 3.29968004930606e-03 6.12933699543799e-05
1.24145833333333e+01 3.20578266761602e-03 5.97520719599613e-05
1.24987500000000e+01 3.11455727756320e-03 5.82481929373028e-05
1.25829166666667e+01 3.02592784429658e-03 5.67808769894199e-05
1.26670833333333e+01 2.93982049524551e-03 5.53492856191329e-05
1.27512500000000e+01 2.85616346070629e-03 5.39525971401486e-05
1.28354166666667e+01 2.77488701391379e-03 5.25900070772439e-05
1.29195833333333e+01 2.69592341101932e-03 5.12607275876958e-05
1.30037500000000e+01 2.61920683656720e-03 4.99639868997652e-05
1.30879166666667e+01 2.54467334854038e-03 4.86990296501811e-05
1.31720833333333e+01 2.47226082335188e-03 4.74651163337979e-05
1.32562500000000e+01 2.40190890581027e-03 4.62615227695965e-05
1.33404166666667e+01 2.33355895872637e-03 4.50875403839269e-05
1.34245833333333e+01 2.26715401249838e-03 4.39424756882334e-05
1.35087500000000e+01 2.20263871919784e-03 4.28256497723931e-05
1.35929166666667e+01 2.13995930635885e-03 4.17363985410931e-05
1.36770833333333e+01 2.07906353077219e-03 4.06740722192206e-05
1.37612500000000e+01 2.01990063635357e-03 3.96380348721198e-05
1.38454166666667e+01 1.96242131176812e-03 3.86276646015329e-05
1.39295833333333e+01 1.90657764808124e-03 3.76423530780586e-05
1.40137500000000e+01 1.85232310009850e-03 3.66815050877276e-05
1.40979166666667e+01 1.79961244750701e-03 3.57445386931117e-05
1.41820833333333e+01 1.74840175606035e-03 3.48308847921057e-05
1.42662500000000e+01 1.69864834210484e-03 3.39399866900832e-05
1.43504166666667e+01 1.65031073694586e-03 3.30713002310530e-05
1.44345833333333e+01 1.60334865127129e-03 3.22242933819108e-05
1.45187500000000e+01 1.55772294260222e-03 3.13984458293336e-05
1.46029166666667e+01 1.51339558261655e-03 3.05932490852316e-05
1.46870833333333e+01 1.47032962454015e-03 2.98082060955346e-05
1.47712500000000e+01 1.42848917328148e-03 2.90428308609090e-05
1.48554166666667e+01 1.38783935546710e-03 2.82966485202057e-05
1.49395833333333e+01 1.34834628955237e-03 2.75691949827904e-05
1.50237500000000e+01 1.30997705841936e-03 2.68600165721130e-05
1.51079166666667e+01 1.27269968189897e-03 2.61686700903697e-05
1.51920833333333e+01 1.23648308937413e-03 2.54947224733545e-05
1.52762500000000e+01 1.20129709463810e-03 2.48377504558804e-05
1.53604166666667e+01 1.16711237069699e-03 2.41973406204535e-05
1.54445833333333e+01 1.13390042465709e-03 2.35730890736036e-05
1.55287500000000e+01 1.10163357465758e-03 2.29646011321408e-05
1.56129166666667e+01 1.07028492676414e-03 2.23714913582728e-05
1.56970833333333e+01 1.03982835194968e-03 2.17933832563665e-05
1.57812500000000e+01 1.01023846493063e-03 2.12299089790249e-05
1.58654166666667e+01 9.81490602978067e-04 2.06807093507514e-05
1.59495833333333e+01 9.53560804817063e-04 2.01454335841080e-05
1.60337500000000e+01 9.26425791209771e-04 1.96237390045980e-05
1.61179166666667e+01 9.00062945524938e-04 1.91152910647081e-05
1.62020833333333e+01 8.74450294395691e-04 1.86197630784361e-05
1.62862500000000e+01 8.49566489905506e-04 1.81368359639873e-05
1.63704166666667e+01 8.25390791770168e-04 1.76661982497753e-05
1.64545833333333e+01 8.01903049607232e-04 1.72075458263179e-05
1.65387500000000e+01 7.79083686592799e-04 1.67605817057750e-05
1.66229166666667e+01 7.56913683122091e-04 1.63250160212734e-05
1.67070833333333e+01 7.35374560556111e-04 1.59005657952006e-05
1.67912500000000e+01 7.14448366227975e-04 1.54869547146366e-05
1.68754166666667e+01 6.94117658459405e-04 1.50839131251831e-05
1.69595833333333e+01 6.74365491661335e-04 1.46911778147125e-05
1.70437500000000e+01 6.55175402578554e-04 1.43084918037809e-05
1.71279166666667e+01 6.36531396549561e-04 1.39356043349770e-05
1.72120833333333e+01 6.18417933848208e-04 1.35722706712173e-05
1.72962500000000e+01 6.00819917064513e-04 1.32182519002621e-05
1.73804166666667e+01 5.83722678504713e-04 1.28733149204547e-05
1.74645833333333e+01 5.67111967670427e-04 1.25372322526948e-05
1.75487500000000e+01 5.50973939681940e-04 1.22097818582087e-05
1.76329166666667e+01 5.35295143723823e-04 1.18907471214307e-05
1.77170833333333e+01 5.20062511566767e-04 1.15799166748188e-05
1.78012500000000e+01 5.05263346947336e-04 1.12770842290724e-05
1.78854166666667e+01 4.90885314972391e-04 1.09820485537947e-05
1.79695833333333e+01 4.76916431596656e-04 1.06946133143559e-05
1.80537500000000e+01 4.63345053880034e-04 1.04145869137877e-05
1.81379166666667e+01 4.50159870271252e-04 1.01417824717710e-05
1.82220833333333e+01 4.37349890961505e-04 9.87601767279026e-06
1.83062500000000e+01 4.24904438946900e-04 9.61711461897180e-06
1.83904166666667e+01 4.12813141118372e-04 9.36489980785914e-06
1.84745833333333e+01 4.01065919418375e-04 9.11920399114059e-06
1.85587500000000e+01 3.89652982642013e-04 8.87986203773329e-06
1.86429166666667e+01 3.78564818266304e-04 8.64671291073906e-06
1.87270833333333e+01 3.67792184343011e-04 8.41959953606377e-06
1.88112500000000e+01 3.57326101977463e-04 8.19836867508761e-06
1.88954166666667e+01 3.47157847835829e-04 7.98287090113028e-06
1.89795833333333e+01 3.37278946712737e-04 7.77296047731809e-06
1.90637500000000e+01 3.27681164631847e-04 7.56849523821614e-06
1.91479166666667e+01 3.18356501974852e-04 7.36933656607877e-06
1.92320833333333e+01 3.09297186667684e-04 7.17534927735633e-06
1.93162500000000e+01 3.00495667851479e-04 6.98640151269957e-06
1.94004166666667e+01 2.91944609581732e-04 6.80236471322403e-06
1.94845833333333e+01 2.83636884581544e-04 6.62311351508306e-06
1.95687500000000e+01 2.75565568435880e-04 6.44852564728850e-06
1.96529166666667e+01 2.67723933813559e-04 6.27848190817846e-06
1.97370833333333e+01 2.60105444740312e-04 6.11286606751578e-06
1.98212500000000e+01 2.52703751273117e-04 5.95156477160218e-06
1.99054166666667e+01 2.45512684201628e-04 5.79446752010304e-06
1.99895833333333e+01 2.38526249797761e-04 5.64146657516365e-06
2.00737500000000e+01 2.31738624930438e-04 5.49245687332422e-06
2.01579166666667e+01 2.25144152206673e-04 5.34733600282630e-06
2.02420833333333e+01 2.18737335158010e-04 5.20600411926956e-06
2.03262500000000e+01 2.12512833759278e-04 5.06836386386485e-06
2.04104166666667e+01 2.06465459972867e-04 4.93432034132143e-06
2.04945833333333e+01 2.00590173335619e-04 4.80378104159610e-06
2.05787500000000e+01 1.94882076848237e-04 4.67665576405046e-06
2.06629166666667e+01 1.89336412889272e-04 4.55285659599556e-06
2.07470833333333e+01 1.83948559169144e-04 4.43229784011370e-06
2.08312500000000e+01 1.78714024959559e-04 4.31489594411279e-06
2.09154166666667e+01 1.73628447346536e-04 4.20056947998668e-06
2.09995833333333e+01 1.68687587520998e-04 4.08923907671618e-06
2.10837500000000e+01 1.63887327320088e-04 3.98082735503925e-06
2.11679166666667e+01 1.59223665791111e-04 3.87525890746926e-06
2.12520833333333e+01 1.54692715790665e-04 3.77246023590707e-06
2.13362500000000e+01 1.50290700812091e-04 3.67235969117022e-06
2.14204166666667e+01 1.46013951834520e-04 3.57488745379833e-06
2.15045833333333e+01 1.41858904204868e-04 3.47997547623147e-06
2.15887500000000e+01 1.37822094727765e-04 3.38755742676455e-06
2.16729166666667e+01 1.33900158776045e-04 3.29756867115747e-06
2.17570833333333e+01 1.30089827432073e-04 3.20994621905797e-06
2.18412500000000e+01 1.26387924818438e-04 3.12462867206958e-06
2.19254166666667e+01 1.22791365448213e-04 3.04155620617410e-06
2.20095833333333e+01 1.19297151604008e-04 2.96067052209849e-06
2.20937500000000e+01 1.15902370889543e-04 2.88191479720508e-06
2.21779166666667e+01 1.12604193799762e-04 2.80523366872665e-06
2.22620833333333e+01 1.09399871317847e-04 2.73057318779665e-06
2.23462500000000e+01 1.06286732669397e-04 2.65788077488964e-06
2.24304166666667e+01 1.03262183094153e-04 2.58710520386278e-06
2.25145833333333e+01 1.00323701642845e-04 2.51819655938747e-06
2.25987500000000e+01 9.74688391172080e-05 2.45110619568654e-06
2.26829166666667e+01 9.46952160266085e-05 2.38578672137013e-06
2.27670833333333e+01 9.20005205680772e-05 2.32219196002504e-06
2.28512500000000e+01 8.93825067368123e-05 2.26027691201204e-06
2.29354166666667e+01 8.68389924523478e-05 2.19999774008014e-06
2.30195833333333e+01 8.43678577065437e-05 2.14131173288621e-06
2.31037500000000e+01 8.19670428304691e-05 2.08417726963206e-06
2.31879166666667e+01 7.96345467760486e-05 2.02855380643755e-06
2.32720833333333e+01 7.73684254180350e-05 1.97440184257865e-06
2.33562500000000e+01 7.51667899643376e-05 1.92168288775922e-06
2.34404166666667e+01 7.30278053802464e-05 1.87035944922069e-06
2.35245833333333e+01 7.09496888315777e-05 1.82039500050134e-06
2.36087500000000e+01 6.89307082265823e-05 1.77175395115178e-06
2.36929166666667e+01 6.69691807709163e-05 1.72440163455694e-06
2.37770833333333e+01 6.50634715402172e-05 1.67830427903311e-06
2.38612500000000e+01 6.32119921427069e-05 1.63342897980929e-06
2.39454166666667e+01 6.14131993940602e-05 1.58974368753581e-06
2.40295833333333e+01 5.96655940086462e-05 1.54721718154847e-06
2.41137500000000e+01 5.79677193728400e-05 1.50581904395038e-06
2.41979166666667e+01 5.63181603298419e-05 1.46551964878031e-06
2.42820833333333e+01 5.47155419797131e-05 1.42629013728544e-06
2.43662500000000e+01 5.31585285542377e-05 1.38810239394987e-06
2.44504166666667e+01 5.16458223025680e-05 1.35092903629534e-06
2.45345833333333e+01 5.01761623910078e-05 1.31474339201498e-06
2.46187500000000e+01 4.87483238710216e-05 1.27951947680570e-06
2.47029166666667e+01 4.73611166573405e-05 1.24523198477347e-06
2.47870833333333e+01 4.60133845191970e-05 1.21185626729119e-06
2.48712500000000e+01 4.47040041337746e-05 1.17936831250197e-06
2.49554166666667e+01 4.34318841491017e-05 1.14774473630140e-06
2.50395833333333e+01 4.21959642591344e-05 1.11696276279213e-06
2.51237500000000e+01 4.09952143355744e-05 1.08700020533490e-06
2.52079166666667e+01 3.98286335685171e-05 1.05783545808008e-06
2.52920833333333e+01 3.86952496184089e-05 1.02944747790082e-06
2.53762500000000e+01 3.75941178197494e-05 1.00181576687733e-06
2.54604166666667e+01 3.65243203930407e-05 9.74920364350487e-07
2.55445833333333e+01 3.54849656672285e-05 9.48741830223916e-07
2.56287500000000e+01 3.44751873493380e-05 9.23261228775225e-07
2.57129166666667e+01 3.34941438018097e-05 8.98460121204982e-07
2.57970833333333e+01 3.25410173295625e-05 8.74320550205999e-07
2.58812500000000e+01 3.16150135101076e-05 8.50825025002789e-07
2.59654166666667e+01 3.07153605308443e-05 8.27956514370030e-07
2.60495833333333e+01 2.98413085353733e-05 8.05698432374541e-07
2.61337500000000e+01 2.89921290090822e-05 7.84034624551540e-07
2.62179166666667e+01 2.81671141714266e-05 7.62949361367239e-07
2.63020833333333e+01 2.73655763765675e-05 7.42427325045988e-07
2.63862500000000e+01 2.65868475498369e-05 7.22453596798469e-07
2.64704166666667e+01 2.58302786304419e-05 7.03013650703995e-07
2.65545833333333e+01 2.50952390219099e-05 6.84093341541610e-07
