Energy (eV)          EEDF (eV^-(3/2))     First Anisotropy
1.53921568627451e-03 3.68413468003334e+00 1.88459623219101e-03
4.61764705882353e-03 3.65920180524721e+00 3.11193530491100e-03
7.69607843137255e-03 3.63443766699064e+00 4.10792516736414e-03
1.07745098039216e-02 3.60984112337934e+00 4.86447582362079e-03
1.38529411764706e-02 3.58541104015629e+00 5.49535704148098e-03
1.69313725490196e-02 3.56114629075052e+00 6.04357666270816e-03
2.00098039215686e-02 3.53704575638944e+00 6.53138784159051e-03
2.30882352941176e-02 3.51310832559092e+00 6.97222655994710e-03
2.61666666666667e-02 3.48933289453379e+00 7.37500243398661e-03
2.92450980392157e-02 3.46571836686865e+00 7.74601164258923e-03
3.23235294117647e-02 3.44226365373991e+00 8.08991424932197e-03
3.54019607843137e-02 3.41896767350477e+00 8.41028328244550e-03
3.84803921568627e-02 3.39582935191836e+00 8.70993575092295e-03
4.15588235294118e-02 3.37284762206227e+00 8.99114344524316e-03
4.46372549019608e-02 3.35002142412590e+00 9.25577310198309e-03
4.77156862745098e-02 3.32734970552761e+00 9.50538302017324e-03
5.07941176470588e-02 3.30483142080898e+00 9.74129169627396e-03
5.38725490196078e-02 3.28246553162813e+00 9.96462782037194e-03
5.69509803921569e-02 3.26025100658667e+00 1.01763674840604e-02
6.00294117647059e-02 3.23818682130810e+00 1.03773624099502e-02
6.31078431372549e-02 3.21627195834897e+00 1.05683617469215e-02
6.61862745098039e-02 3.19450540718379e+00 1.07500291351513e-02
6.92647058823529e-02 3.17288616406000e+00 1.09229562317211e-02
7.23431372549019e-02 3.15141323205108e+00 1.10876735639762e-02
7.54215686274510e-02 3.13008562100507e+00 1.12446593664177e-02
7.85000000000000e-02 3.10890234741543e+00 1.13943467928528e-02
8.15784313725490e-02 3.08786243445954e+00 1.15371298796570e-02
8.46568627450980e-02 3.06696491192555e+00 1.16733685279228e-02
8.77352941176471e-02 3.04620881619064e+00 1.18033926858440e-02
9.08137254901961e-02 3.02559319010700e+00 1.19275058732411e-02
9.38921568627451e-02 3.00511708302768e+00 1.20459881760543e-02
9.69705882352941e-02 2.98477955075962e+00 1.21590988342518e-02
1.00049019607843e-01 2.96457965545908e+00 1.22670784369166e-02
1.03127450980392e-01 2.94451646570428e+00 1.23701508685908e-02
1.06205882352941e-01 2.92458905615847e+00 1.24685249062900e-02
1.09284313725490e-01 2.90479650809288e+00 1.25623957054714e-02
1.12362745098039e-01 2.88513790880737e+00 1.26519461511011e-02
1.15441176470588e-01 2.86561235162232e+00 1.27373478258213e-02
1.18519607843137e-01 2.84621893631965e+00 1.28187621006732e-02
1.21598039215686e-01 2.82695676845571e+00 1.28963409890186e-02
1.24676470588235e-01 2.80782495994996e+00 1.29702279003001e-02
1.27754901960784e-01 2.78882262857297e+00 1.30405584313851e-02
1.30833333333333e-01 2.76994889793076e+00 1.31074608490016e-02
1.33911764705882e-01 2.75120289783993e+00 1.31710567201985e-02
1.36990196078431e-01 2.73258376386225e+00 1.32314614808845e-02
1.40068627450980e-01 2.71409063728725e+00 1.32887847582163e-02
1.43147058823529e-01 2.69572266546926e+00 1.33431308685936e-02
1.46225490196078e-01 2.67747900128473e+00 1.33945991706581e-02
1.49303921568627e-01 2.65935880358585e+00 1.34432843813779e-02
1.52382352941176e-01 2.64136123679332e+00 1.34892769669210e-02
1.55460784313725e-01 2.62348547087470e+00 1.35326633027277e-02
1.58539215686274e-01 2.60573068163697e+00 1.35735259924118e-02
1.61617647058824e-01 2.58809605035100e+00 1.36119441605996e-02
1.64696078431373e-01 2.57058076372962e+00 1.36479935547482e-02
1.67774509803922e-01 2.55318401419343e+00 1.36817468023636e-02
1.70852941176471e-01 2.53590499952432e+00 1.37132736484295e-02
1.73931372549020e-01 2.51874292284144e+00 1.37426410159992e-02
1.77009803921569e-01 2.50169699284491e+00 1.37699132342001e-02
1.80088235294118e-01 2.48476642340567e+00 1.37951521668902e-02
1.83166666666667e-01 2.46795043389597e+00 1.38184173282018e-02
1.86245098039216e-01 2.45124824887848e+00 1.38397660754700e-02
1.89323529411765e-01 2.43465909808201e+00 1.38592536238479e-02
1.92401960784314e-01 2.41818221661595e+00 1.38769332050745e-02
1.95480392156863e-01 2.40181684468067e+00 1.38928562156916e-02
1.98558823529412e-01 2.38556222754228e+00 1.39070722144989e-02
2.01637254901961e-01 2.36941761573052e+00 1.39196290734167e-02
2.04715686274510e-01 2.35338226469408e+00 1.39305730449921e-02
2.07794117647059e-01 2.33745543507110e+00 1.39399488224146e-02
2.10872549019608e-01 2.32163639242667e+00 1.39477996721297e-02
2.13950980392157e-01 2.30592440722759e+00 1.39541674112555e-02
2.17029411764706e-01 2.29031875501830e+00 1.39590925161497e-02
2.20107843137255e-01 2.27481871617457e+00 1.39626142246136e-02
2.23186274509804e-01 2.25942357587796e+00 1.39647705060069e-02
2.26264705882353e-01 2.24413262427894e+00 1.39655981705269e-02
2.29343137254902e-01 2.22894515620277e+00 1.39651329061095e-02
2.32421568627451e-01 2.21386047137424e+00 1.39634093104647e-02
2.35500000000000e-01 2.19887787419263e+00 1.39604609898483e-02
2.38578431372549e-01 2.18399667370639e+00 1.39563205203722e-02
2.41656862745098e-01 2.16921618375927e+00 1.39510195281206e-02
2.44735294117647e-01 2.15453572277800e+00 1.39445887650461e-02
2.47813725490196e-01 2.13995461374705e+00 1.39370580673933e-02
2.50892156862745e-01 2.12547218434459e+00 1.39284564401817e-02
2.53970588235294e-01 2.11108776668855e+00 1.39188120776465e-02
2.57049019607843e-01 2.09680069752544e+00 1.39081523802013e-02
2.60127450980392e-01 2.08261031803529e+00 1.38965040323451e-02
2.63205882352941e-01 2.06851597380652e+00 1.38838929575294e-02
2.66284313725490e-01 2.05451701495867e+00 1.38703443806977e-02
2.69362745098039e-01 2.04061279595742e+00 1.38558828878099e-02
2.72441176470588e-01 2.02680267558985e+00 1.38405323799135e-02
2.75519607843137e-01 2.01308601707893e+00 1.38243161415664e-02
2.78598039215686e-01 1.99946218786205e+00 1.38072568519389e-02
2.81676470588235e-01 1.98593055975122e+00 1.37893765932410e-02
2.84754901960784e-01 1.97249050876229e+00 1.37706969147421e-02
2.87833333333333e-01 1.95914141509047e+00 1.37512387858633e-02
2.90911764705882e-01 1.94588266321409e+00 1.37310226470457e-02
2.93990196078431e-01 1.93271364173216e+00 1.37100684583489e-02
2.97068627450980e-01 1.91963374334025e+00 1.36883956527682e-02
3.00147058823529e-01 1.90664236492769e+00 1.36660231935206e-02
3.03225490196078e-01 1.89373890738280e+00 1.36429695796380e-02
3.06303921568627e-01 1.88092277572992e+00 1.36192528493891e-02
3.09382352941176e-01 1.86819337897875e+00 1.35948906344466e-02
3.12460784313725e-01 1.85555013010052e+00 1.35699001135316e-02
3.15539215686274e-01 1.84299244611648e+00 1.35442980550573e-02
3.18617647058824e-01 1.83051974795410e+00 1.35181008579904e-02
3.21696078431373e-01 1.81813146042374e+00 1.34913245062144e-02
3.24774509803922e-01 1.80582701230170e+00 1.34639846086210e-02
3.27852941176471e-01 1.79360583619297e+00 1.34360964375597e-02
3.30931372549020e-01 1.78146736850820e+00 1.34076748840198e-02
3.34009803921569e-01 1.76941104954170e+00 1.33787345040632e-02
3.37088235294118e-01 1.75743632330708e+00 1.33492895202442e-02
3.40166666666667e-01 1.74554263764839e+00 1.33193538213070e-02
3.43245098039216e-01 1.73372944411213e+00 1.32889410065400e-02
3.46323529411765e-01 1.72199619792481e+00 1.32580643420694e-02
3.49401960784314e-01 1.71034235806419e+00 1.32267367954649e-02
3.52480392156863e-01 1.69876738713682e+00 1.31949710690015e-02
3.55558823529412e-01 1.68727075135591e+00 1.31627795569381e-02
3.58637254901961e-01 1.67585192060844e+00 1.31301743862591e-02
3.61715686274510e-01 1.66451036830845e+00 1.30971674163574e-02
3.64794117647059e-01 1.65324557149352e+00 1.30637702372186e-02
3.67872549019608e-01 1.64205701071018e+00 1.30299942085435e-02
3.70950980392157e-01 1.63094416999233e+00 1.29958504183747e-02
3.74029411764706e-01 1.61990653692271e+00 1.29613497134172e-02
3.77107843137255e-01 1.60894360252308e+00 1.29265027282387e-02
3.80186274509804e-01 1.59805486123296e+00 1.28913198449396e-02
3.83264705882353e-01 1.58723981096763e+00 1.28558112293153e-02
3.86343137254902e-01 1.57649795298665e+00 1.28199868294629e-02
3.89421568627451e-01 1.56582879197786e+00 1.27838563730595e-02
3.92500000000000e-01 1.55523183595440e+00 1.27474294022297e-02
3.95578431372549e-01 1.54470659623400e+00 1.27107152346529e-02
3.98656862745098e-01 1.53425258749223e+00 1.26737229904327e-02
4.01735294117647e-01 1.52386932766353e+00 1.26364616180193e-02
4.04813725490196e-01 1.51355633792096e+00 1.25989398563557e-02
4.07892156862745e-01 1.50331314272639e+00 1.25611662672636e-02
4.10970588235294e-01 1.49313926971223e+00 1.25231492333887e-02
4.14049019607843e-01 1.48303424975486e+00 1.24848969549537e-02
4.17127450980392e-01 1.47299761688168e+00 1.24464174810869e-02
4.20205882352941e-01 1.46302890825135e+00 1.24077186734110e-02
4.23284313725490e-01 1.45312766419995e+00 1.23688082300665e-02
4.26362745098039e-01 1.44329342815160e+00 1.23296937089239e-02
4.29441176470588e-01 1.43352574659907e+00 1.22903824921760e-02
4.32519607843137e-01 1.42382416914739e+00 1.22508818155425e-02
4.35598039215686e-01 1.41418824840709e+00 1.22111987658241e-02
4.38676470588235e-01 1.40461754005860e+00 1.21713402773797e-02
4.41754901960784e-01 1.39511160276806e+00 1.21313131604454e-02
4.44833333333333e-01 1.38566999816843e+00 1.20911240671349e-02
4.47911764705882e-01 1.37629229089975e+00 1.20507795130700e-02
4.50990196078431e-01 1.36697804852800e+00 1.20102858983042e-02
4.54068627450980e-01 1.35772684152665e+00 1.19696494742756e-02
4.57147058823529e-01 1.34853824331464e+00 1.19288763702861e-02
4.60225490196078e-01 1.33941183015969e+00 1.18879725908390e-02
4.63303921568627e-01 1.33034718123492e+00 1.18469440119990e-02
4.66382352941176e-01 1.32134387854241e+00 1.18057964071207e-02
4.69460784313725e-01 1.31240150689516e+00 1.17645354151487e-02
4.72539215686274e-01 1.30351965395225e+00 1.17231665601993e-02
4.75617647058823e-01 1.29469791014499e+00 1.16816952705240e-02
4.78696078431373e-01 1.28593586865937e+00 1.16401268477061e-02
4.81774509803922e-01 1.27723312546925e+00 1.15984664855207e-02
4.84852941176471e-01 1.26858927926527e+00 1.15567192882100e-02
4.87931372549020e-01 1.26000393143749e+00 1.15148902405478e-02
4.91009803921569e-01 1.25147668610693e+00 1.14729842310780e-02
4.94088235294118e-01 1.24300715004084e+00 1.14310060493640e-02
4.97166666666667e-01 1.23459493270029e+00 1.13889603823746e-02
5.00245098039216e-01 1.22623964617292e+00 1.13468518371185e-02
5.03323529411765e-01 1.21794090515618e+00 1.13046849119461e-02
5.06401960784314e-01 1.20969832698635e+00 1.12624640137299e-02
5.09480392156863e-01 1.20151153157365e+00 1.12201934745223e-02
5.12558823529412e-01 1.19338014138575e+00 1.11778775236738e-02
5.15637254901961e-01 1.18530378147536e+00 1.11355203090941e-02
5.18715686274510e-01 1.17728207940298e+00 1.10931258945020e-02
5.21794117647059e-01 1.16931466527903e+00 1.10506982558817e-02
5.24872549019608e-01 1.16140117170237e+00 1.10082413022188e-02
5.27950980392157e-01 1.15354123374433e+00 1.09657588487790e-02
5.31029411764706e-01 1.14573448897419e+00 1.09232546328074e-02
5.34107843137255e-01 1.13798057739974e+00 1.08807323287661e-02
5.37186274509804e-01 1.13027914145168e+00 1.08381955223677e-02
5.40264705882353e-01 1.12262982600769e+00 1.07956477300840e-02
5.43343137254902e-01 1.11503227832199e+00 1.07530923964389e-02
5.46421568627451e-01 1.10748614806259e+00 1.07105328905725e-02
5.49500000000000e-01 1.09999108725501e+00 1.06679725252877e-02
5.52578431372549e-01 1.09254675026710e+00 1.06254145321685e-02
5.55656862745098e-01 1.08515279383137e+00 1.05828620759698e-02
5.58735294117647e-01 1.07780887699054e+00 1.05403182685935e-02
5.61813725490196e-01 1.07051466108264e+00 1.04977861449071e-02
5.64892156862745e-01 1.06326980976219e+00 1.04552686806854e-02
5.67970588235294e-01 1.05607398893570e+00 1.04127687899743e-02
5.71049019607843e-01 1.04892686679472e+00 1.03702893217867e-02
5.74127450980392e-01 1.04182811376425e+00 1.03278330776364e-02
5.77205882352941e-01 1.03477740248825e+00 1.02854027883668e-02
5.80284313725490e-01 1.02777440784928e+00 1.02430011273711e-02
5.83362745098039e-01 1.02081880691846e+00 1.02006307234421e-02
5.86441176470588e-01 1.01391027894137e+00 1.01582941382510e-02
5.89519607843137e-01 1.00704850535660e+00 1.01159938828795e-02
5.92598039215686e-01 1.00023316973661e+00 1.00737324152770e-02
5.95676470588235e-01 9.93463957817135e-01 1.00315121370981e-02
5.98754901960784e-01 9.86740557449745e-01 9.98933540987239e-03
6.01833333333333e-01 9.80062658588082e-01 9.94720453342488e-03
6.04911764705882e-01 9.73429953305115e-01 9.90512175804525e-03
6.07990196078431e-01 9.66842135747129e-01 9.86308929632541e-03
6.11068627450980e-01 9.60298902120277e-01 9.82110930218164e-03
6.14147058823529e-01 9.53799950706951e-01 9.77918388611393e-03
6.17225490196078e-01 9.47344981811386e-01 9.73731511276591e-03
6.20303921568627e-01 9.40933697785911e-01 9.69550499791175e-03
6.23382352941176e-01 9.34565802987214e-01 9.65375552339260e-03
6.26460784313725e-01 9.28241003763299e-01 9.61206861701063e-03
6.29539215686274e-01 9.21959008468648e-01 9.57044616375466e-03
6.32617647058824e-01 9.15719527421831e-01 9.52889001672525e-03
6.35696078431373e-01 9.09522272892735e-01 9.48740197758557e-03
6.38774509803921e-01 9.03366959116959e-01 9.44598380744160e-03
6.41852941176471e-01 8.97253302254743e-01 9.40463723743578e-03
6.44931372549020e-01 8.91181020378424e-01 9.36336394973886e-03
6.48009803921569e-01 8.85149833486126e-01 9.32216559122022e-03
6.51088235294118e-01 8.79159463453297e-01 9.28104377117122e-03
6.54166666666667e-01 8.73209634055083e-01 9.24000005851031e-03
6.57245098039216e-01 8.67300070927218e-01 9.19903599517857e-03
6.60323529411765e-01 8.61430501553891e-01 9.15815307791965e-03
6.63401960784314e-01 8.55600655280413e-01 9.11735276833495e-03
6.66480392156863e-01 8.49810263275300e-01 9.07663650268010e-03
6.69558823529412e-01 8.44059058518368e-01 9.03600567414377e-03
6.72637254901961e-01 8.38346775812771e-01 8.99546164550857e-03
6.75715686274510e-01 8.32673151740334e-01 8.95500574698491e-03
6.78794117647059e-01 8.27037924681528e-01 8.91463927356389e-03
6.81872549019608e-01 8.21440834779339e-01 8.87436349743078e-03
6.84950980392157e-01 8.15881623927749e-01 8.83417965097484e-03
6.88029411764706e-01 8.10360035782885e-01 8.79408893609666e-03
6.91107843137255e-01 8.04875815727960e-01 8.75409253327814e-03
6.94186274509804e-01 7.99428710861986e-01 8.71419158505539e-03
6.97264705882353e-01 7.94018470010358e-01 8.67438720775906e-03
7.00343137254902e-01 7.88644843683627e-01 8.63468048945614e-03
7.03421568627451e-01 7.83307584095355e-01 8.59507248744819e-03
7.06500000000000e-01 7.78006445128698e-01 8.55556423978705e-03
7.09578431372549e-01 7.72741182325468e-01 8.51615674942558e-03
7.12656862745098e-01 7.67511552895940e-01 8.47685099284227e-03
7.15735294117647e-01 7.62317315686415e-01 8.43764792844908e-03
7.18813725490196e-01 7.57158231168503e-01 8.39854848117263e-03
7.21892156862745e-01 7.52034061448429e-01 8.35955355335000e-03
7.24970588235294e-01 7.46944570228951e-01 8.32066402277885e-03
7.28049019607843e-01 7.41889522825317e-01 8.28188074035524e-03
7.31127450980392e-01 7.36868686134324e-01 8.24320454076555e-03
7.34205882352941e-01 7.31881828623947e-01 8.20463622769859e-03
7.37284313725490e-01 7.26928720341954e-01 8.16617658184350e-03
7.40362745098039e-01 7.22009132885855e-01 8.12782636869265e-03
7.43441176470588e-01 7.17122839392745e-01 8.08958632415285e-03
7.46519607843137e-01 7.12269614547475e-01 8.05145716466358e-03
7.49598039215686e-01 7.07449234547430e-01 8.01343958535552e-03
7.52676470588235e-01 7.02661477116806e-01 7.97553425782140e-03
7.55754901960784e-01 6.97906121477938e-01 7.93774184004886e-03
7.58833333333333e-01 6.93182948341454e-01 7.90006296262106e-03
7.61911764705882e-01 6.88491739913844e-01 7.86249823614101e-03
7.64990196078431e-01 6.83832279869602e-01 7.82504825847640e-03
7.68068627450980e-01 6.79204353341580e-01 7.78771360132884e-03
7.71147058823529e-01 6.74607746928174e-01 7.75049481963972e-03
7.74225490196078e-01 6.70042248660709e-01 7.71339244984895e-03
7.77303921568627e-01 6.65507648016221e-01 7.67640700779493e-03
7.80382352941176e-01 6.61003735890857e-01 7.63953899795180e-03
7.83460784313725e-01 6.56530304590534e-01 7.60278890054359e-03
7.86539215686274e-01 6.52087147837588e-01 7.56615717844422e-03
7.89617647058823e-01 6.47674060744909e-01 7.52964428391147e-03
7.92696078431372e-01 6.43290839806804e-01 7.49325064604201e-03
7.95774509803922e-01 6.38937282905296e-01 7.45697667747974e-03
7.98852941176471e-01 6.34613189284994e-01 7.42082278096203e-03
8.01931372549020e-01 6.30318359544126e-01 7.38478933710799e-03
8.05009803921569e-01 6.26052595640519e-01 7.34887671292224e-03
8.08088235294118e-01 6.21815700862251e-01 7.31308526019257e-03
8.11166666666667e-01 6.17607479838607e-01 7.27741531356127e-03
8.14245098039216e-01 6.13427738516065e-01 7.24186719887981e-03
8.17323529411765e-01 6.09276284149619e-01 7.20644122149094e-03
8.20401960784314e-01 6.05152925308302e-01 7.17113767246608e-03
8.23480392156863e-01 6.01057471851842e-01 7.13595683469780e-03
8.26558823529412e-01 5.96989734922149e-01 7.10089897148983e-03
8.29637254901961e-01 5.92949526948557e-01 7.06596433447515e-03
8.32715686274510e-01 5.88936661620595e-01 7.03115316210464e-03
8.35794117647059e-01 5.84950953897803e-01 6.99646567783137e-03
8.38872549019608e-01 5.80992219987409e-01 6.96190209789200e-03
8.41950980392157e-01 5.77060277336099e-01 6.92746262035798e-03
8.45029411764706e-01 5.73154944634848e-01 6.89314743094057e-03
8.48107843137255e-01 5.69276041797216e-01 6.85895670866216e-03
8.51186274509804e-01 5.65423389951274e-01 6.82489061519385e-03
8.54264705882353e-01 5.61596811444191e-01 6.79094930223116e-03
8.57343137254902e-01 5.57796129816946e-01 6.75713291007015e-03
8.60421568627451e-01 5.54021169813127e-01 6.72344156589827e-03
8.63500000000000e-01 5.50271757358166e-01 6.68987539104752e-03
8.66578431372549e-01 5.46547719551530e-01 6.65643449075874e-03
8.69656862745098e-01 5.42848884670947e-01 6.62311895958759e-03
8.72735294117647e-01 5.39175082152204e-01 6.58992888668944e-03
8.75813725490196e-01 5.35526142581493e-01 6.55686434584960e-03
8.78892156862745e-01 5.31901897699415e-01 6.52392540236001e-03
8.81970588235294e-01 5.28302180377481e-01 6.49111211167672e-03
8.85049019607843e-01 5.24726824626005e-01 6.45842451781265e-03
8.88127450980392e-01 5.21175665574758e-01 6.42586266009955e-03
8.91205882352941e-01 5.17648539465582e-01 6.39342656361819e-03
8.94284313725490e-01 5.14145283656059e-01 6.36111624423632e-03
8.97362745098039e-01 5.10665736600707e-01 6.32893171353341e-03
9.00441176470588e-01 5.07209737843722e-01 6.29687296947772e-03
9.03519607843137e-01 5.03777128022461e-01 6.26494000284014e-03
9.06598039215686e-01 5.00367748845600e-01 6.23313279593039e-03
9.09676470588235e-01 4.96981443100197e-01 6.20145132108357e-03
9.12754901960784e-01 4.93618054633685e-01 6.16989554696966e-03
9.15833333333333e-01 4.90277428346849e-01 6.13846542964146e-03
9.18911764705882e-01 4.86959410197038e-01 6.10716091723225e-03
9.21990196078431e-01 4.83663847180624e-01 6.07598195454962e-03
9.25068627450980e-01 4.80390587326134e-01 6.04492847435296e-03
9.28147058823529e-01 4.77139479697272e-01 6.01400040333868e-03
9.31225490196078e-01 4.73910374372591e-01 5.98319766095014e-03
9.34303921568627e-01 4.70703122451831e-01 5.95252015795410e-03
9.37382352941176e-01 4.67517576039126e-01 5.92196780232938e-03
9.40460784313725e-01 4.64353588236352e-01 5.89154049089198e-03
9.43539215686274e-01 4.61211013145909e-01 5.86123811367654e-03
9.46617647058823e-01 4.58089705854369e-01 5.83106055822276e-03
9.49696078431372e-01 4.54989522425963e-01 5.80100770141326e-03
9.52774509803922e-01 4.51910319905201e-01 5.77107941374060e-03
9.55852941176470e-01 4.48851956300952e-01 5.74127556348056e-03
9.58931372549020e-01 4.45814290580060e-01 5.71159600873812e-03
9.62009803921569e-01 4.42797182669815e-01 5.68204060288604e-03
9.65088235294118e-01 4.39800493439534e-01 5.65260919347187e-03
9.68166666666667e-01 4.36824084706001e-01 5.62330162091331e-03
9.71245098039216e-01 4.33867819218212e-01 5.59411772384987e-03
