Energy (eV)          EEDF (eV^-(3/2))     First Anisotropy
5.32142857142857e-03 1.39696780597534e+00 9.73672921572186e-04
1.59642857142857e-02 1.37985963932530e+00 1.60335576885848e-03
2.66071428571429e-02 1.36296099023745e+00 2.10484206027284e-03
3.72500000000000e-02 1.34626929291050e+00 2.47873837289373e-03
4.78928571428571e-02 1.32978201282533e+00 2.78476278070610e-03
5.85357142857143e-02 1.31349664659844e+00 3.04567794225802e-03
6.91785714285714e-02 1.29741072143028e+00 3.27335469395587e-03
7.98214285714286e-02 1.28152179486482e+00 3.47501541176262e-03
9.04642857142857e-02 1.26582745432544e+00 3.65548547650319e-03
1.01107142857143e-01 1.25032531677007e+00 3.81820015439884e-03
1.11750000000000e-01 1.23501302842444e+00 3.96572061686062e-03
1.22392857142857e-01 1.21988826410256e+00 4.10002469441056e-03
1.33035714285714e-01 1.20494872740013e+00 4.22268271218678e-03
1.43678571428571e-01 1.19019214989641e+00 4.33496979713458e-03
1.54321428571429e-01 1.17561629095210e+00 4.43794074937325e-03
1.64964285714286e-01 1.16121893736768e+00 4.53248183327629e-03
1.75607142857143e-01 1.14699790304996e+00 4.61934766362547e-03
1.86250000000000e-01 1.13295102867834e+00 4.69918816191064e-03
1.96892857142857e-01 1.11907618130733e+00 4.77256866450719e-03
2.07535714285714e-01 1.10537125425735e+00 4.83998525226707e-03
2.18178571428571e-01 1.09183416657334e+00 4.90187661670791e-03
2.28821428571429e-01 1.07846286278520e+00 4.95863335287595e-03
2.39464285714286e-01 1.06525531259506e+00 5.01060537598312e-03
2.50107142857143e-01 1.05220951057018e+00 5.05810788972787e-03
2.60750000000000e-01 1.03932347583774e+00 5.10142624940306e-03
2.71392857142857e-01 1.02659525173807e+00 5.14081994218794e-03
2.82035714285714e-01 1.01402290566870e+00 5.17652590872537e-03
2.92678571428571e-01 1.00160452864624e+00 5.20876132184640e-03
3.03321428571429e-01 9.89338235066019e-01 5.23772590562702e-03
3.13964285714286e-01 9.77222162415490e-01 5.26360391919935e-03
3.24607142857143e-01 9.65254470992014e-01 5.28656584629801e-03
3.35250000000000e-01 9.53433343623182e-01 5.30676984987054e-03
3.45892857142857e-01 9.41756985357921e-01 5.32436301407392e-03
3.56535714285714e-01 9.30223623294847e-01 5.33948243932457e-03
3.67178571428571e-01 9.18831506210022e-01 5.35225619838412e-03
3.77821428571429e-01 9.07578904326165e-01 5.36280415617981e-03
3.88464285714286e-01 8.96464109049829e-01 5.37123870501772e-03
3.99107142857143e-01 8.85485432712319e-01 5.37766541074721e-03
4.09750000000000e-01 8.74641208313244e-01 5.38218358881324e-03
4.20392857142857e-01 8.63929789242571e-01 5.38488680513910e-03
4.31035714285714e-01 8.53349549106423e-01 5.38586333770673e-03
4.41678571428571e-01 8.42898881402878e-01 5.38519659074531e-03
4.52321428571429e-01 8.32576199304290e-01 5.38296545192546e-03
4.62964285714286e-01 8.22379935416240e-01 5.37924462592997e-03
4.73607142857143e-01 8.12308541539766e-01 5.37410493303281e-03
4.84250000000000e-01 8.02360488436160e-01 5.36761358217435e-03
4.94892857142857e-01 7.92534265575460e-01 5.35983440899752e-03
5.05535714285714e-01 7.82828380965987e-01 5.35082810475550e-03
5.16178571428571e-01 7.73241360867887e-01 5.34065242569859e-03
5.26821428571429e-01 7.63771749589685e-01 5.32936237182105e-03
5.37464285714286e-01 7.54418109267180e-01 5.31701036063644e-03
5.48107142857143e-01 7.45179019645274e-01 5.30364638429606e-03
5.58750000000000e-01 7.36053077862235e-01 5.28931815631618e-03
5.69392857142857e-01 7.27038898221307e-01 5.27407123824959e-03
5.80035714285714e-01 7.18135112027166e-01 5.25794916712641e-03
5.90678571428571e-01 7.09340367330484e-01 5.24099357370453e-03
6.01321428571429e-01 7.00653328738786e-01 5.22324428107538e-03
6.11964285714286e-01 6.92072677213626e-01 5.20473940473935e-03
6.22607142857143e-01 6.83597109870417e-01 5.18551544347871e-03
6.33250000000000e-01 6.75225339780541e-01 5.16560736579548e-03
6.43892857142857e-01 6.66956095763477e-01 5.14504868305940e-03
6.54535714285714e-01 6.58788122231731e-01 5.12387152684735e-03
6.65178571428571e-01 6.50720178961667e-01 5.10210672150294e-03
6.75821428571429e-01 6.42751040918234e-01 5.07978384255093e-03
6.86464285714286e-01 6.34879498068913e-01 5.05693127885856e-03
6.97107142857143e-01 6.27104355200072e-01 5.03357628908014e-03
7.07750000000000e-01 6.19424431735434e-01 5.00974505627072e-03
7.18392857142857e-01 6.11838561546586e-01 4.98546273277711e-03
7.29035714285714e-01 6.04345592807062e-01 4.96075349038566e-03
7.39678571428571e-01 5.96944387785853e-01 4.93564056778842e-03
7.50321428571429e-01 5.89633822685338e-01 4.91014630708717e-03
7.60964285714286e-01 5.82412787470621e-01 4.88429219473394e-03
7.71607142857143e-01 5.75280185701042e-01 4.85809889858412e-03
7.82250000000000e-01 5.68234934363661e-01 4.83158630433770e-03
7.92892857142857e-01 5.61275963700310e-01 4.80477354439217e-03
8.03535714285714e-01 5.54402217071021e-01 4.77767903209261e-03
8.14178571428571e-01 5.47612650767369e-01 4.75032049438323e-03
8.24821428571429e-01 5.40906233862857e-01 4.72271499556518e-03
8.35464285714286e-01 5.34281948056358e-01 4.69487896553762e-03
8.46107142857143e-01 5.27738787517541e-01 4.66682822520552e-03
8.56750000000000e-01 5.21275758734125e-01 4.63857801187032e-03
8.67392857142857e-01 5.14891880353888e-01 4.61014299844351e-03
8.78035714285714e-01 5.08586183057336e-01 4.58153731782540e-03
8.88678571428571e-01 5.02357709388560e-01 4.55277458628502e-03
8.99321428571429e-01 4.96205513617271e-01 4.52386791940818e-03
9.09964285714286e-01 4.90128661595190e-01 4.49482995231297e-03
9.20607142857143e-01 4.84126230614239e-01 4.46567285769127e-03
9.31250000000000e-01 4.78197309266416e-01 4.43640836412398e-03
9.41892857142857e-01 4.72340997299391e-01 4.40704776922956e-03
9.52535714285714e-01 4.66556405498101e-01 4.37760195760275e-03
9.63178571428571e-01 4.60842655531204e-01 4.34808141810347e-03
9.73821428571429e-01 4.55198879823971e-01 4.31849625481675e-03
9.84464285714286e-01 4.49624221426539e-01 4.28885620196228e-03
9.95107142857143e-01 4.44117833883821e-01 4.25917063610152e-03
1.00575000000000e+00 4.38678881112164e-01 4.22944859458942e-03
1.01639285714286e+00 4.33306537241255e-01 4.19969877981573e-03
1.02703571428571e+00 4.27999986536185e-01 4.16992955950250e-03
1.03767857142857e+00 4.22758423301270e-01 4.14014901510934e-03
1.04832142857143e+00 4.17581051608744e-01 4.11036492960491e-03
1.05896428571429e+00 4.12467085328078e-01 4.08058476945091e-03
1.06960714285714e+00 4.07415748002209e-01 4.05081575028377e-03
1.08025000000000e+00 4.02426272590598e-01 4.02106481881302e-03
1.09089285714286e+00 3.97497901492909e-01 3.99133864353011e-03
1.10153571428571e+00 3.92629886386856e-01 3.96164364277712e-03
1.11217857142857e+00 3.87821488156674e-01 3.93198600886850e-03
1.12282142857143e+00 3.83071976653494e-01 3.90237169952715e-03
1.13346428571429e+00 3.78380630712907e-01 3.87280642063045e-03
1.14410714285714e+00 3.73746738041776e-01 3.84329568319027e-03
1.15475000000000e+00 3.69169594990909e-01 3.81384478613942e-03
1.16539285714286e+00 3.64648506568337e-01 3.78445880698925e-03
1.17603571428571e+00 3.60182786293398e-01 3.75514262566550e-03
1.18667857142857e+00 3.55771756128678e-01 3.72590094492717e-03
1.19732142857143e+00 3.51414746267592e-01 3.69673828181092e-03
1.20796428571429e+00 3.47111095143034e-01 3.66765895140745e-03
1.21860714285714e+00 3.42860149323808e-01 3.63866711660937e-03
1.22925000000000e+00 3.38661263312838e-01 3.60976677199709e-03
1.23989285714286e+00 3.34513799552547e-01 3.58096173475758e-03
1.25053571428571e+00 3.30417128293291e-01 3.55225566511854e-03
1.26117857142857e+00 3.26370627528945e-01 3.52365208380440e-03
1.27182142857143e+00 3.22373682808021e-01 3.49515436374551e-03
1.28246428571429e+00 3.18425687235574e-01 3.46676571499715e-03
1.29310714285714e+00 3.14526041378407e-01 3.43848922839361e-03
1.30375000000000e+00 3.10674153085415e-01 3.41032786061183e-03
1.31439285714286e+00 3.06869437487021e-01 3.38228442552235e-03
1.32503571428571e+00 3.03111316876331e-01 3.35436161184002e-03
1.33567857142857e+00 2.99399220648431e-01 3.32656199816601e-03
1.34632142857143e+00 2.95732585131994e-01 3.29888804510280e-03
1.35696428571429e+00 2.92110853586109e-01 3.27134208133883e-03
1.36760714285714e+00 2.88533476113495e-01 3.24392634211150e-03
1.37825000000000e+00 2.84999909500154e-01 3.21664295545290e-03
1.38889285714286e+00 2.81509617210355e-01 3.18949393406019e-03
1.39953571428571e+00 2.78062069279124e-01 3.16248119063493e-03
1.41017857142857e+00 2.74656742255236e-01 3.13560655092710e-03
1.42082142857143e+00 2.71293119050738e-01 3.10887174632803e-03
1.43146428571429e+00 2.67970688934005e-01 3.08227840109475e-03
1.44210714285714e+00 2.64688947450272e-01 3.05582806635185e-03
1.45275000000000e+00 2.61447396278198e-01 3.02952220748158e-03
1.46339285714286e+00 2.58245543221573e-01 3.00336219654926e-03
1.47403571428571e+00 2.55082902111936e-01 2.97734932570091e-03
1.48467857142857e+00 2.51958992755186e-01 2.95148481853387e-03
1.49532142857143e+00 2.48873340796838e-01 2.92576982319533e-03
1.50596428571429e+00 2.45825477712333e-01 2.90020540069358e-03
1.51660714285714e+00 2.42814940734242e-01 2.87479255504031e-03
1.52725000000000e+00 2.39841272723725e-01 2.84953222172369e-03
1.53789285714286e+00 2.36904022159859e-01 2.82442526069442e-03
1.54853571428571e+00 2.34002743051334e-01 2.79947246811554e-03
1.55917857142857e+00 2.31136994886579e-01 2.77467458631704e-03
1.56982142857143e+00 2.28306342512876e-01 2.75003229740354e-03
1.58046428571429e+00 2.25510356124722e-01 2.72554621258435e-03
1.59110714285714e+00 2.22748611197141e-01 2.70121689895723e-03
1.60175000000000e+00 2.20020688370280e-01 2.67704486899367e-03
1.61239285714286e+00 2.17326173437086e-01 2.65303057407189e-03
1.62303571428571e+00 2.14664657263145e-01 2.62917441481711e-03
1.63367857142857e+00 2.12035735740186e-01 2.60547674984842e-03
1.64432142857143e+00 2.09439009677457e-01 2.58193788988214e-03
1.65496428571429e+00 2.06874084788755e-01 2.55855808800775e-03
1.66560714285714e+00 2.04340571631322e-01 2.53533756353540e-03
1.67625000000000e+00 2.01838085502083e-01 2.51227649241850e-03
1.68689285714286e+00 1.99366246424220e-01 2.48937500130942e-03
1.69753571428571e+00 1.96924679074353e-01 2.46663317668606e-03
1.70817857142857e+00 1.94513012739249e-01 2.44405107256078e-03
1.71882142857143e+00 1.92130881218084e-01 2.42162870505757e-03
1.72946428571429e+00 1.89777922808629e-01 2.39936604355992e-03
1.74010714285714e+00 1.87453780251247e-01 2.37726303198140e-03
1.75075000000000e+00 1.85158100635479e-01 2.35531958005032e-03
1.76139285714286e+00 1.82890535385942e-01 2.33353555785822e-03
1.77203571428571e+00 1.80650740196131e-01 2.31191080393535e-03
1.78267857142857e+00 1.78438374988176e-01 2.29044513206292e-03
1.79332142857143e+00 1.76253103824778e-01 2.26913832629694e-03
1.80396428571429e+00 1.74094594894927e-01 2.24799013291592e-03
1.81460714285714e+00 1.71962520462578e-01 2.22700027942198e-03
1.82525000000000e+00 1.69856556782435e-01 2.20616846661545e-03
1.83589285714286e+00 1.67776384085526e-01 2.18549436360345e-03
1.84653571428571e+00 1.65721686518975e-01 2.16497761496111e-03
1.85717857142857e+00 1.63692152108638e-01 2.14461784676481e-03
1.86782142857143e+00 1.61687472679668e-01 2.12441466203314e-03
1.87846428571429e+00 1.59707343842053e-01 2.10436763340646e-03
1.88910714285714e+00 1.57751464943572e-01 2.08447632014321e-03
1.89975000000000e+00 1.55819538993797e-01 2.06474026091590e-03
1.91039285714286e+00 1.53911272649594e-01 2.04515896924720e-03
1.92103571428571e+00 1.52026376160295e-01 2.02573193987190e-03
1.93167857142857e+00 1.50164563333050e-01 2.00645865409061e-03
1.94232142857143e+00 1.48325551461093e-01 1.98733857559835e-03
1.95296428571429e+00 1.46509061309327e-01 1.96837114383121e-03
1.96360714285714e+00 1.44714817071202e-01 1.94955578918799e-03
1.97425000000000e+00 1.42942546300059e-01 1.93089192648381e-03
1.98489285714286e+00 1.41191979894761e-01 1.91237895078032e-03
1.99553571428571e+00 1.39462852049752e-01 1.89401624304724e-03
2.00617857142857e+00 1.37754900222957e-01 1.87580317492137e-03
2.01682142857143e+00 1.36067865070939e-01 1.85773910489316e-03
2.02746428571429e+00 1.34401490434705e-01 1.83982337226090e-03
2.03810714285714e+00 1.32755523300172e-01 1.82205531077757e-03
2.04875000000000e+00 1.31129713736091e-01 1.80443424270270e-03
2.05939285714286e+00 1.29523814879952e-01 1.78695947499571e-03
2.07003571428571e+00 1.27937582892478e-01 1.76963030436135e-03
2.08067857142857e+00 1.26370776927906e-01 1.75244602148625e-03
2.09132142857143e+00 1.24823159075328e-01 1.73540590755539e-03
2.10196428571429e+00 1.23294494344833e-01 1.71850922875851e-03
2.11260714285714e+00 1.21784550631274e-01 1.70175524853722e-03
2.12325000000000e+00 1.20293098658082e-01 1.68514322218087e-03
2.13389285714286e+00 1.18819911963564e-01 1.66867239335271e-03
2.14453571428571e+00 1.17364766859423e-01 1.65234199859230e-03
2.15517857142857e+00 1.15927442403256e-01 1.63615127109206e-03
2.16582142857143e+00 1.14507720345447e-01 1.62009943751641e-03
2.17646428571429e+00 1.13105385115749e-01 1.60418571301049e-03
2.18710714285714e+00 1.11720223790062e-01 1.58840931220048e-03
2.19775000000000e+00 1.10352026039550e-01 1.57276944428368e-03
2.20839285714286e+00 1.09000584117407e-01 1.55726530985962e-03
2.21903571428571e+00 1.07665692821029e-01 1.54189610495239e-03
2.22967857142857e+00 1.06347149466584e-01 1.52666102438131e-03
2.24032142857143e+00 1.05044753840899e-01 1.51155925885749e-03
2.25096428571429e+00 1.03758308188542e-01 1.49658999044863e-03
2.26160714285714e+00 1.02487617181360e-01 1.48175240246743e-03
2.27225000000000e+00 1.01232487872370e-01 1.46704567501046e-03
2.28289285714286e+00 9.99927296830490e-02 1.45246898206809e-03
2.29353571428571e+00 9.87681543688194e-02 1.43802149512178e-03
2.30417857142857e+00 9.75585759955531e-02 1.42370238615551e-03
2.31482142857143e+00 9.63638108959529e-02 1.40951082500656e-03
2.32546428571429e+00 9.51836776571757e-02 1.39544597524425e-03
2.33610714285714e+00 9.40179970929099e-02 1.38150700306523e-03
2.34675000000000e+00 9.28665922015532e-02 1.36769307323982e-03
2.35739285714286e+00 9.17292881540703e-02 1.35400334647667e-03
2.36803571428571e+00 9.06059122624935e-02 1.34043698264286e-03
2.37867857142857e+00 8.94962939582208e-02 1.32699314345722e-03
2.38932142857143e+00 8.84002647524468e-02 1.31367099007315e-03
2.39996428571429e+00 8.73176582243610e-02 1.30046967933327e-03
2.41060714285714e+00 8.62483099955448e-02 1.28738837177681e-03
2.42125000000000e+00 8.51920576920228e-02 1.27442622795559e-03
2.43189285714286e+00 8.41487409327031e-02 1.26158240603128e-03
2.44253571428571e+00 8.31182013006231e-02 1.24885606466037e-03
2.45317857142857e+00 8.21002823229139e-02 1.23624636540491e-03
2.46382142857143e+00 8.10948294348847e-02 1.22375247052754e-03
2.47446428571429e+00 8.01016899688094e-02 1.21137353958711e-03
2.48510714285714e+00 7.91207131304519e-02 1.19910873665139e-03
2.49575000000000e+00 7.81517499646104e-02 1.18695722694848e-03
2.50639285714286e+00 7.71946533441529e-02 1.17491817467620e-03
2.51703571428571e+00 7.62492779437600e-02 1.16299074558878e-03
2.52767857142857e+00 7.53154802214368e-02 1.15117410915656e-03
2.53832142857143e+00 7.43931183858939e-02 1.13946743655465e-03
2.54896428571429e+00 7.34820523859298e-02 1.12786989756790e-03
2.55960714285714e+00 7.25821438889040e-02 1.11638066709159e-03
2.57025000000000e+00 7.16932562494394e-02 1.10499892208731e-03
2.58089285714286e+00 7.08152544990512e-02 1.09372383958578e-03
2.59153571428571e+00 6.99480053221645e-02 1.08255459900779e-03
2.60217857142857e+00 6.90913770390599e-02 1.07149038410024e-03
2.61282142857143e+00 6.82452395762358e-02 1.06053038110143e-03
2.62346428571429e+00 6.74094644563805e-02 1.04967377592717e-03
2.63410714285714e+00 6.65839247786314e-02 1.03891976003268e-03
2.64475000000000e+00 6.57684951901331e-02 1.02826752764467e-03
2.65539285714286e+00 6.49630518762521e-02 1.01771627394053e-03
2.66603571428571e+00 6.41674725386682e-02 1.00726519713224e-03
2.67667857142857e+00 6.33816363796468e-02 9.96913500203078e-04
2.68732142857143e+00 6.26054240750984e-02 9.86660389234110e-04
2.69796428571429e+00 6.18387177651297e-02 9.76505070845190e-04
2.70860714285714e+00 6.10814010359414e-02 9.66446757483614e-04
2.71925000000000e+00 6.03333588939688e-02 9.56484664907045e-04
2.72989285714286e+00 5.95944777566713e-02 9.46618010523271e-04
2.74053571428571e+00 5.88646454325125e-02 9.36846015262406e-04
2.75117857142857e+00 5.81437511064620e-02 9.27167905135826e-04
2.76182142857143e+00 5.74316853154954e-02 9.17582909709587e-04
2.77246428571429e+00 5.67283399397100e-02 9.08090259776839e-04
2.78310714285714e+00 5.60336081857247e-02 8.98689192131583e-04
2.79375000000000e+00 5.53473845631592e-02 8.89378947279201e-04
2.80439285714286e+00 5.46695648759811e-02 8.80158767922536e-04
2.81503571428571e+00 5.40000462042094e-02 8.71027900644894e-04
2.82567857142857e+00 5.33387268905522e-02 8.61985597310124e-04
2.83632142857143e+00 5.26855065181183e-02 8.53031113670051e-04
2.84696428571429e+00 5.20402859020786e-02 8.44163707247053e-04
2.85760714285714e+00 5.14029670744439e-02 8.35382641644758e-04
2.86825000000000e+00 5.07734532626619e-02 8.26687184465306e-04
2.87889285714286e+00 5.01516488815039e-02 8.18076605928857e-04
2.88953571428571e+00 4.95374595163389e-02 8.09550180387208e-04
2.90017857142857e+00 4.89307919108224e-02 8.01107187581848e-04
2.91082142857143e+00 4.83315539466118e-02 7.92746911373567e-04
2.92146428571429e+00 4.77396546355539e-02 7.84468637815829e-04
2.93210714285714e+00 4.71550041057242e-02 7.76271659049057e-04
2.94275000000000e+00 4.65775135819465e-02 7.68155271405568e-04
2.95339285714286e+00 4.60070953781950e-02 7.60118774150539e-04
2.96403571428571e+00 4.54436628823032e-02 7.52161470843956e-04
2.97467857142857e+00 4.48871305446231e-02 7.44282670471718e-04
2.98532142857143e+00 4.43374138595583e-02 7.36481686286559e-04
2.99596428571429e+00 4.37944293582545e-02 7.28757834054684e-04
3.00660714285714e+00 4.32580945957966e-02 7.21110435575242e-04
3.01725000000000e+00 4.27283281334709e-02 7.13538816955681e-04
3.02789285714286e+00 4.22050495316616e-02 7.06042307463376e-04
3.03853571428571e+00 4.16881793358676e-02 6.98620240751770e-04
3.04917857142857e+00 4.11776390662589e-02 6.91271955877686e-04
3.05982142857143e+00 4.06733512008585e-02 6.83996796243708e-04
3.07046428571429e+00 4.01752391687130e-02 6.76794108002307e-04
3.08110714285714e+00 3.96832273381514e-02 6.69663243237616e-04
3.09175000000000e+00 3.91972410006285e-02 6.62603558395673e-04
3.10239285714286e+00 3.87172063640919e-02 6.55614413236958e-04
3.11303571428571e+00 3.82430505401938e-02 6.48695171940583e-04
3.12367857142857e+00 3.77747015346743e-02 6.41845204019673e-04
3.13432142857143e+00 3.73120882320416e-02 6.35063883356313e-04
3.14496428571429e+00 3.68551403891980e-02 6.28350586748646e-04
3.15560714285714e+00 3.64037886246716e-02 6.21704696788482e-04
3.16625000000000e+00 3.59579644038972e-02 6.15125600432228e-04
3.17689285714286e+00 3.55176000330283e-02 6.08612688045251e-04
3.18753571428571e+00 3.50826286472406e-02 6.02165354396719e-04
3.19817857142857e+00 3.46529842018790e-02 5.95782999483622e-04
3.20882142857143e+00 3.42286014584973e-02 5.89465027650002e-04
3.21946428571429e+00 3.38094159789169e-02 5.83210846264134e-04
3.23010714285714e+00 3.33953641153504e-02 5.77019868321769e-04
3.24075000000000e+00 3.29863829969879e-02 5.70891511144890e-04
3.25139285714286e+00 3.25824105242305e-02 5.64825195509861e-04
3.26203571428571e+00 3.21833853579910e-02 5.58820346544042e-04
3.27267857142857e+00 3.17892469115449e-02 5.52876394467808e-04
3.28332142857143e+00 3.13999353378067e-02 5.46992773790691e-04
3.29396428571429e+00 3.10153915237956e-02 5.41168922106727e-04
3.30460714285714e+00 3.06355570815785e-02 5.35404282450198e-04
3.31525000000000e+00 3.02603743360415e-02 5.29698302110666e-04
3.32589285714286e+00 2.98897863195229e-02 5.24050431837410e-04
3.33653571428571e+00 2.95237367620231e-02 5.18460126647805e-04
3.34717857142857e+00 2.91621700837062e-02 5.12926846495759e-04
3.35782142857143e+00 2.88050313832991e-02 5.07450055537908e-04
