Energy (eV)          EEDF (eV^-(3/2))     First Anisotropy
4.34848484848485e-02 4.69228279875943e-02 3.05972641429588e-05
1.30454545454545e-01 4.64338343628048e-02 5.04310538810245e-05
2.17424242424242e-01 4.59499366534535e-02 6.63268715971151e-05
3.04393939393939e-01 4.54710817539050e-02 7.82532791148645e-05
3.91363636363636e-01 4.49972171118454e-02 8.80768787834854e-05
4.78333333333333e-01 4.45282907226419e-02 9.65071617180164e-05
5.65303030303030e-01 4.40642511236180e-02 1.03913144530335e-04
6.52272727272727e-01 4.36050473884035e-02 1.10518761721372e-04
7.39242424242424e-01 4.31506291213441e-02 1.16473249764387e-04
8.26212121212121e-01 4.27009464519707e-02 1.21882590596364e-04
9.13181818181818e-01 4.22559500295260e-02 1.26825608692107e-04
1.00015151515152e+00 4.18155910175484e-02 1.31363032870875e-04
1.08712121212121e+00 4.13798210900909e-02 1.35542970666278e-04
1.17409090909091e+00 4.09485924204622e-02 1.39404399934409e-04
1.26106060606061e+00 4.05218576832593e-02 1.42979495380977e-04
1.34803030303030e+00 4.00995700495630e-02 1.46295237119737e-04
1.43500000000000e+00 3.96816831718412e-02 1.49374553564128e-04
1.52196969696970e+00 3.92681511888880e-02 1.52237155572288e-04
1.60893939393939e+00 3.88589287174201e-02 1.54900159736287e-04
1.69590909090909e+00 3.84539708496103e-02 1.57378562232445e-04
1.78287878787879e+00 3.80532331405316e-02 1.59685604325327e-04
1.86984848484848e+00 3.76566716109780e-02 1.61833058797176e-04
1.95681818181818e+00 3.72642427421546e-02 1.63831459599624e-04
2.04378787878788e+00 3.68759034645826e-02 1.65690284829113e-04
2.13075757575758e+00 3.64916111597159e-02 1.67418105411767e-04
2.21772727272727e+00 3.61113236549169e-02 1.69022708937775e-04
2.30469696969697e+00 3.57349992134905e-02 1.70511200625479e-04
2.39166666666667e+00 3.53625965354700e-02 1.71890087738915e-04
2.47863636363636e+00 3.49940747512882e-02 1.73165351369899e-04
2.56560606060606e+00 3.46293934187524e-02 1.74342507221537e-04
2.65257575757576e+00 3.42685125141604e-02 1.75426656811914e-04
2.73954545454545e+00 3.39113924323973e-02 1.76422531173618e-04
2.82651515151515e+00 3.35579939823655e-02 1.77334529995543e-04
2.91348484848485e+00 3.32082783788055e-02 1.78166754188092e-04
3.00045454545455e+00 3.28622072419371e-02 1.78923034204183e-04
3.08742424242424e+00 3.25197425930809e-02 1.79606956163032e-04
3.17439393939394e+00 3.21808468470681e-02 1.80221883541238e-04
3.26136363636364e+00 3.18454828115534e-02 1.80770976271773e-04
3.34833333333333e+00 3.15136136827829e-02 1.81257208900386e-04
3.43530303030303e+00 3.11852030385270e-02 1.81683385543706e-04
3.52227272727273e+00 3.08602148371365e-02 1.82052153325229e-04
3.60924242424242e+00 3.05386134125577e-02 1.82366014935580e-04
3.69621212121212e+00 3.02203634712977e-02 1.82627339876020e-04
3.78318181818182e+00 2.99054300858996e-02 1.82838374119099e-04
3.87015151515152e+00 2.95937786937782e-02 1.83001248677546e-04
3.95712121212121e+00 2.92853750933253e-02 1.83117988425455e-04
4.04409090909091e+00 2.89801854377662e-02 1.83190519078268e-04
4.13106060606061e+00 2.86781762338479e-02 1.83220673517233e-04
4.21803030303030e+00 2.83793143380734e-02 1.83210198551600e-04
4.30500000000000e+00 2.80835669509045e-02 1.83160760136264e-04
4.39196969696970e+00 2.77909016153375e-02 1.83073948230707e-04
4.47893939393939e+00 2.75012862126105e-02 1.82951281692690e-04
4.56590909090909e+00 2.72146889593141e-02 1.82794212750053e-04
4.65287878787879e+00 2.69310784019796e-02 1.82604130740963e-04
4.73984848484849e+00 2.66504234155654e-02 1.82382365446864e-04
4.82681818181818e+00 2.63726931999735e-02 1.82130191042347e-04
4.91378787878788e+00 2.60978572749113e-02 1.81848828909063e-04
5.00075757575758e+00 2.58258854783145e-02 1.81539450230050e-04
5.08772727272727e+00 2.55567479629781e-02 1.81203179217616e-04
5.17469696969697e+00 2.52904151916708e-02 1.80841095321142e-04
5.26166666666667e+00 2.50268579355135e-02 1.80454235354127e-04
5.34863636363636e+00 2.47660472702287e-02 1.80043595838320e-04
5.43560606060606e+00 2.45079545734447e-02 1.79610135170069e-04
5.52257575757576e+00 2.42525515201035e-02 1.79154775331531e-04
5.60954545454546e+00 2.39998100808146e-02 1.78678403398698e-04
5.69651515151515e+00 2.37497025187314e-02 1.78181873676424e-04
5.78348484848485e+00 2.35022013851691e-02 1.77666008999392e-04
5.87045454545455e+00 2.32572795179379e-02 1.77131601945233e-04
5.95742424242424e+00 2.30149100383217e-02 1.76579416657887e-04
6.04439393939394e+00 2.27750663468910e-02 1.76010189899838e-04
6.13136363636364e+00 2.25377221218281e-02 1.75424632035728e-04
6.21833333333333e+00 2.23028513159994e-02 1.74823428605846e-04
6.30530303030303e+00 2.20704281529532e-02 1.74207241182157e-04
6.39227272727273e+00 2.18404271252436e-02 1.73576708237239e-04
6.47924242424242e+00 2.16128229912427e-02 1.72932446251111e-04
6.56621212121212e+00 2.13875907727171e-02 1.72275050740871e-04
6.65318181818182e+00 2.11647057510423e-02 1.71605096986818e-04
6.74015151515152e+00 2.09441434655410e-02 1.70923140647704e-04
6.82712121212121e+00 2.07258797107678e-02 1.70229718919297e-04
6.91409090909091e+00 2.05098905328823e-02 1.69525351073627e-04
7.00106060606061e+00 2.02961522279963e-02 1.68810538966437e-04
7.08803030303030e+00 2.00846413395448e-02 1.68085768065264e-04
7.17500000000000e+00 1.98753346548075e-02 1.67351507894891e-04
7.26196969696970e+00 1.96682092032718e-02 1.66608212513363e-04
7.34893939393939e+00 1.94632422538062e-02 1.65856321207256e-04
7.43590909090909e+00 1.92604113124391e-02 1.65096259139141e-04
7.52287878787879e+00 1.90596941190624e-02 1.64328437753464e-04
7.60984848484849e+00 1.88610686458226e-02 1.63553255103241e-04
7.69681818181818e+00 1.86645130946801e-02 1.62771096649935e-04
7.78378787878788e+00 1.84700058942425e-02 1.61982335550768e-04
7.87075757575758e+00 1.82775256981763e-02 1.61187332930228e-04
7.95772727272727e+00 1.80870513828428e-02 1.60386438603999e-04
8.04469696969697e+00 1.78985620442561e-02 1.59579991317843e-04
8.13166666666667e+00 1.77120369965175e-02 1.58768319021151e-04
8.21863636363636e+00 1.75274557693010e-02 1.57951739335242e-04
8.30560606060606e+00 1.73447981058271e-02 1.57130559989094e-04
8.39257575757576e+00 1.71640439599727e-02 1.56305079056136e-04
8.47954545454546e+00 1.69851734947432e-02 1.55475585130469e-04
8.56651515151515e+00 1.68081670800769e-02 1.54642357912570e-04
8.65348484848485e+00 1.66330052900653e-02 1.53805668363570e-04
8.74045454545455e+00 1.64596689014505e-02 1.52965778851421e-04
8.82742424242424e+00 1.62881388914995e-02 1.52122943688493e-04
8.91439393939394e+00 1.61183964353284e-02 1.51277409259484e-04
9.00136363636364e+00 1.59504229044285e-02 1.50429414142588e-04
9.08833333333333e+00 1.57841998646052e-02 1.49579189604640e-04
9.17530303030303e+00 1.56197090734041e-02 1.48726959706514e-04
9.26227272727273e+00 1.54569324786640e-02 1.47872941442163e-04
9.34924242424242e+00 1.52958522163495e-02 1.47017345040785e-04
9.43621212121212e+00 1.51364506087597e-02 1.46160374247125e-04
9.52318181818182e+00 1.49787101620764e-02 1.45302226443626e-04
9.61015151515152e+00 1.48226135649598e-02 1.44443092726631e-04
9.69712121212121e+00 1.46681436866348e-02 1.43583158321199e-04
9.78409090909091e+00 1.45152835745298e-02 1.42722602646441e-04
9.87106060606061e+00 1.43640164529005e-02 1.41861599377391e-04
9.95803030303030e+00 1.42143257209769e-02 1.41000317003531e-04
1.00450000000000e+01 1.40661949499487e-02 1.40138918019489e-04
1.01319696969697e+01 1.39196078852986e-02 1.39277560383611e-04
1.02189393939394e+01 1.37745484382392e-02 1.38416397446213e-04
1.03059090909091e+01 1.36310006891171e-02 1.37555576820707e-04
1.03928787878788e+01 1.34889488841806e-02 1.36695241759969e-04
1.04798484848485e+01 1.33483774338518e-02 1.35835530937352e-04
1.05668181818182e+01 1.32092709110153e-02 1.34976578577914e-04
1.06537878787879e+01 1.30716140493250e-02 1.34118514585368e-04
1.07407575757576e+01 1.29353917415292e-02 1.33261464664947e-04
1.08277272727273e+01 1.28005890378118e-02 1.32405550442350e-04
1.09146969696970e+01 1.26671911441527e-02 1.31550889578863e-04
1.10016666666667e+01 1.25351834207032e-02 1.30697595882888e-04
1.10886363636364e+01 1.24045513801800e-02 1.29845779417973e-04
1.11756060606061e+01 1.22752806862751e-02 1.28995546607432e-04
1.12625757575758e+01 1.21473571520824e-02 1.28147000335786e-04
1.13495454545455e+01 1.20207667385407e-02 1.27300240047056e-04
1.14365151515152e+01 1.18954955528932e-02 1.26455361840056e-04
1.15234848484848e+01 1.17715298471626e-02 1.25612458560891e-04
1.16104545454545e+01 1.16488560166420e-02 1.24771619892381e-04
1.16974242424242e+01 1.15274605984028e-02 1.23932932441013e-04
1.17843939393939e+01 1.14073302698165e-02 1.23096479821464e-04
1.18713636363636e+01 1.12884518470927e-02 1.22262342738347e-04
1.19583333333333e+01 1.11708122838326e-02 1.21430599065666e-04
1.20453030303030e+01 1.10543986695965e-02 1.20601323923900e-04
1.21322727272727e+01 1.09391982284877e-02 1.19774589754885e-04
1.22192424242424e+01 1.08251983177497e-02 1.18950466394511e-04
1.23062121212121e+01 1.07123864263793e-02 1.18129021143330e-04
1.23931818181818e+01 1.06007501737534e-02 1.17310318835140e-04
1.24801515151515e+01 1.04902773082698e-02 1.16494421903610e-04
1.25671212121212e+01 1.03809557060035e-02 1.15681390447025e-04
1.26540909090909e+01 1.02727733693755e-02 1.14871282291193e-04
1.27410606060606e+01 1.01657184258362e-02 1.14064153050603e-04
1.28280303030303e+01 1.00597791265628e-02 1.13260056187863e-04
1.29150000000000e+01 9.95494384516941e-03 1.12459042859991e-04
1.30019696969697e+01 9.85120107722570e-03 1.11661162614183e-04
1.30889393939394e+01 9.74853943659006e-03 1.10866463013726e-04
1.31759090909091e+01 9.64694765658611e-03 1.10074989254621e-04
1.32628787878788e+01 9.54641458795009e-03 1.09286784875707e-04
1.33498484848485e+01 9.44692919760725e-03 1.08501891587699e-04
1.34368181818182e+01 9.34848056746106e-03 1.07720349322112e-04
1.35237878787879e+01 9.25105789319495e-03 1.06942196278865e-04
1.36107575757576e+01 9.15465048308660e-03 1.06167468972617e-04
1.36977272727273e+01 9.05924775683460e-03 1.05396202277867e-04
1.37846969696970e+01 8.96483924439725e-03 1.04628429472822e-04
1.38716666666667e+01 8.87141458484358e-03 1.03864182282147e-04
1.39586363636364e+01 8.77896352521624e-03 1.03103490918547e-04
1.40456060606061e+01 8.68747591940629e-03 1.02346384123275e-04
1.41325757575758e+01 8.59694172703972e-03 1.01592889205559e-04
1.42195454545455e+01 8.50735101237557e-03 1.00843032081026e-04
1.43065151515152e+01 8.41869394321548e-03 1.00096837309089e-04
1.43934848484848e+01 8.33096078982473e-03 9.93543281294295e-05
1.44804545454545e+01 8.24414192386418e-03 9.86155264974042e-05
1.45674242424242e+01 8.15822781733402e-03 9.78804531186037e-05
1.46543939393939e+01 8.07320904152790e-03 9.71491274826391e-05
1.47413636363636e+01 7.98907626599819e-03 9.64215678959073e-05
1.48283333333333e+01 7.90582025753197e-03 9.56977915135704e-05
1.49153030303030e+01 7.82343187913778e-03 9.49778143707250e-05
1.50022727272727e+01 7.74190208904281e-03 9.42616514127600e-05
1.50892424242424e+01 7.66122193970068e-03 9.35493165249619e-05
1.51762121212121e+01 7.58138257680940e-03 9.28408225613689e-05
1.52631818181818e+01 7.50237523833971e-03 9.21361813728846e-05
1.53501515151515e+01 7.42419125357347e-03 9.14354038346892e-05
1.54371212121212e+01 7.34682204215208e-03 9.07384998729707e-05
1.55240909090909e+01 7.27025911313483e-03 9.00454784909796e-05
1.56110606060606e+01 7.19449406406704e-03 8.93563477944248e-05
1.56980303030303e+01 7.11951858005795e-03 8.86711150162507e-05
1.57850000000000e+01 7.04532443286819e-03 8.79897864053510e-05
1.58719696969697e+01 6.97190348046680e-03 8.73123676595843e-05
1.59589393939394e+01 6.89924766474551e-03 8.66388636743793e-05
1.60459090909091e+01 6.82734901203882e-03 8.59692782856060e-05
1.61328787878788e+01 6.75619963177661e-03 8.53036147128853e-05
1.62198484848485e+01 6.68579171561820e-03 8.46418754392899e-05
1.63068181818182e+01 6.61611753659541e-03 8.39840622321334e-05
1.63937878787879e+01 6.54716944826460e-03 8.33301761632358e-05
1.64807575757576e+01 6.47893988386744e-03 8.26802176287005e-05
1.65677272727273e+01 6.41142135550055e-03 8.20341863682078e-05
1.66546969696970e+01 6.34460645329368e-03 8.13920814838226e-05
1.67416666666667e+01 6.27848784459657e-03 8.07539014583593e-05
1.68286363636364e+01 6.21305827317417e-03 8.01196441732906e-05
1.69156060606061e+01 6.14831055841034e-03 7.94893069262205e-05
1.70025757575758e+01 6.08423759451976e-03 7.88628864479283e-05
1.70895454545455e+01 6.02083234976816e-03 7.82403789190022e-05
1.71765151515152e+01 5.95808786570057e-03 7.76217799860714e-05
1.72634848484849e+01 5.89599725637767e-03 7.70070847776618e-05
1.73504545454545e+01 5.83455370762005e-03 7.63962879196024e-05
1.74374242424242e+01 5.77375047626047e-03 7.57893835500944e-05
1.75243939393939e+01 5.71358088940381e-03 7.51863653344779e-05
1.76113636363636e+01 5.65403834369470e-03 7.45872264795661e-05
1.76983333333333e+01 5.59511630459289e-03 7.39919597476425e-05
1.77853030303030e+01 5.53680830565603e-03 7.34005574701421e-05
1.78722727272727e+01 5.47910794783009e-03 7.28130115609843e-05
1.79592424242424e+01 5.42200889874703e-03 7.22293135295926e-05
1.80462121212121e+01 5.36550489202987e-03 7.16494544936025e-05
1.81331818181818e+01 5.30958972660501e-03 7.10734251912527e-05
1.82201515151515e+01 5.25425726602164e-03 7.05012159934884e-05
1.83071212121212e+01 5.19950143777832e-03 6.99328169157657e-05
1.83940909090909e+01 5.14531623265653e-03 6.93682176295702e-05
1.84810606060606e+01 5.09169570406122e-03 6.88074074736641e-05
1.85680303030303e+01 5.03863396736817e-03 6.82503754650645e-05
1.86550000000000e+01 4.98612519927817e-03 6.76971102215655e-05
1.87419696969697e+01 4.93416363745356e-03 6.71476002387588e-05
1.88289393939394e+01 4.88274357905205e-03 6.66018337216653e-05
1.89159090909091e+01 4.83185938094170e-03 6.60597984126802e-05
1.90028787878788e+01 4.78150545879896e-03 6.55214818756278e-05
1.90898484848485e+01 4.73167628649582e-03 6.49868714130858e-05
1.91768181818182e+01 4.68236639549327e-03 6.44559540756338e-05
1.92637878787879e+01 4.63357037424126e-03 6.39287166708776e-05
1.93507575757576e+01 4.58528286758469e-03 6.34051457722519e-05
1.94377272727273e+01 4.53749857617581e-03 6.28852277276170e-05
1.95246969696970e+01 4.49021225589256e-03 6.23689486676495e-05
1.96116666666667e+01 4.44341871726310e-03 6.18562945140197e-05
1.96986363636364e+01 4.39711282489625e-03 6.13472509873831e-05
1.97856060606061e+01 4.35128949691794e-03 6.08418036151630e-05
1.98725757575758e+01 4.30594370441347e-03 6.03399377391515e-05
1.99595454545455e+01 4.26107047087562e-03 5.98416385229332e-05
2.00465151515152e+01 4.21666487165848e-03 5.93468909591159e-05
2.01334848484848e+01 4.17272203343703e-03 5.88556798764065e-05
2.02204545454545e+01 4.12923713367223e-03 5.83679899464673e-05
2.03074242424242e+01 4.08620540008190e-03 5.78838056906374e-05
2.03943939393939e+01 4.04362211011686e-03 5.74031114865123e-05
2.04813636363636e+01 4.00148259044275e-03 5.69258915743226e-05
2.05683333333333e+01 3.95978221642708e-03 5.64521300631747e-05
2.06553030303030e+01 3.91851641163172e-03 5.59818109371309e-05
2.07422727272727e+01 3.87768064731065e-03 5.55149180611432e-05
2.08292424242424e+01 3.83727044191297e-03 5.50514351868364e-05
2.09162121212121e+01 3.79728136059103e-03 5.45913459581559e-05
2.10031818181818e+01 3.75770901471377e-03 5.41346339168695e-05
2.10901515151515e+01 3.71854906138505e-03 5.36812825079322e-05
2.11771212121212e+01 3.67979720296705e-03 5.32312750847233e-05
2.12640909090909e+01 3.64144918660863e-03 5.27845949141471e-05
2.13510606060606e+01 3.60350080377859e-03 5.23412251816035e-05
2.14380303030303e+01 3.56594788980378e-03 5.19011489958447e-05
2.15250000000000e+01 3.52878632341211e-03 5.14643493355970e-05
2.16119696969697e+01 3.49201202644928e-03 5.10308092298054e-05
2.16989393939394e+01 3.45562096291977e-03 5.06005116444899e-05
2.17859090909091e+01 3.41960913905966e-03 5.01734393671956e-05
2.18728787878788e+01 3.38397260272495e-03 4.97495751920089e-05
2.19598484848485e+01 3.34870744295784e-03 4.93289018629992e-05
2.20468181818182e+01 3.31380978955752e-03 4.89114020782740e-05
2.21337878787879e+01 3.27927581265544e-03 4.84970584939288e-05
2.22207575757576e+01 3.24510172229498e-03 4.80858537278948e-05
2.23077272727273e+01 3.21128376801555e-03 4.76777703636821e-05
2.23946969696970e+01 3.17781823844096e-03 4.72727909540337e-05
2.24816666666667e+01 3.14470146087211e-03 4.68708980244842e-05
2.25686363636364e+01 3.11192980088396e-03 4.64720740768164e-05
2.26556060606061e+01 3.07949966192666e-03 4.60763015924364e-05
2.27425757575758e+01 3.04740748493080e-03 4.56835630356587e-05
2.28295454545455e+01 3.01564974791689e-03 4.52938408569043e-05
2.29165151515152e+01 2.98422296560877e-03 4.49071174958090e-05
2.30034848484848e+01 2.95312368905116e-03 4.45233753842621e-05
2.30904545454545e+01 2.92234850523109e-03 4.41425969493398e-05
2.31774242424242e+01 2.89189403670345e-03 4.37647646161746e-05
2.32643939393939e+01 2.86175694122023e-03 4.33898608107605e-05
2.33513636363636e+01 2.83193391136376e-03 4.30178679626656e-05
2.34383333333333e+01 2.80242167418374e-03 4.26487685076738e-05
2.35253030303030e+01 2.77321699083803e-03 4.22825448903482e-05
2.36122727272727e+01 2.74431665623721e-03 4.19191795665378e-05
2.36992424242424e+01 2.71571749869284e-03 4.15586550058010e-05
2.37862121212121e+01 2.68741637956938e-03 4.12009536937721e-05
2.38731818181818e+01 2.65941019293971e-03 4.08460581344580e-05
2.39601515151515e+01 2.63169586524432e-03 4.04939508524633e-05
2.40471212121212e+01 2.60427035495395e-03 4.01446143951668e-05
2.41340909090909e+01 2.57713065223583e-03 3.97980313348248e-05
2.42210606060606e+01 2.55027377862334e-03 3.94541842706144e-05
2.43080303030303e+01 2.52369678668917e-03 3.91130558306234e-05
2.43950000000000e+01 2.49739675972178e-03 3.87746286351469e-05
2.44819696969697e+01 2.47137081151103e-03 3.84388854153287e-05
2.45689393939394e+01 2.44561608571190e-03 3.81058089367822e-05
2.46559090909091e+01 2.42012975585313e-03 3.77753819216170e-05
2.47428787878788e+01 2.39490902491874e-03 3.74475871703044e-05
2.48298484848485e+01 2.36995112504110e-03 3.71224075229787e-05
2.49168181818182e+01 2.34525331719720e-03 3.67998258610532e-05
2.50037878787879e+01 2.32081289090797e-03 3.64798251087727e-05
2.50907575757576e+01 2.29662716394089e-03 3.61623882347262e-05
2.51777272727273e+01 2.27269348201562e-03 3.58474982533157e-05
2.52646969696970e+01 2.24900921851265e-03 3.55351382261696e-05
2.53516666666667e+01 2.22557177418510e-03 3.52252912635214e-05
2.54386363636364e+01 2.20237857687344e-03 3.49179405255366e-05
2.55256060606061e+01 2.17942708122320e-03 3.46130692235989e-05
2.56125757575758e+01 2.15671476840564e-03 3.43106606215567e-05
2.56995454545455e+01 2.13423914584130e-03 3.40106980369276e-05
2.57865151515152e+01 2.11199774692648e-03 3.37131648420594e-05
2.58734848484848e+01 2.08998813076252e-03 3.34180444652596e-05
2.59604545454545e+01 2.06820788188792e-03 3.31253203918732e-05
2.60474242424242e+01 2.04665461001326e-03 3.28349761653303e-05
2.61343939393939e+01 2.02532594975889e-03 3.25469953881683e-05
2.62213636363636e+01 2.00421956039532e-03 3.22613617230044e-05
2.63083333333333e+01 1.98333312558634e-03 3.19780588934753e-05
2.63953030303030e+01 1.96266435313481e-03 3.16970706851430e-05
2.64822727272727e+01 1.94221097473112e-03 3.14183809463700e-05
2.65692424242424e+01 1.92197074570421e-03 3.11419735891617e-05
2.66562121212121e+01 1.90194144477529e-03 3.08678325899756e-05
2.67431818181818e+01 1.88212087381399e-03 3.05959419904960e-05
2.68301515151515e+01 1.86250685759719e-03 3.03262858983842e-05
2.69171212121212e+01 1.84309724357025e-03 3.00588484879973e-05
2.70040909090909e+01 1.82388990161083e-03 2.97936140010745e-05
2.70910606060606e+01 1.80488272379505e-03 2.95305667474018e-05
2.71780303030303e+01 1.78607362416620e-03 2.92696911054419e-05
2.72650000000000e+01 1.76746053850582e-03 2.90109714970752e-05
2.73519696969697e+01 1.74904142417403e-03 2.87543924663505e-05
2.74389393939394e+01 1.73081425968308e-03 2.84999386276963e-05
