Energy (eV)          EEDF (eV^-(3/2))     First Anisotropy
7.15000000000000e-02 1.31906336499884e-01 1.54202293282278e-04
2.14500000000000e-01 1.27421088545397e-01 2.51146963712485e-04
3.57500000000000e-01 1.23088353728255e-01 3.22436861259501e-04
5.00500000000000e-01 1.18902946101693e-01 3.71349633448358e-04
6.43500000000000e-01 1.14859856058153e-01 4.08007036891181e-04
7.86500000000000e-01 1.10954244333159e-01 4.36405850095579e-04
9.29500000000000e-01 1.07181436213097e-01 4.58697941278046e-04
1.07250000000000e+00 1.03536915939943e-01 4.76230928678055e-04
1.21550000000000e+00 1.00016321306254e-01 4.89928905077573e-04
1.35850000000000e+00 9.66154384339420e-02 5.00465137125541e-04
1.50150000000000e+00 9.33301967305930e-02 5.08351830191229e-04
1.64450000000000e+00 9.01566640172809e-02 5.13991440028551e-04
1.78750000000000e+00 8.70910418220570e-02 5.17708150749194e-04
1.93050000000000e+00 8.41296608334737e-02 5.19768273352646e-04
2.07350000000000e+00 8.12689765087041e-02 5.20394057593387e-04
2.21650000000000e+00 7.85055648310000e-02 5.19773386977567e-04
2.35950000000000e+00 7.58361182114094e-02 5.18066792138754e-04
2.50250000000000e+00 7.32574415298505e-02 5.15412655847021e-04
2.64550000000000e+00 7.07664483108005e-02 5.11931161923909e-04
2.78850000000000e+00 6.83601570290250e-02 5.07727349082327e-04
2.93150000000000e+00 6.60356875409239e-02 5.02893512544681e-04
3.07450000000000e+00 6.37902576372231e-02 4.97511120949793e-04
3.21750000000000e+00 6.16211797128866e-02 4.91652366676973e-04
3.36050000000000e+00 5.95258575502622e-02 4.85381434549332e-04
3.50350000000000e+00 5.75017832116107e-02 4.78755551113434e-04
3.64650000000000e+00 5.55465340372993e-02 4.71825860758905e-04
3.78950000000000e+00 5.36577697460668e-02 4.64638163591070e-04
3.93250000000000e+00 5.18332296338881e-02 4.57233541753672e-04
4.07550000000000e+00 5.00707298680880e-02 4.49648894864163e-04
4.21850000000000e+00 4.83681608734629e-02 4.41917400731882e-04
4.36150000000000e+00 4.67234848072831e-02 4.34068914144369e-04
4.50450000000000e+00 4.51347331201538e-02 4.26130313926698e-04
4.64750000000000e+00 4.36000041998144e-02 4.18125806491325e-04
4.79050000000000e+00 4.21174610950565e-02 4.10077192549964e-04
4.93350000000000e+00 4.06853293170359e-02 4.02004102445395e-04
5.07650000000000e+00 3.93018947153477e-02 3.93924204600506e-04
5.21950000000000e+00 3.79655014263212e-02 3.85853390815104e-04
5.36250000000000e+00 3.66745498910801e-02 3.77805941524569e-04
5.50550000000000e+00 3.54274949409948e-02 3.69794673635354e-04
5.64850000000000e+00 3.42228439482355e-02 3.61831073145404e-04
5.79150000000000e+00 3.30591550392130e-02 3.53925414423892e-04
5.93450000000000e+00 3.19350353687677e-02 3.46086867749312e-04
6.07750000000000e+00 3.08491394530429e-02 3.38323596476445e-04
6.22050000000000e+00 2.98001675590444e-02 3.30642845012149e-04
6.36350000000000e+00 2.87868641489618e-02 3.23051018620100e-04
6.50650000000000e+00 2.78080163773869e-02 3.15553755939966e-04
6.64950000000000e+00 2.68624526396324e-02 3.08155994992531e-04
6.79250000000000e+00 2.59490411694119e-02 3.00862033345465e-04
6.93550000000000e+00 2.50666886842038e-02 2.93675583031673e-04
7.07850000000000e+00 2.42143390766771e-02 2.86599820741341e-04
7.22150000000000e+00 2.33909721506127e-02 2.79637433747820e-04
7.36450000000000e+00 2.25956023998084e-02 2.72790661974829e-04
7.50750000000000e+00 2.18272778285041e-02 2.66061336566861e-04
7.65050000000000e+00 2.10850788119174e-02 2.59450915285008e-04
7.79350000000000e+00 2.03681169955234e-02 2.52960515015862e-04
7.93650000000000e+00 1.96755342317643e-02 2.46590941650860e-04
8.07950000000000e+00 1.90065015529131e-02 2.40342717566964e-04
8.22250000000000e+00 1.83602181788633e-02 2.34216106916111e-04
8.36550000000000e+00 1.77359105586581e-02 2.28211138910357e-04
8.50850000000000e+00 1.71328314446095e-02 2.22327629271379e-04
8.65150000000000e+00 1.65502589979011e-02 2.16565199996812e-04
8.79450000000000e+00 1.59874959246031e-02 2.10923297581573e-04
8.93750000000000e+00 1.54438686410657e-02 2.05401209819513e-04
9.08050000000000e+00 1.49187264676919e-02 1.99998081299312e-04
9.22350000000000e+00 1.44114408501245e-02 1.94712927698277e-04
9.36650000000000e+00 1.39214046069154e-02 1.89544648968593e-04
9.50950000000000e+00 1.34480312027768e-02 1.84492041502289e-04
9.65250000000000e+00 1.29907540465436e-02 1.79553809353795e-04
9.79550000000000e+00 1.25490258130085e-02 1.74728574592282e-04
9.93850000000000e+00 1.21223177878157e-02 1.70014886849908e-04
1.00815000000000e+01 1.17101192346310e-02 1.65411232126688e-04
1.02245000000000e+01 1.13119367838305e-02 1.60916040907698e-04
1.03675000000000e+01 1.09272938419751e-02 1.56527695643851e-04
1.05105000000000e+01 1.05557300213654e-02 1.52244537643421e-04
1.06535000000000e+01 1.01968005889934e-02 1.48064873417733e-04
1.07965000000000e+01 9.85007593423138e-03 1.43986980521076e-04
1.09395000000000e+01 9.51514105462196e-03 1.40009112921797e-04
1.10825000000000e+01 9.19159505915191e-03 1.36129505938687e-04
1.12255000000000e+01 8.87905068841699e-03 1.32346380774233e-04
1.13685000000000e+01 8.57713385110249e-03 1.28657948673865e-04
1.15115000000000e+01 8.28548317622503e-03 1.25062414738229e-04
1.16545000000000e+01 8.00374958059957e-03 1.21557981413479e-04
1.17975000000000e+01 7.73159585101401e-03 1.18142851682750e-04
1.19405000000000e+01 7.46869624061114e-03 1.14815231980307e-04
1.20835000000000e+01 7.21473607899502e-03 1.11573334848291e-04
1.22265000000000e+01 6.96941139559495e-03 1.08415381354553e-04
1.23695000000000e+01 6.73242855583634e-03 1.05339603288772e-04
1.25125000000000e+01 6.50350390968293e-03 1.02344245152797e-04
1.26555000000000e+01 6.28236345212980e-03 9.94275659600492e-05
1.27985000000000e+01 6.06874249524061e-03 9.65878408577768e-05
1.29415000000000e+01 5.86238535133677e-03 9.38233625849814e-05
1.30845000000000e+01 5.66304502695914e-03 9.11324427779580e-05
1.32275000000000e+01 5.47048292723607e-03 8.85134131345446e-05
1.33705000000000e+01 5.28446857030389e-03 8.59646264474182e-05
1.35135000000000e+01 5.10477931143803e-03 8.34844575160776e-05
1.36565000000000e+01 4.93120007656460e-03 8.10713039464668e-05
1.37995000000000e+01 4.76352310483342e-03 7.87235868465900e-05
1.39425000000000e+01 4.60154769994446e-03 7.64397514259118e-05
1.40855000000000e+01 4.44507998992999e-03 7.42182675057865e-05
1.42285000000000e+01 4.29393269510483e-03 7.20576299476713e-05
1.43715000000000e+01 4.14792490390722e-03 6.99563590054294e-05
1.45145000000000e+01 4.00688185636167e-03 6.79130006075977e-05
1.46575000000000e+01 3.87063473490490e-03 6.59261265750828e-05
1.48005000000000e+01 3.73902046232432e-03 6.39943347793933e-05
1.49435000000000e+01 3.61188150656728e-03 6.21162492461660e-05
1.50865000000000e+01 3.48906569218747e-03 6.02905202084169e-05
1.52295000000000e+01 3.37042601820273e-03 5.85158241136538e-05
1.53725000000000e+01 3.25582048214630e-03 5.67908635886985e-05
1.55155000000000e+01 3.14511191010090e-03 5.51143673658111e-05
1.56585000000000e+01 3.03816779251222e-03 5.34850901734618e-05
1.58015000000000e+01 2.93486012558532e-03 5.19018125948683e-05
1.59445000000000e+01 2.83506525807397e-03 5.03633408971992e-05
1.60875000000000e+01 2.73866374327976e-03 4.88685068341475e-05
1.62305000000000e+01 2.64554019608371e-03 4.74161674243967e-05
1.63735000000000e+01 2.55558315483921e-03 4.60052047083190e-05
1.65165000000000e+01 2.46868494796110e-03 4.46345254850869e-05
1.66595000000000e+01 2.38474156505118e-03 4.33030610322274e-05
1.68025000000000e+01 2.30365253240584e-03 4.20097668095040e-05
1.69455000000000e+01 2.22532079275682e-03 4.07536221488824e-05
1.70885000000000e+01 2.14965258910125e-03 3.95336299322051e-05
1.72315000000000e+01 2.07655735248175e-03 3.83488162580911e-05
1.73745000000000e+01 2.00594759358248e-03 3.71982300994604e-05
1.75175000000000e+01 1.93773879801123e-03 3.60809429529886e-05
1.76605000000000e+01 1.87184932514220e-03 3.49960484816951e-05
1.78035000000000e+01 1.80820031039860e-03 3.39426621517842e-05
1.79465000000000e+01 1.74671557085783e-03 3.29199208647751e-05
1.80895000000000e+01 1.68732151406644e-03 3.19269825858722e-05
1.82325000000000e+01 1.62994704995574e-03 3.09630259694637e-05
1.83755000000000e+01 1.57452350575245e-03 3.00272499825619e-05
1.85185000000000e+01 1.52098454378276e-03 2.91188735269367e-05
1.86615000000000e+01 1.46926608207128e-03 2.82371350606360e-05
1.88045000000000e+01 1.41930621763993e-03 2.73812922195279e-05
1.89475000000000e+01 1.37104515241483e-03 2.65506214394485e-05
1.90905000000000e+01 1.32442512165270e-03 2.57444175794945e-05
1.92335000000000e+01 1.27939032480095e-03 2.49619935469477e-05
1.93765000000000e+01 1.23588685870872e-03 2.42026799242804e-05
1.95195000000000e+01 1.19386265310906e-03 2.34658245986508e-05
1.96625000000000e+01 1.15326740829479e-03 2.27507923942596e-05
1.98055000000000e+01 1.11405253491373e-03 2.20569647079028e-05
1.99485000000000e+01 1.07617109581100e-03 2.13837391480294e-05
2.00915000000000e+01 1.03957774984886e-03 2.07305291775750e-05
2.02345000000000e+01 1.00422869763697e-03 2.00967637608194e-05
2.03775000000000e+01 9.70081629107835e-04 1.94818870144893e-05
2.05205000000000e+01 9.37095672875011e-04 1.88853578633026e-05
2.06635000000000e+01 9.05231347313200e-04 1.83066497001260e-05
2.08065000000000e+01 8.74450513301823e-04 1.77452500509008e-05
2.09495000000000e+01 8.44716328575458e-04 1.72006602444703e-05
2.10925000000000e+01 8.15993203626511e-04 1.66723950874216e-05
2.12355000000000e+01 7.88246759107341e-04 1.61599825440415e-05
2.13785000000000e+01 7.61443784680855e-04 1.56629634214688e-05
2.15215000000000e+01 7.35552199270317e-04 1.51808910601106e-05
2.16645000000000e+01 7.10541012660792e-04 1.47133310293771e-05
2.18075000000000e+01 6.86380288406266e-04 1.42598608287772e-05
2.19505000000000e+01 6.63041107998051e-04 1.38200695944048e-05
2.20935000000000e+01 6.40495536251577e-04 1.33935578108369e-05
2.22365000000000e+01 6.18716587870146e-04 1.29799370284520e-05
2.23795000000000e+01 5.97678195145632e-04 1.25788295861710e-05
2.25225000000000e+01 5.77355176757459e-04 1.21898683396127e-05
2.26655000000000e+01 5.57723207632520e-04 1.18126963946496e-05
2.28085000000000e+01 5.38758789829952e-04 1.14469668463418e-05
2.29515000000000e+01 5.20439224415933e-04 1.10923425232198e-05
2.30945000000000e+01 5.02742584294816e-04 1.07484957368836e-05
2.32375000000000e+01 4.85647687964105e-04 1.04151080368781e-05
2.33805000000000e+01 4.69134074161843e-04 1.00918699707994e-05
2.35235000000000e+01 4.53181977376069e-04 9.77848084958483e-06
2.36665000000000e+01 4.37772304187041e-04 9.47464851793251e-06
2.38095000000000e+01 4.22886610413892e-04 9.18008912979551e-06
2.39525000000000e+01 4.08507079038384e-04 8.89452692888993e-06
2.40955000000000e+01 3.94616498879318e-04 8.61769403415557e-06
2.42385000000000e+01 3.81198243992093e-04 8.34933023010342e-06
2.43815000000000e+01 3.68236253768737e-04 8.08918276198284e-06
2.45245000000000e+01 3.55715013714613e-04 7.83700613570032e-06
2.46675000000000e+01 3.43619536878772e-04 7.59256192241804e-06
2.48105000000000e+01 3.31935345915738e-04 7.35561856775977e-06
2.49535000000000e+01 3.20648455757254e-04 7.12595120555126e-06
2.50965000000000e+01 3.09745356873236e-04 6.90334147602027e-06
2.52395000000000e+01 2.99212999101924e-04 6.68757734838109e-06
2.53825000000000e+01 2.89038776029846e-04 6.47845294772674e-06
2.55255000000000e+01 2.79210509902924e-04 6.27576838615286e-06
2.56685000000000e+01 2.69716437050650e-04 6.07932959803650e-06
2.58115000000000e+01 2.60545193805885e-04 5.88894817939220e-06
2.59545000000000e+01 2.51685802903433e-04 5.70444123122858e-06
2.60975000000000e+01 2.43127660341109e-04 5.52563120682816e-06
2.62405000000000e+01 2.34860522687573e-04 5.35234576287350e-06
2.63835000000000e+01 2.26874494821738e-04 5.18441761434298e-06
2.65265000000000e+01 2.19160018089077e-04 5.02168439309954e-06
2.66695000000000e+01 2.11707858860662e-04 4.86398851009705e-06
2.68125000000000e+01 2.04509097481225e-04 4.71117702112859e-06
2.69555000000000e+01 1.97555117593023e-04 4.56310149604191e-06
2.70985000000000e+01 1.90837595822730e-04 4.41961789134784e-06
2.72415000000000e+01 1.84348491819002e-04 4.28058642614850e-06
2.73845000000000e+01 1.78080038628809e-04 4.14587146131256e-06
2.75275000000000e+01 1.72024733400989e-04 4.01534138182541e-06
2.76705000000000e+01 1.66175328405919e-04 3.88886848224389e-06
2.78135000000000e+01 1.60524822360553e-04 3.76632885518520e-06
2.79565000000000e+01 1.55066452048421e-04 3.64760228278056e-06
2.80995000000000e+01 1.49793684224590e-04 3.53257213102594e-06
2.82425000000000e+01 1.44700207795880e-04 3.42112524696255e-06
2.83855000000000e+01 1.39779926266969e-04 3.31315185862088e-06
2.85285000000000e+01 1.35026950443367e-04 3.20854547766298e-06
2.86715000000000e+01 1.30435591382509e-04 3.10720280465922e-06
2.88145000000000e+01 1.26000353584528e-04 3.00902363693628e-06
2.89575000000000e+01 1.21715928414574e-04 2.91391077893447e-06
2.91005000000000e+01 1.17577187748788e-04 2.82176995501354e-06
2.92435000000000e+01 1.13579177836336e-04 2.73250972464716e-06
2.93865000000000e+01 1.09717113370158e-04 2.64604139994743e-06
2.95295000000000e+01 1.05986371759323e-04 2.56227896546149e-06
2.96725000000000e+01 1.02382487596148e-04 2.48113900018429e-06
2.98155000000000e+01 9.89011473114544e-05 2.40254060173157e-06
2.99585000000000e+01 9.55381840115598e-05 2.32640531261902e-06
3.01015000000000e+01 9.22895724908293e-05 2.25265704859420e-06
3.02445000000000e+01 8.91514244138183e-05 2.18122202896915e-06
3.03875000000000e+01 8.61199836612369e-05 2.11202870890249e-06
3.05305000000000e+01 8.31916218341671e-05 2.04500771358113e-06
3.06735000000000e+01 8.03628339111517e-05 1.98009177425240e-06
3.08165000000000e+01 7.76302340529554e-05 1.91721566605881e-06
3.09595000000000e+01 7.49905515499792e-05 1.85631614762857e-06
3.11025000000000e+01 7.24406269074749e-05 1.79733190237584e-06
3.12455000000000e+01 6.99774080638753e-05 1.74020348146598e-06
3.13885000000000e+01 6.75979467377143e-05 1.68487324840189e-06
3.15315000000000e+01 6.52993948987627e-05 1.63128532518863e-06
3.16745000000000e+01 6.30790013591579e-05 1.57938554003430e-06
3.18175000000000e+01 6.09341084804452e-05 1.52912137654644e-06
3.19605000000000e+01 5.88621489925921e-05 1.48044192438372e-06
3.21035000000000e+01 5.68606429211647e-05 1.43329783132411e-06
3.22465000000000e+01 5.49271946189917e-05 1.38764125671121e-06
3.23895000000000e+01 5.30594898987610e-05 1.34342582624167e-06
3.25325000000000e+01 5.12552932631170e-05 1.30060658805722e-06
3.26755000000000e+01 4.95124452289443e-05 1.25913997010587e-06
3.28185000000000e+01 4.78288597426342e-05 1.21898373873785e-06
3.29615000000000e+01 4.62025216832408e-05 1.18009695850218e-06
3.31045000000000e+01 4.46314844505380e-05 1.14243995311135e-06
3.32475000000000e+01 4.31138676350898e-05 1.10597426754167e-06
3.33905000000000e+01 4.16478547675472e-05 1.07066263123804e-06
3.35335000000000e+01 4.02316911444748e-05 1.03646892239272e-06
3.36765000000000e+01 3.88636817281079e-05 1.00335813326815e-06
3.38195000000000e+01 3.75421891175234e-05 9.71296336534926e-07
3.39625000000000e+01 3.62656315887989e-05 9.40250652596587e-07
3.41055000000000e+01 3.50324812018114e-05 9.10189217873648e-07
3.42485000000000e+01 3.38412619714123e-05 8.81081154020018e-07
3.43915000000000e+01 3.26905481007877e-05 8.52896538045654e-07
3.45345000000000e+01 3.15789622748905e-05 8.25606373319925e-07
3.46775000000000e+01 3.05051740119012e-05 7.99182561430869e-07
3.48205000000000e+01 2.94678980707449e-05 7.73597874876160e-07
3.49635000000000e+01 2.84658929127575e-05 7.48825930562234e-07
3.51065000000000e+01 2.74979592156603e-05 7.24841164088630e-07
3.52495000000000e+01 2.65629384380646e-05 7.01618804795245e-07
3.53925000000000e+01 2.56597114327877e-05 6.79134851550730e-07
3.55355000000000e+01 2.47871971073209e-05 6.57366049260896e-07
3.56785000000000e+01 2.39443511298454e-05 6.36289866076541e-07
3.58215000000000e+01 2.31301646792486e-05 6.15884471280625e-07
3.59645000000000e+01 2.23436632376438e-05 5.96128713835314e-07
3.61075000000000e+01 2.15839054239476e-05 5.77002101569911e-07
3.62505000000000e+01 2.08499818671202e-05 5.58484780991220e-07
3.63935000000000e+01 2.01410141177191e-05 5.40557517698366e-07
3.65365000000000e+01 1.94561535964630e-05 5.23201677384570e-07
3.66795000000000e+01 1.87945805785488e-05 5.06399207408927e-07
3.68225000000000e+01 1.81555032125044e-05 4.90132618921659e-07
3.69655000000000e+01 1.75381565724043e-05 4.74384969526714e-07
3.71085000000000e+01 1.69418017423126e-05 4.59139846466105e-07
3.72515000000000e+01 1.63657249318580e-05 4.44381350310780e-07
3.73945000000000e+01 1.58092366218823e-05 4.30094079143248e-07
3.75375000000000e+01 1.52716707391397e-05 4.16263113217600e-07
3.76805000000000e+01 1.47523838590586e-05 4.02874000082886e-07
3.78235000000000e+01 1.42507544356129e-05 3.89912740156335e-07
3.79665000000000e+01 1.37661820573789e-05 3.77365772733199e-07
3.81095000000000e+01 1.32980867288906e-05 3.65219962420338e-07
3.82525000000000e+01 1.28459081764291e-05 3.53462585981146e-07
3.83955000000000e+01 1.24091051774193e-05 3.42081319579640e-07
3.85385000000000e+01 1.19871549126284e-05 3.31064226411940e-07
3.86815000000000e+01 1.15795523403916e-05 3.20399744713714e-07
3.88245000000000e+01 1.11858095921168e-05 3.10076676132434e-07
3.89675000000000e+01 1.08054553883437e-05 3.00084174453666e-07
3.91105000000000e+01 1.04380344746589e-05 2.90411734670869e-07
3.92535000000000e+01 1.00831070767919e-05 2.81049182388503e-07
3.93965000000000e+01 9.74024837423942e-06 2.71986663548553e-07
3.95395000000000e+01 9.40904799178814e-06 2.63214634470826e-07
3.96825000000000e+01 9.08910950832764e-06 2.54723852197667e-07
3.98255000000000e+01 8.78004998236511e-06 2.46505365134036e-07
3.99685000000000e+01 8.48149949367412e-06 2.38550503974094e-07
4.01115000000000e+01 8.19310070052890e-06 2.30850872905753e-07
4.02545000000000e+01 7.91450841199406e-06 2.23398341084858e-07
4.03975000000000e+01 7.64538917475786e-06 2.16185034370924e-07
4.05405000000000e+01 7.38542087401455e-06 2.09203327316593e-07
4.06835000000000e+01 7.13429234791797e-06 2.02445835403170e-07
4.08265000000000e+01 6.89170301514500e-06 1.95905407514867e-07
4.09695000000000e+01 6.65736251512310e-06 1.89575118644559e-07
4.11125000000000e+01 6.43099036049127e-06 1.83448262824086e-07
4.12555000000000e+01 6.21231560137850e-06 1.77518346272324e-07
4.13985000000000e+01 6.00107650109782e-06 1.71779080754467e-07
4.15415000000000e+01 5.79702022286782e-06 1.66224377146128e-07
4.16845000000000e+01 5.59990252718671e-06 1.60848339196079e-07
4.18275000000000e+01 5.40948747949660e-06 1.55645257481607e-07
4.19705000000000e+01 5.22554716778820e-06 1.50609603550681e-07
4.21135000000000e+01 5.04786142980784e-06 1.45736024245221e-07
4.22565000000000e+01 4.87621758954035e-06 1.41019336200022e-07
4.23995000000000e+01 4.71041020265247e-06 1.36454520511975e-07
4.25425000000000e+01 4.55024081059189e-06 1.32036717574414e-07
4.26855000000000e+01 4.39551770304780e-06 1.27761222071571e-07
4.28285000000000e+01 4.24605568848858e-06 1.23623478128259e-07
4.29715000000000e+01 4.10167587250193e-06 1.19619074610067e-07
4.31145000000000e+01 3.96220544367213e-06 1.15743740569465e-07
4.32575000000000e+01 3.82747746673825e-06 1.11993340833373e-07
4.34005000000000e+01 3.69733068278558e-06 1.08363871727878e-07
4.35435000000000e+01 3.57160931623130e-06 1.04851456935903e-07
4.36865000000000e+01 3.45016288837316e-06 1.01452343483764e-07
4.38295000000000e+01 3.33284603727821e-06 9.81628978526718e-08
4.39725000000000e+01 3.21951834379585e-06 9.49796022113549e-08
4.41155000000000e+01 3.11004416348703e-06 9.18990507660839e-08
4.42585000000000e+01 3.00429246426840e-06 8.89179462245028e-08
4.44015000000000e+01 2.90213666957708e-06 8.60330963697744e-08
4.45445000000000e+01 2.80345450686838e-06 8.32414107416484e-08
4.46875000000000e+01 2.70812786126504e-06 8.05398974211701e-08
4.48305000000000e+01 2.61604263418292e-06 7.79256599158416e-08
4.49735000000000e+01 2.52708860676389e-06 7.53958941421409e-08
4.51165000000000e+01 2.44115930795236e-06 7.29478855024058e-08
