Energy (eV)          EEDF (eV^-(3/2))     First Anisotropy
1.29444444444444e-02 2.53439742429606e-01 1.57732398331850e-04
3.88333333333333e-02 2.51019120834842e-01 2.60091557573166e-04
6.47222222222222e-02 2.48621618774627e-01 3.42372947483528e-04
9.06111111111111e-02 2.46247015432971e-01 4.04291108669764e-04
1.16500000000000e-01 2.43895092091259e-01 4.55444306182884e-04
1.42388888888889e-01 2.41565632161292e-01 4.99475994202678e-04
1.68277777777778e-01 2.39258421071670e-01 5.38278806499918e-04
1.94166666666667e-01 2.36973246322763e-01 5.72999866129223e-04
2.20055555555556e-01 2.34709897444309e-01 6.04402733497149e-04
2.45944444444444e-01 2.32468165976123e-01 6.33029020004599e-04
2.71833333333333e-01 2.30247845448811e-01 6.59281084137381e-04
2.97722222222222e-01 2.28048731365120e-01 6.83468563303234e-04
3.23611111111111e-01 2.25870621180909e-01 7.05836468366486e-04
3.49500000000000e-01 2.23713314286511e-01 7.26583097223925e-04
3.75388888888889e-01 2.21576611994131e-01 7.45871968421078e-04
4.01277777777778e-01 2.19460317501525e-01 7.63840057070664e-04
4.27166666666667e-01 2.17364235892397e-01 7.80603652365840e-04
4.53055555555556e-01 2.15288174112094e-01 7.96262633055291e-04
4.78944444444444e-01 2.13231940949832e-01 8.10903653603338e-04
5.04833333333333e-01 2.11195347021045e-01 8.24602565753554e-04
5.30722222222222e-01 2.09178204750030e-01 8.37426289634360e-04
5.56611111111111e-01 2.07180328352624e-01 8.49434281053133e-04
5.82500000000000e-01 2.05201533819095e-01 8.60679697026223e-04
6.08388888888889e-01 2.03241638900456e-01 8.71210334284057e-04
6.34277777777778e-01 2.01300463081724e-01 8.81069390394506e-04
6.60166666666667e-01 1.99377827575437e-01 8.90296088228109e-04
6.86055555555556e-01 1.97473555301744e-01 8.98926194676001e-04
7.11944444444444e-01 1.95587470872090e-01 9.06992452316020e-04
7.37833333333333e-01 1.93719400573053e-01 9.14524942718613e-04
7.63722222222222e-01 1.91869172350373e-01 9.21551394073615e-04
7.89611111111111e-01 1.90036615793092e-01 9.28097443337460e-04
8.15500000000000e-01 1.88221562117858e-01 9.34186860667925e-04
8.41388888888889e-01 1.86423844155522e-01 9.39841743944097e-04
8.67277777777778e-01 1.84643296329214e-01 9.45082686016525e-04
8.93166666666667e-01 1.82879754645723e-01 9.49928920233897e-04
9.19055555555556e-01 1.81133056678147e-01 9.54398449056998e-04
9.44944444444444e-01 1.79403041550935e-01 9.58508155972780e-04
9.70833333333333e-01 1.77689549925060e-01 9.62273904425188e-04
9.96722222222222e-01 1.75992423983361e-01 9.65710626086635e-04
1.02261111111111e+00 1.74311507410980e-01 9.68832396719180e-04
1.04850000000000e+00 1.72646645394633e-01 9.71652504244704e-04
1.07438888888889e+00 1.70997684611538e-01 9.74183518909137e-04
1.10027777777778e+00 1.69364473172150e-01 9.76437342607893e-04
1.12616666666667e+00 1.67746860653448e-01 9.78425254799403e-04
1.15205555555556e+00 1.66144698069099e-01 9.80157964502008e-04
1.17794444444444e+00 1.64557837855746e-01 9.81645648735866e-04
1.20383333333333e+00 1.62986133859364e-01 9.82897989457108e-04
1.22972222222222e+00 1.61429441321903e-01 9.83924207131451e-04
1.25561111111111e+00 1.59887616867902e-01 9.84733091324291e-04
1.28150000000000e+00 1.58360518491282e-01 9.85333026753944e-04
1.30738888888889e+00 1.56848005553810e-01 9.85732024392202e-04
1.33327777777778e+00 1.55349938737118e-01 9.85937741103951e-04
1.35916666666667e+00 1.53866180065319e-01 9.85957497326945e-04
1.38505555555556e+00 1.52396592880343e-01 9.85798302562038e-04
1.41094444444444e+00 1.50941041829344e-01 9.85466871651871e-04
1.43683333333333e+00 1.49499392852208e-01 9.84969641572567e-04
1.46272222222222e+00 1.48071513169269e-01 9.84312786968950e-04
1.48861111111111e+00 1.46657271269045e-01 9.83502234550972e-04
1.51450000000000e+00 1.45256536896125e-01 9.82543674873757e-04
1.54038888888889e+00 1.43869181048145e-01 9.81442579437319e-04
1.56627777777778e+00 1.42495075936701e-01 9.80204209051718e-04
1.59216666666667e+00 1.41134095003089e-01 9.78833621368730e-04
1.61805555555556e+00 1.39786112897371e-01 9.77335685732769e-04
1.64394444444444e+00 1.38451005466836e-01 9.75715090906518e-04
1.66983333333333e+00 1.37128649744538e-01 9.73976353803903e-04
1.69572222222222e+00 1.35818923938022e-01 9.72123827672002e-04
1.72161111111111e+00 1.34521707418075e-01 9.70161709766128e-04
1.74750000000000e+00 1.33236880707622e-01 9.68094047209848e-04
1.77338888888889e+00 1.31964325477855e-01 9.65924747771201e-04
1.79927777777778e+00 1.30703924515709e-01 9.63657583516879e-04
1.82516666666667e+00 1.29455561734919e-01 9.61296194053605e-04
1.85105555555556e+00 1.28219122157967e-01 9.58844096291439e-04
1.87694444444444e+00 1.26994491905494e-01 9.56304688368385e-04
1.90283333333333e+00 1.25781558185791e-01 9.53681254656627e-04
1.92872222222222e+00 1.24580209284449e-01 9.50976970497369e-04
1.95461111111111e+00 1.23390334554047e-01 9.48194906683426e-04
1.98050000000000e+00 1.22211824403967e-01 9.45338032546820e-04
2.00638888888889e+00 1.21044570296073e-01 9.42409223434818e-04
2.03227777777778e+00 1.19888464717213e-01 9.39411262189434e-04
2.05816666666667e+00 1.18743401186995e-01 9.36346840396129e-04
2.08405555555556e+00 1.17609274242031e-01 9.33218565367668e-04
2.10994444444444e+00 1.16485979426217e-01 9.30028962203540e-04
2.13583333333333e+00 1.15373413281107e-01 9.26780476877985e-04
2.16172222222222e+00 1.14271473336404e-01 9.23475479182164e-04
2.18761111111111e+00 1.13180058100512e-01 9.20116265529542e-04
2.21350000000000e+00 1.12099067051188e-01 9.16705060627334e-04
2.23938888888889e+00 1.11028400631026e-01 9.13244023025336e-04
2.26527777777778e+00 1.09967960223920e-01 9.09735245526295e-04
2.29116666666667e+00 1.08917648160492e-01 9.06180755454237e-04
2.31705555555556e+00 1.07877367704208e-01 9.02582519953311e-04
2.34294444444444e+00 1.06847023042473e-01 8.98942447064474e-04
2.36883333333333e+00 1.05826519277795e-01 8.95262387741621e-04
2.39472222222222e+00 1.04815762419063e-01 8.91544137783484e-04
2.42061111111111e+00 1.03814659372882e-01 8.87789439686106e-04
2.44650000000000e+00 1.02823117934996e-01 8.83999983543952e-04
2.47238888888889e+00 1.01841046785739e-01 8.80177411368537e-04
2.49827777777778e+00 1.00868355469695e-01 8.76323316956451e-04
2.52416666666667e+00 9.99049543994054e-02 8.72439245662513e-04
2.55005555555556e+00 9.89507548430678e-02 8.68526698589945e-04
2.57594444444444e+00 9.80056689163628e-02 8.64587133122856e-04
2.60183333333333e+00 9.70696095743544e-02 8.60621964302491e-04
2.62772222222222e+00 9.61424906034846e-02 8.56632566152268e-04
2.65361111111111e+00 9.52242266136271e-02 8.52620272954158e-04
2.67950000000000e+00 9.43147330302223e-02 8.48586379711281e-04
2.70538888888889e+00 9.34139260897884e-02 8.44532145624325e-04
2.73127777777778e+00 9.25217228222158e-02 8.40458793684801e-04
2.75716666666667e+00 9.16380410532072e-02 8.36367510200639e-04
2.78305555555556e+00 9.07627993933174e-02 8.32259448208355e-04
2.80894444444444e+00 8.98959172304577e-02 8.28135727693797e-04
2.83483333333333e+00 8.90373147224659e-02 8.23997436565891e-04
2.86072222222222e+00 8.81869127897628e-02 8.19845631597553e-04
2.88661111111111e+00 8.73446331080638e-02 8.15681339335576e-04
2.91250000000000e+00 8.65103981011645e-02 8.11505556305842e-04
2.93838888888889e+00 8.56841309365825e-02 8.07319251880548e-04
2.96427777777778e+00 8.48657555100486e-02 8.03123367739089e-04
2.99016666666667e+00 8.40551964470045e-02 7.98918817278082e-04
3.01605555555556e+00 8.32523790927994e-02 7.94706488449613e-04
3.04194444444444e+00 8.24572295058144e-02 7.90487243800054e-04
3.06783333333333e+00 8.16696744506485e-02 7.86261921179166e-04
3.09372222222222e+00 8.08896413913806e-02 7.82031334427382e-04
3.11961111111111e+00 8.01170584848852e-02 7.77796274042385e-04
3.14550000000000e+00 7.93518545742158e-02 7.73557507230634e-04
3.17138888888889e+00 7.85939591844173e-02 7.69315780314666e-04
3.19727777777778e+00 7.78433025088736e-02 7.65071818139491e-04
3.22316666666667e+00 7.70998154101026e-02 7.60826323439725e-04
3.24905555555556e+00 7.63634294109591e-02 7.56579979237725e-04
3.27494444444444e+00 7.56340766883277e-02 7.52333448775730e-04
3.30083333333333e+00 7.49116900668738e-02 7.48087376044463e-04
3.32672222222222e+00 7.41962030128615e-02 7.43842386296797e-04
3.35261111111111e+00 7.34875496280239e-02 7.39599086547337e-04
3.37850000000000e+00 7.27856646434926e-02 7.35358065531667e-04
3.40438888888889e+00 7.20904834158086e-02 7.31119895754281e-04
3.43027777777778e+00 7.14019419148514e-02 7.26885132884536e-04
3.45616666666667e+00 7.07199767241113e-02 7.22654315120870e-04
3.48205555555556e+00 7.00445250327739e-02 7.18427965240950e-04
3.50794444444444e+00 6.93755246299353e-02 7.14206590472524e-04
3.53383333333333e+00 6.87129138988701e-02 7.09990682895067e-04
3.55972222222222e+00 6.80566318113608e-02 7.05780719830975e-04
3.58561111111111e+00 6.74066179220748e-02 7.01577164226847e-04
3.61150000000000e+00 6.67628123629972e-02 6.97380464558081e-04
3.63738888888889e+00 6.61251558396516e-02 6.93191056588891e-04
3.66327777777778e+00 6.54935896203905e-02 6.89009362781946e-04
3.68916666666667e+00 6.48680555362788e-02 6.84835791681974e-04
3.71505555555556e+00 6.42484959739567e-02 6.80670739684230e-04
3.74094444444444e+00 6.36348538703342e-02 6.76514590871713e-04
3.76683333333333e+00 6.30270727073326e-02 6.72367717325274e-04
3.79272222222222e+00 6.24250965066834e-02 6.68230479426169e-04
3.81861111111111e+00 6.18288698247705e-02 6.64103226151409e-04
3.84450000000000e+00 6.12383377475238e-02 6.59986294947068e-04
3.87038888888889e+00 6.06534458868566e-02 6.55880013253032e-04
3.89627777777778e+00 6.00741403711334e-02 6.51784697939451e-04
3.92216666666667e+00 5.95003678447688e-02 6.47700654721317e-04
3.94805555555556e+00 5.89320754617803e-02 6.43628179695003e-04
3.97394444444444e+00 5.83692108809211e-02 6.39567559158965e-04
3.99983333333333e+00 5.78117222608581e-02 6.35519069856271e-04
4.02572222222222e+00 5.72595582553998e-02 6.31482979211664e-04
4.05161111111111e+00 5.67126680087657e-02 6.27459545563158e-04
4.07750000000000e+00 5.61710011509028e-02 6.23449018019067e-04
4.10338888888889e+00 5.56345077941391e-02 6.19451637786893e-04
4.12927777777778e+00 5.51031385246777e-02 6.15467637643394e-04
4.15516666666667e+00 5.45768444019888e-02 6.11497241386145e-04
4.18105555555556e+00 5.40555769529775e-02 6.07540665175819e-04
4.20694444444444e+00 5.35392881675186e-02 6.03598117351291e-04
4.23283333333333e+00 5.30279304940338e-02 5.99669798621379e-04
4.25872222222222e+00 5.25214568351147e-02 5.95755902252415e-04
4.28461111111111e+00 5.20198205431837e-02 5.91856614251871e-04
4.31050000000000e+00 5.15229754161971e-02 5.87972113218514e-04
4.33638888888889e+00 5.10308756945132e-02 5.84102571506378e-04
4.36227777777778e+00 5.05434760532823e-02 5.80248154731327e-04
4.38816666666667e+00 5.00607316016948e-02 5.76409021261596e-04
4.41405555555556e+00 4.95825978776962e-02 5.72585323395802e-04
4.43994444444444e+00 4.91090308438924e-02 5.68777207179229e-04
4.46583333333333e+00 4.86399868834926e-02 5.64984812556683e-04
4.49172222222222e+00 4.81754227962941e-02 5.61208273522229e-04
4.51761111111111e+00 4.77152957947023e-02 5.57447718265914e-04
4.54350000000000e+00 4.72595634997902e-02 5.53703269023242e-04
4.56938888888889e+00 4.68081839383716e-02 5.49975043098836e-04
4.59527777777778e+00 4.63611155361817e-02 5.46263152409925e-04
4.62116666666667e+00 4.59183171170253e-02 5.42567703015999e-04
4.64705555555556e+00 4.54797478979842e-02 5.38888796156481e-04
4.67294444444444e+00 4.50453674856606e-02 5.35226528072329e-04
4.69883333333333e+00 4.46151358724561e-02 5.31580990128777e-04
4.72472222222222e+00 4.41890134328886e-02 5.27952268935734e-04
4.75061111111111e+00 4.37669609199421e-02 5.24340446465829e-04
4.77650000000000e+00 4.33489394614512e-02 5.20745599906867e-04
4.80238888888889e+00 4.29349105573741e-02 5.17167802565315e-04
4.82827777777778e+00 4.25248360736687e-02 5.13607123445879e-04
4.85416666666667e+00 4.21186782413784e-02 5.10063626818916e-04
4.88005555555556e+00 4.17163996522808e-02 5.06537373137518e-04
4.90594444444444e+00 4.13179632554419e-02 5.03028418866846e-04
4.93183333333333e+00 4.09233323538032e-02 4.99536816583213e-04
4.95772222222222e+00 4.05324706008031e-02 4.96062615071489e-04
4.98361111111111e+00 4.01453419970288e-02 4.92605859420512e-04
5.00950000000000e+00 3.97619108869002e-02 4.89166590881038e-04
5.03538888888889e+00 3.93821419561321e-02 4.85744847665351e-04
5.06127777777778e+00 3.90060002262269e-02 4.82340664561305e-04
5.08716666666667e+00 3.86334510535251e-02 4.78954072535786e-04
5.11305555555556e+00 3.82644601252516e-02 4.75585099547197e-04
5.13894444444444e+00 3.78989934563547e-02 4.72233770383949e-04
5.16483333333333e+00 3.75370173863760e-02 4.68900106744911e-04
5.19072222222222e+00 3.71784985763511e-02 4.65584127318403e-04
5.21661111111111e+00 3.68234040057385e-02 4.62285847859764e-04
5.24250000000000e+00 3.64717009693783e-02 4.59005281056222e-04
5.26838888888889e+00 3.61233570751332e-02 4.55742437236108e-04
5.29427777777778e+00 3.57783402389300e-02 4.52497324015483e-04
5.32016666666667e+00 3.54366186837949e-02 4.49269945935399e-04
5.34605555555556e+00 3.50981609362585e-02 4.46060305183288e-04
5.37194444444444e+00 3.47629358234569e-02 4.42868401441379e-04
5.39783333333333e+00 3.44309124702596e-02 4.39694231952160e-04
5.42372222222222e+00 3.41020602964276e-02 4.36537791582718e-04
5.44961111111111e+00 3.37763490137956e-02 4.33399072887930e-04
5.47550000000000e+00 3.34537486234830e-02 4.30278065982925e-04
5.50138888888889e+00 3.31342294137047e-02 4.27174759173658e-04
5.52727777777778e+00 3.28177619552990e-02 4.24089138633776e-04
5.55316666666667e+00 3.25043171007664e-02 4.21021188073234e-04
5.57905555555556e+00 3.21938659809970e-02 4.17970889380173e-04
5.60494444444444e+00 3.18863800026120e-02 4.14938222479363e-04
5.63083333333333e+00 3.15818308453294e-02 4.11923165385598e-04
5.65672222222222e+00 3.12801904593571e-02 4.08925694256226e-04
5.68261111111111e+00 3.09814310628082e-02 4.05945783442812e-04
5.70850000000000e+00 3.06855251391427e-02 4.02983405371484e-04
5.73438888888889e+00 3.03924454351383e-02 4.00038531104467e-04
5.76027777777778e+00 3.01021649568531e-02 3.97111130045097e-04
5.78616666666667e+00 2.98146569686782e-02 3.94201169635416e-04
5.81205555555556e+00 2.95298949903587e-02 3.91308615928238e-04
5.83794444444444e+00 2.92478527945541e-02 3.88433433455492e-04
5.86383333333333e+00 2.89685044044231e-02 3.85575585271877e-04
5.88972222222222e+00 2.86918240912313e-02 3.82735032997824e-04
5.91561111111111e+00 2.84177863719814e-02 3.79911736861659e-04
5.94150000000000e+00 2.81463660070658e-02 3.77105655588003e-04
5.96738888888889e+00 2.78775379983877e-02 3.74316746898671e-04
5.99327777777778e+00 2.76112775857126e-02 3.71544967243478e-04
6.01916666666667e+00 2.73475602457439e-02 3.68790271524557e-04
6.04505555555556e+00 2.70863616894087e-02 3.66052613606928e-04
6.07094444444444e+00 2.68276578596209e-02 3.63331946196499e-04
6.09683333333333e+00 2.65714249290650e-02 3.60628220875788e-04
6.12272222222222e+00 2.63176392980023e-02 3.57941388139012e-04
6.14861111111111e+00 2.60662775920967e-02 3.55271397426596e-04
6.17450000000000e+00 2.58173166602623e-02 3.52618197021354e-04
6.20038888888889e+00 2.55707335729238e-02 3.49981734495889e-04
6.22627777777778e+00 2.53265056187169e-02 3.47361956467239e-04
6.25216666666667e+00 2.50846103035932e-02 3.44758808345602e-04
6.27805555555556e+00 2.48450253483468e-02 3.42172234790664e-04
6.30394444444444e+00 2.46077286865620e-02 3.39602179598828e-04
6.32983333333333e+00 2.43726984625806e-02 3.37048585732343e-04
6.35572222222222e+00 2.41399130294900e-02 3.34511395348054e-04
6.38161111111111e+00 2.39093509471285e-02 3.31990549825558e-04
6.40750000000000e+00 2.36809909801111e-02 3.29485989670966e-04
6.43338888888889e+00 2.34548120962208e-02 3.26997654917018e-04
6.45927777777778e+00 2.32307934634217e-02 3.24525484899449e-04
6.48516666666667e+00 2.30089144489980e-02 3.22069418028156e-04
6.51105555555556e+00 2.27891546172985e-02 3.19629392195474e-04
6.53694444444444e+00 2.25714937278543e-02 3.17205344672125e-04
6.56283333333333e+00 2.23559117335147e-02 3.14797212131017e-04
6.58872222222222e+00 2.21423887786006e-02 3.12404930670636e-04
6.61461111111111e+00 2.19309051970765e-02 3.10028435838100e-04
6.64050000000000e+00 2.17214415107380e-02 3.07667662540116e-04
6.66638888888889e+00 2.15139784277265e-02 3.05322545401147e-04
6.69227777777778e+00 2.13084968398219e-02 3.02993018559706e-04
6.71816666666667e+00 2.11049778216201e-02 3.00679015459955e-04
6.74405555555556e+00 2.09034026284744e-02 2.98380469217412e-04
6.76994444444444e+00 2.07037526947700e-02 2.96097312523099e-04
6.79583333333333e+00 2.05060096322132e-02 2.93829477662892e-04
6.82172222222222e+00 2.03101552281385e-02 2.91576896536585e-04
6.84761111111111e+00 2.01161714438308e-02 2.89339500676672e-04
6.87350000000000e+00 1.99240404128642e-02 2.87117221166061e-04
6.89938888888889e+00 1.97337444397287e-02 2.84909988959103e-04
6.92527777777778e+00 1.95452659973770e-02 2.82717734695986e-04
6.95116666666667e+00 1.93585877264401e-02 2.80540388513051e-04
6.97705555555556e+00 1.91736924333492e-02 2.78377880370660e-04
7.00294444444444e+00 1.89905630887529e-02 2.76230139964958e-04
7.02883333333333e+00 1.88091828259478e-02 2.74097096743610e-04
7.05472222222222e+00 1.86295349393262e-02 2.71978679921247e-04
7.08061111111111e+00 1.84516028828367e-02 2.69874818494686e-04
7.10650000000000e+00 1.82753702684602e-02 2.67785441167039e-04
7.13238888888889e+00 1.81008208649429e-02 2.65710476635699e-04
7.15827777777778e+00 1.79279385955701e-02 2.63649853423325e-04
7.18416666666667e+00 1.77567075374219e-02 2.61603499705079e-04
7.21005555555555e+00 1.75871119196593e-02 2.59571343602864e-04
7.23594444444444e+00 1.74191361220718e-02 2.57553313104241e-04
7.26183333333333e+00 1.72527646736383e-02 2.55549336075079e-04
7.28772222222222e+00 1.70879822511031e-02 2.53559340272044e-04
7.31361111111111e+00 1.69247736775636e-02 2.51583253354916e-04
7.33950000000000e+00 1.67631239210732e-02 2.49621002816654e-04
7.36538888888889e+00 1.66030180934711e-02 2.47672516241899e-04
7.39127777777778e+00 1.64444414483623e-02 2.45737721153054e-04
7.41716666666667e+00 1.62873793804130e-02 2.43816544853015e-04
7.44305555555556e+00 1.61318174237864e-02 2.41908914689450e-04
7.46894444444444e+00 1.59777412508094e-02 2.40014757980276e-04
7.49483333333333e+00 1.58251366706540e-02 2.38134002023809e-04
7.52072222222222e+00 1.56739896280294e-02 2.36266574108792e-04
7.54661111111111e+00 1.55242862018884e-02 2.34412401524254e-04
7.57250000000000e+00 1.53760126041443e-02 2.32571411495119e-04
7.59838888888889e+00 1.52291551785926e-02 2.30743531414470e-04
7.62427777777778e+00 1.50837003990760e-02 2.28928688703396e-04
7.65016666666667e+00 1.49396348688197e-02 2.27126810667804e-04
7.67605555555556e+00 1.47969453190026e-02 2.25337824735911e-04
7.70194444444444e+00 1.46556186075349e-02 2.23561658389829e-04
7.72783333333333e+00 1.45156417178479e-02 2.21798239173640e-04
7.75372222222222e+00 1.43770017576951e-02 2.20047494701372e-04
7.77961111111111e+00 1.42396859579650e-02 2.18309352664821e-04
7.80550000000000e+00 1.41036816715045e-02 2.16583740774360e-04
7.83138888888889e+00 1.39689763721244e-02 2.14870586967731e-04
7.85727777777778e+00 1.38355576529323e-02 2.13169819282394e-04
7.88316666666667e+00 1.37034132257067e-02 2.11481365725158e-04
7.90905555555556e+00 1.35725309195920e-02 2.09805154485775e-04
7.93494444444444e+00 1.34428986799772e-02 2.08141113874160e-04
7.96083333333333e+00 1.33145045673858e-02 2.06489172326746e-04
7.98672222222222e+00 1.31873367563761e-02 2.04849258412747e-04
8.01261111111111e+00 1.30613835344520e-02 2.03221300840287e-04
8.03850000000000e+00 1.29366333009844e-02 2.01605228402006e-04
8.06438888888889e+00 1.28130745662940e-02 2.00000970162882e-04
8.09027777777778e+00 1.26906959501357e-02 1.98408455343969e-04
8.11616666666667e+00 1.25694861811111e-02 1.96827613203713e-04
8.14205555555556e+00 1.24494340954759e-02 1.95258373230134e-04
8.16794444444444e+00 1.23305286361114e-02 1.93700665083260e-04
