Energy (eV)          EEDF (eV^-(3/2))     First Anisotropy
1.80769230769231e-03 2.80974155759057e+00 1.43026871067164e-03
5.42307692307692e-03 2.79109960045418e+00 2.36188543867458e-03
9.03846153846154e-03 2.77258132825080e+00 3.11823533276199e-03
1.26538461538462e-02 2.75418592037434e+00 3.69301022957166e-03
1.62692307692308e-02 2.73591256147331e+00 4.17252043435000e-03
1.98846153846154e-02 2.71776044192977e+00 4.58938709002977e-03
2.35000000000000e-02 2.69972875733755e+00 4.96048595132885e-03
2.71153846153846e-02 2.68181670863234e+00 5.29600440189281e-03
3.07307692307692e-02 2.66402350205490e+00 5.60269667132093e-03
3.43461538461538e-02 2.64634834911467e+00 5.88533494859634e-03
3.79615384615385e-02 2.62879046650693e+00 6.14745069364509e-03
4.15769230769231e-02 2.61134907622190e+00 6.39175112054847e-03
4.51923076923077e-02 2.59402340535940e+00 6.62037026943733e-03
4.88076923076923e-02 2.57681268614768e+00 6.83502883537495e-03
5.24230769230769e-02 2.55971615590873e+00 7.03714047427668e-03
5.60384615384615e-02 2.54273305702562e+00 7.22788507198455e-03
5.96538461538462e-02 2.52586263690814e+00 7.40826077923229e-03
6.32692307692308e-02 2.50910414793376e+00 7.57912190283288e-03
6.68846153846154e-02 2.49245684749354e+00 7.74120712562748e-03
7.05000000000000e-02 2.47591999787785e+00 7.89516091829934e-03
7.41153846153846e-02 2.45949286627153e+00 8.04155004485011e-03
7.77307692307692e-02 2.44317472472159e+00 8.18087649472488e-03
8.13461538461538e-02 2.42696485010501e+00 8.31358774189770e-03
8.49615384615385e-02 2.41086252407820e+00 8.44008497152115e-03
8.85769230769231e-02 2.39486703310141e+00 8.56072976489261e-03
9.21923076923077e-02 2.37897766834955e+00 8.67584957688430e-03
9.58076923076923e-02 2.36319372570049e+00 8.78574225238339e-03
9.94230769230769e-02 2.34751450570364e+00 8.89067979396028e-03
1.03038461538462e-01 2.33193931357774e+00 8.99091154535502e-03
1.06653846153846e-01 2.31646745903749e+00 9.08666682358617e-03
1.10269230769231e-01 2.30109825660058e+00 9.17815724302480e-03
1.13884615384615e-01 2.28583102506154e+00 9.26557865218011e-03
1.17500000000000e-01 2.27066508787000e+00 9.34911274005914e-03
1.21115384615385e-01 2.25559977308662e+00 9.42892859584782e-03
1.24730769230769e-01 2.24063441298557e+00 9.50518391304774e-03
1.28346153846154e-01 2.22576834439330e+00 9.57802603452391e-03
1.31961538461538e-01 2.21100090864696e+00 9.64759302088790e-03
1.35576923076923e-01 2.19633145123184e+00 9.71401443023457e-03
1.39192307692308e-01 2.18175932218860e+00 9.77741208035945e-03
1.42807692307692e-01 2.16728387566652e+00 9.83790073232806e-03
1.46423076923077e-01 2.15290447020139e+00 9.89558861557398e-03
1.50038461538462e-01 2.13862046867869e+00 9.95057804925995e-03
1.53653846153846e-01 2.12443123802394e+00 1.00029658528599e-02
1.57269230769231e-01 2.11033614954287e+00 1.00528437816440e-02
1.60884615384615e-01 2.09633457853921e+00 1.01002989251743e-02
1.64500000000000e-01 2.08242590454809e+00 1.01454139921205e-02
1.68115384615385e-01 2.06860951130123e+00 1.01882677068875e-02
1.71730769230769e-01 2.05488478645903e+00 1.02289350493317e-02
1.75346153846154e-01 2.04125112182463e+00 1.02674874694092e-02
1.78961538461538e-01 2.02770791331048e+00 1.03039932024971e-02
1.82576923076923e-01 2.01425456068854e+00 1.03385174292581e-02
1.86192307692308e-01 2.00089046785683e+00 1.03711224813923e-02
1.89807692307692e-01 1.98761504252948e+00 1.04018680352778e-02
1.93423076923077e-01 1.97442769641959e+00 1.04308112242343e-02
1.97038461538462e-01 1.96132784520827e+00 1.04580068641875e-02
2.00653846153846e-01 1.94831490832383e+00 1.04835075437714e-02
2.04269230769231e-01 1.93538830917216e+00 1.05073637624338e-02
2.07884615384615e-01 1.92254747486284e+00 1.05296240625062e-02
2.11500000000000e-01 1.90979183636746e+00 1.05503350913572e-02
2.15115384615385e-01 1.89712082848997e+00 1.05695417719218e-02
2.18730769230769e-01 1.88453388967011e+00 1.05872873627179e-02
2.22346153846154e-01 1.87203046213053e+00 1.06036135117064e-02
2.25961538461538e-01 1.85960999184804e+00 1.06185604041553e-02
2.29576923076923e-01 1.84727192836812e+00 1.06321667952894e-02
2.33192307692308e-01 1.83501572499264e+00 1.06444700902042e-02
2.36807692307692e-01 1.82284083854934e+00 1.06555064221735e-02
2.40423076923077e-01 1.81074672952039e+00 1.06653106723467e-02
2.44038461538462e-01 1.79873286201533e+00 1.06739165891642e-02
2.47653846153846e-01 1.78679870360363e+00 1.06813568025825e-02
2.51269230769231e-01 1.77494372548038e+00 1.06876628834419e-02
2.54884615384615e-01 1.76316740225846e+00 1.06928654024840e-02
2.58500000000000e-01 1.75146921208203e+00 1.06969939362151e-02
2.62115384615385e-01 1.73984863660035e+00 1.07000771663780e-02
2.65730769230769e-01 1.72830516081616e+00 1.07021428914621e-02
2.69346153846154e-01 1.71683827319197e+00 1.07032180363263e-02
2.72961538461538e-01 1.70544746562460e+00 1.07033287428132e-02
2.76576923076923e-01 1.69413223330103e+00 1.07025003672023e-02
2.80192307692308e-01 1.68289207483663e+00 1.07007575195332e-02
2.83807692307692e-01 1.67172649209616e+00 1.06981241035727e-02
2.87423076923077e-01 1.66063499028798e+00 1.06946233099379e-02
2.91038461538462e-01 1.64961707793988e+00 1.06902776944228e-02
2.94653846153846e-01 1.63867226676719e+00 1.06851091698557e-02
2.98269230769231e-01 1.62780007179647e+00 1.06791390374270e-02
3.01884615384615e-01 1.61700001120200e+00 1.06723880189446e-02
3.05500000000000e-01 1.60627160638989e+00 1.06648762457476e-02
3.09115384615385e-01 1.59561438197480e+00 1.06566233275854e-02
3.12730769230769e-01 1.58502786565897e+00 1.06476483484316e-02
3.16346153846154e-01 1.57451158831152e+00 1.06379698616809e-02
3.19961538461538e-01 1.56406508394562e+00 1.06276059546207e-02
3.23576923076923e-01 1.55368788960299e+00 1.06165742350074e-02
3.27192307692308e-01 1.54337954545882e+00 1.06048918538941e-02
3.30807692307692e-01 1.53313959467859e+00 1.05925755295861e-02
3.34423076923077e-01 1.52296758348906e+00 1.05796415326155e-02
3.38038461538462e-01 1.51286306115648e+00 1.05661057436116e-02
3.41653846153846e-01 1.50282557987992e+00 1.05519836382708e-02
3.45269230769231e-01 1.49285469488599e+00 1.05372903064673e-02
3.48884615384615e-01 1.48294996429690e+00 1.05220404725348e-02
3.52500000000000e-01 1.47311094919439e+00 1.05062484791273e-02
3.56115384615385e-01 1.46333721359863e+00 1.04899283396697e-02
3.59730769230769e-01 1.45362832436960e+00 1.04730937288545e-02
3.63346153846154e-01 1.44398385126753e+00 1.04557579729658e-02
3.66961538461538e-01 1.43440336693232e+00 1.04379340997188e-02
3.70576923076923e-01 1.42488644678887e+00 1.04196348218203e-02
3.74192307692308e-01 1.41543266912850e+00 1.04008725518710e-02
3.77807692307692e-01 1.40604161499198e+00 1.03816594184321e-02
3.81423076923077e-01 1.39671286822404e+00 1.03620072489893e-02
3.85038461538462e-01 1.38744601545364e+00 1.03419276156569e-02
3.88653846153846e-01 1.37824064600601e+00 1.03214318185395e-02
3.92269230769231e-01 1.36909635197658e+00 1.03005308986559e-02
3.95884615384615e-01 1.36001272812249e+00 1.02792356520024e-02
3.99500000000000e-01 1.35098937191193e+00 1.02575566125142e-02
4.03115384615385e-01 1.34202588350515e+00 1.02355040942153e-02
4.06730769230769e-01 1.33312186567246e+00 1.02130881801909e-02
4.10346153846154e-01 1.32427692384112e+00 1.01903187115571e-02
4.13961538461538e-01 1.31549066607669e+00 1.01672053278626e-02
4.17576923076923e-01 1.30676270300419e+00 1.01437574504750e-02
4.21192307692308e-01 1.29809264787226e+00 1.01199842931592e-02
4.24807692307692e-01 1.28948011645606e+00 1.00958948737295e-02
4.28423076923077e-01 1.28092472709975e+00 1.00714979972482e-02
4.32038461538462e-01 1.27242610069859e+00 1.00468022935522e-02
4.35653846153846e-01 1.26398386062525e+00 1.00218162009599e-02
4.39269230769231e-01 1.25559763278842e+00 9.99654797568172e-03
4.42884615384615e-01 1.24726704554225e+00 9.97100570225712e-03
4.46500000000000e-01 1.23899172972497e+00 9.94519727715478e-03
4.50115384615385e-01 1.23077131864164e+00 9.91913044375561e-03
4.53730769230769e-01 1.22260544799515e+00 9.89281278129706e-03
4.57346153846154e-01 1.21449375592300e+00 9.86625169388185e-03
4.60961538461538e-01 1.20643588298034e+00 9.83945444418726e-03
4.64576923076923e-01 1.19843147207347e+00 9.81242813773804e-03
4.68192307692308e-01 1.19048016851107e+00 9.78517973087530e-03
4.71807692307692e-01 1.18258161992251e+00 9.75771603968036e-03
4.75423076923077e-01 1.17473547629139e+00 9.73004372423655e-03
4.79038461538462e-01 1.16694138993920e+00 9.70216932019627e-03
4.82653846153846e-01 1.15919901546288e+00 9.67409922355385e-03
4.86269230769231e-01 1.15150800978182e+00 9.64583969786259e-03
4.89884615384615e-01 1.14386803206140e+00 9.61739688236140e-03
4.93500000000000e-01 1.13627874374354e+00 9.58877677677286e-03
4.97115384615385e-01 1.12873980853090e+00 9.55998527093228e-03
5.00730769230769e-01 1.12125089232830e+00 9.53102813430462e-03
5.04346153846154e-01 1.11381166327179e+00 9.50191100559366e-03
5.07961538461538e-01 1.10642179171322e+00 9.47263942139078e-03
5.11576923076923e-01 1.09908095016355e+00 9.44321880170094e-03
5.15192307692308e-01 1.09178881333414e+00 9.41365445620663e-03
5.18807692307692e-01 1.08454505806743e+00 9.38395159136983e-03
5.22423076923077e-01 1.07734936336353e+00 9.35411529602463e-03
5.26038461538462e-01 1.07020141036530e+00 9.32415056834928e-03
5.29653846153846e-01 1.06310088230507e+00 9.29406230193920e-03
5.33269230769231e-01 1.05604746454252e+00 9.26385529155327e-03
5.36884615384615e-01 1.04904084449961e+00 9.23353423965568e-03
5.40500000000000e-01 1.04208071168485e+00 9.20310374256819e-03
5.44115384615385e-01 1.03516675767894e+00 9.17256831590703e-03
5.47730769230769e-01 1.02829867608451e+00 9.14193238489860e-03
5.51346153846154e-01 1.02147616254927e+00 9.11120027479363e-03
5.54961538461539e-01 1.01469891475192e+00 9.08037623551863e-03
5.58576923076923e-01 1.00796663235354e+00 9.04946442853835e-03
5.62192307692308e-01 1.00127901703099e+00 9.01846893193038e-03
5.65807692307692e-01 9.94635772417673e-01 8.98739374619238e-03
5.69423076923077e-01 9.88036604124716e-01 8.95624278120167e-03
5.73038461538461e-01 9.81481219727400e-01 8.92501987951215e-03
5.76653846153846e-01 9.74969328719216e-01 8.89372880374994e-03
5.80269230769231e-01 9.68500642542726e-01 8.86237324131253e-03
5.83884615384615e-01 9.62074874533686e-01 8.83095680976376e-03
5.87500000000000e-01 9.55691739940489e-01 8.79948304433023e-03
5.91115384615385e-01 9.49350955911035e-01 8.76795541994499e-03
5.94730769230769e-01 9.43052241449324e-01 8.73637734242065e-03
5.98346153846154e-01 9.36795317433996e-01 8.70475213971787e-03
6.01961538461538e-01 9.30579906605487e-01 8.67308308334343e-03
6.05576923076923e-01 9.24405733523941e-01 8.64137337650672e-03
6.09192307692308e-01 9.18272524596539e-01 8.60962615832426e-03
6.12807692307692e-01 9.12180008026413e-01 8.57784450866387e-03
6.16423076923077e-01 9.06127913829653e-01 8.54603143640536e-03
6.20038461538462e-01 9.00115973822912e-01 8.51418989972541e-03
6.23653846153846e-01 8.94143921583568e-01 8.48232279474773e-03
6.27269230769231e-01 8.88211492474989e-01 8.45043295946332e-03
6.30884615384615e-01 8.82318423598261e-01 8.41852317825936e-03
6.34500000000000e-01 8.76464453807807e-01 8.38659617067593e-03
6.38115384615385e-01 8.70649323699394e-01 8.35465461064890e-03
6.41730769230769e-01 8.64872775572415e-01 8.32270111851608e-03
6.45346153846154e-01 8.59134553444792e-01 8.29073825311648e-03
6.48961538461538e-01 8.53434403041236e-01 8.25876853049070e-03
6.52576923076923e-01 8.47772071756647e-01 8.22679441323855e-03
6.56192307692308e-01 8.42147308678533e-01 8.19481831406037e-03
6.59807692307692e-01 8.36559864542747e-01 8.16284259985826e-03
6.63423076923077e-01 8.31009491747163e-01 8.13086958119895e-03
6.67038461538462e-01 8.25495944340346e-01 8.09890153007664e-03
6.70653846153846e-01 8.20018977986837e-01 8.06694066972275e-03
6.74269230769231e-01 8.14578349987915e-01 8.03498917792438e-03
6.77884615384615e-01 8.09173819239690e-01 8.00304919087753e-03
6.81500000000000e-01 8.03805146245665e-01 7.97112279309874e-03
6.85115384615385e-01 7.98472093105781e-01 7.93921203430884e-03
6.88730769230769e-01 7.93174423483480e-01 7.90731892222611e-03
6.92346153846154e-01 7.87911902617712e-01 7.87544541544234e-03
6.95961538461538e-01 7.82684297312195e-01 7.84359343984691e-03
6.99576923076923e-01 7.77491375903435e-01 7.81176487908081e-03
7.03192307692308e-01 7.72332908279190e-01 7.77996157755541e-03
7.06807692307692e-01 7.67208665839931e-01 7.74818534396379e-03
7.10423076923077e-01 7.62118421509857e-01 7.71643794183423e-03
7.14038461538462e-01 7.57061949726534e-01 7.68472110515713e-03
7.17653846153846e-01 7.52039026410505e-01 7.65303652924644e-03
7.21269230769231e-01 7.47049428982421e-01 7.62138587358087e-03
7.24884615384615e-01 7.42092936326475e-01 7.58977076511223e-03
7.28500000000000e-01 7.37169328800537e-01 7.55819278922488e-03
7.32115384615385e-01 7.32278388226127e-01 7.52665350461292e-03
7.35730769230769e-01 7.27419897859536e-01 7.49515443679120e-03
7.39346153846154e-01 7.22593642401509e-01 7.46369707168754e-03
7.42961538461538e-01 7.17799407987420e-01 7.43228287012469e-03
7.46576923076923e-01 7.13036982159203e-01 7.40091325926243e-03
7.50192307692308e-01 7.08306153880623e-01 7.36958963519711e-03
7.53807692307692e-01 7.03606713503558e-01 7.33831336599246e-03
7.57423076923077e-01 6.98938452776892e-01 7.30708578321392e-03
7.61038461538462e-01 6.94301164837032e-01 7.27590819572824e-03
7.64653846153846e-01 6.89694644181198e-01 7.24478188151041e-03
7.68269230769231e-01 6.85118686681595e-01 7.21370809009639e-03
7.71884615384615e-01 6.80573089553391e-01 7.18268804544982e-03
7.75500000000000e-01 6.76057651362886e-01 7.15172293785712e-03
7.79115384615385e-01 6.71572172018336e-01 7.12081393708121e-03
7.82730769230769e-01 6.67116452744543e-01 7.08996218652846e-03
7.86346153846154e-01 6.62690296090655e-01 7.05916879748811e-03
7.89961538461538e-01 6.58293505921178e-01 7.02843486194340e-03
7.93576923076923e-01 6.53925887391259e-01 6.99776144489996e-03
7.97192307692308e-01 6.49587246959333e-01 6.96714958664092e-03
8.00807692307692e-01 6.45277392357531e-01 6.93660030535997e-03
8.04423076923077e-01 6.40996132598849e-01 6.90611458957604e-03
8.08038461538461e-01 6.36743277968464e-01 6.87569341035489e-03
8.11653846153846e-01 6.32518640000183e-01 6.84533771396163e-03
8.15269230769231e-01 6.28322031488198e-01 6.81504842399512e-03
8.18884615384615e-01 6.24153266458931e-01 6.78482644388380e-03
8.22500000000000e-01 6.20012160177627e-01 6.75467264962089e-03
8.26115384615385e-01 6.15898529139951e-01 6.72458790142778e-03
8.29730769230769e-01 6.11812191049545e-01 6.69457303851075e-03
8.33346153846154e-01 6.07752964824323e-01 6.66462887388336e-03
8.36961538461538e-01 6.03720670588235e-01 6.63475620573084e-03
8.40576923076923e-01 5.99715129649433e-01 6.60495581053231e-03
8.44192307692308e-01 5.95736164510768e-01 6.57522844502716e-03
8.47807692307692e-01 5.91783598843732e-01 6.54557484851561e-03
8.51423076923077e-01 5.87857257494228e-01 6.51599573605844e-03
8.55038461538462e-01 5.83956966474623e-01 6.48649180932812e-03
8.58653846153846e-01 5.80082552942914e-01 6.45706375001988e-03
8.62269230769231e-01 5.76233845212491e-01 6.42771222171699e-03
8.65884615384615e-01 5.72410672727319e-01 6.39843787207557e-03
8.69500000000000e-01 5.68612866067236e-01 6.36924132631007e-03
8.73115384615385e-01 5.64840256940262e-01 6.34012319755737e-03
8.76730769230769e-01 5.61092678162730e-01 6.31108408216556e-03
8.80346153846154e-01 5.57369963664337e-01 6.28212455504050e-03
8.83961538461538e-01 5.53671948480615e-01 6.25324517974951e-03
8.87576923076923e-01 5.49998468733576e-01 6.22444650235080e-03
8.91192307692308e-01 5.46349361640448e-01 6.19572905311691e-03
8.94807692307692e-01 5.42724465490655e-01 6.16709334855555e-03
8.98423076923077e-01 5.39123619650455e-01 6.13853988530782e-03
9.02038461538462e-01 5.35546664555657e-01 6.11006914980392e-03
9.05653846153846e-01 5.31993441693151e-01 6.08168161235117e-03
9.09269230769231e-01 5.28463793609020e-01 6.05337772877097e-03
9.12884615384615e-01 5.24957563886607e-01 6.02515794231971e-03
9.16500000000000e-01 5.21474597150758e-01 5.99702267784311e-03
9.20115384615385e-01 5.18014739060778e-01 5.96897235100576e-03
9.23730769230769e-01 5.14577836292798e-01 5.94100736405537e-03
9.27346153846154e-01 5.11163736543818e-01 5.91312810163937e-03
9.30961538461539e-01 5.07772288524811e-01 5.88533493980609e-03
9.34576923076923e-01 5.04403341943540e-01 5.85762824046564e-03
9.38192307692308e-01 5.01056747511814e-01 5.83000835290569e-03
9.41807692307692e-01 4.97732356925121e-01 5.80247561557292e-03
9.45423076923077e-01 4.94430022866328e-01 5.77503035059556e-03
9.49038461538461e-01 4.91149598999015e-01 5.74767287239075e-03
9.52653846153846e-01 4.87890939951053e-01 5.72040348235662e-03
9.56269230769231e-01 4.84653901321361e-01 5.69322247031374e-03
9.59884615384615e-01 4.81438339660462e-01 5.66613011619997e-03
9.63500000000000e-01 4.78244112473869e-01 5.63912668482254e-03
9.67115384615385e-01 4.75071078215645e-01 5.61221243409018e-03
9.70730769230769e-01 4.71919096272697e-01 5.58538761120450e-03
9.74346153846154e-01 4.68788026968015e-01 5.55865244889805e-03
9.77961538461538e-01 4.65677731554346e-01 5.53200717346532e-03
9.81576923076923e-01 4.62588072198901e-01 5.50545199978809e-03
9.85192307692308e-01 4.59518911989400e-01 5.47898713267370e-03
9.88807692307692e-01 4.56470114915994e-01 5.45261276842924e-03
9.92423076923077e-01 4.53441545874205e-01 5.42632908994146e-03
9.96038461538462e-01 4.50433070658826e-01 5.40013627436244e-03
9.99653846153846e-01 4.47444555949287e-01 5.37403449073911e-03
1.00326923076923e+00 4.44475869309648e-01 5.34802388811871e-03
1.00688461538462e+00 4.41526879202240e-01 5.32210462566658e-03
1.01050000000000e+00 4.38597454917513e-01 5.29627683846539e-03
1.01411538461538e+00 4.35687466668540e-01 5.27054065712024e-03
1.01773076923077e+00 4.32796785474642e-01 5.24489620443480e-03
1.02134615384615e+00 4.29925283265218e-01 5.21934359412605e-03
1.02496153846154e+00 4.27072832765592e-01 5.19388293239624e-03
1.02857692307692e+00 4.24239307598790e-01 5.16851431666543e-03
1.03219230769231e+00 4.21424582173572e-01 5.14323783711568e-03
1.03580769230769e+00 4.18628531784199e-01 5.11805356442748e-03
1.03942307692308e+00 4.15851032526013e-01 5.09296159543506e-03
1.04303846153846e+00 4.13091961291403e-01 5.06796198590270e-03
1.04665384615385e+00 4.10351195840007e-01 5.04305479497509e-03
1.05026923076923e+00 4.07628614692527e-01 5.01824007520920e-03
1.05388461538462e+00 4.04924097225141e-01 4.99351787137871e-03
1.05750000000000e+00 4.02237523565321e-01 4.96888822191661e-03
1.06111538461538e+00 3.99568774684407e-01 4.94435115773790e-03
1.06473076923077e+00 3.96917732295391e-01 4.91990670365704e-03
1.06834615384615e+00 3.94284278943681e-01 4.89555487722610e-03
1.07196153846154e+00 3.91668297906817e-01 4.87129569012797e-03
1.07557692307692e+00 3.89069673283459e-01 4.84712914703359e-03
1.07919230769231e+00 3.86488289894997e-01 4.82305524696912e-03
1.08280769230769e+00 3.83924033372809e-01 4.79907397230862e-03
1.08642307692308e+00 3.81376790084010e-01 4.77518532971070e-03
1.09003846153846e+00 3.78846447127675e-01 4.75138928981177e-03
1.09365384615385e+00 3.76332892396227e-01 4.72768582708594e-03
1.09726923076923e+00 3.73836014482040e-01 4.70407491089011e-03
1.10088461538462e+00 3.71355702760089e-01 4.68055650438437e-03
1.10450000000000e+00 3.68891847296294e-01 4.65713056581258e-03
1.10811538461538e+00 3.66444338928576e-01 4.63379704743862e-03
1.11173076923077e+00 3.64013069176908e-01 4.61055589680412e-03
1.11534615384615e+00 3.61597930322815e-01 4.58740705568110e-03
1.11896153846154e+00 3.59198815321091e-01 4.56435046130778e-03
1.12257692307692e+00 3.56815617877772e-01 4.54138604535573e-03
1.12619230769231e+00 3.54448232363494e-01 4.51851373514582e-03
1.12980769230769e+00 3.52096553889967e-01 4.49573344375902e-03
1.13342307692308e+00 3.49760478244543e-01 4.47304510677736e-03
1.13703846153846e+00 3.47439901886682e-01 4.45044862813371e-03
1.14065384615385e+00 3.45134722001739e-01 4.42794391588849e-03
