Energy (eV)          EEDF (eV^-(3/2))     First Anisotropy
3.30384615384615e-02 2.83648293424484e-01 2.91084883658158e-04
9.91153846153846e-02 2.76214292408491e-01 4.75965235984789e-04
1.65192307692308e-01 2.68975125541944e-01 6.16002260490019e-04
2.31269230769231e-01 2.61925686500926e-01 7.15172720213707e-04
2.97346153846154e-01 2.55061002800312e-01 7.92110761853393e-04
3.63423076923077e-01 2.48376232276571e-01 8.54081163634435e-04
4.29500000000000e-01 2.41866659672153e-01 9.04952305769648e-04
4.95576923076923e-01 2.35527693295994e-01 9.47123946062760e-04
5.61653846153846e-01 2.29354861827527e-01 9.82228660860314e-04
6.27730769230769e-01 2.23343811116707e-01 1.01144829966948e-03
6.93807692307692e-01 2.17490301129487e-01 1.03567756896232e-03
7.59884615384615e-01 2.11790202956932e-01 1.05561702232828e-03
8.25961538461538e-01 2.06239495902758e-01 1.07182978303479e-03
8.92038461538462e-01 2.00834264647214e-01 1.08477808894850e-03
9.58115384615385e-01 1.95570696485257e-01 1.09484789110937e-03
1.02419230769231e+00 1.90445078637275e-01 1.10236601692424e-03
1.09026923076923e+00 1.85453795625374e-01 1.10761250896301e-03
1.15634615384615e+00 1.80593326750297e-01 1.11082973144097e-03
1.22242307692308e+00 1.75860243526438e-01 1.11222922712311e-03
1.28850000000000e+00 1.71251207405881e-01 1.11199699483346e-03
1.35457692307692e+00 1.66762967295743e-01 1.11029761862988e-03
1.42065384615385e+00 1.62392357309906e-01 1.10727753350679e-03
1.48673076923077e+00 1.58136294507968e-01 1.10306765297353e-03
1.55280769230769e+00 1.53991776807517e-01 1.09778551317531e-03
1.61888461538462e+00 1.49955880775376e-01 1.09153703861704e-03
1.68496153846154e+00 1.46025759574818e-01 1.08441799377554e-03
1.75103846153846e+00 1.42198641028424e-01 1.07651521387287e-03
1.81711538461538e+00 1.38471825588159e-01 1.06790764473590e-03
1.88319230769231e+00 1.34842684438610e-01 1.05866721471112e-03
1.94926923076923e+00 1.31308657701336e-01 1.04885959457394e-03
2.01534615384615e+00 1.27867252567772e-01 1.03854485288796e-03
2.08142307692308e+00 1.24516041546463e-01 1.02777801285106e-03
2.14750000000000e+00 1.21252660800078e-01 1.01660954917423e-03
2.21357692307692e+00 1.18074808426729e-01 1.00508582256698e-03
2.27965384615385e+00 1.14980242854049e-01 9.93249457118524e-04
2.34573076923077e+00 1.11966781245529e-01 9.81139675031564e-04
2.41180769230769e+00 1.09032297999560e-01 9.68792597447123e-04
2.47788461538462e+00 1.06174723209902e-01 9.56241513705701e-04
2.54396153846154e+00 1.03392041208904e-01 9.43517113477987e-04
2.61003846153846e+00 1.00682289178768e-01 9.30647703494689e-04
2.67611538461538e+00 9.80435557326872e-02 9.17659402580337e-04
2.74219230769231e+00 9.54739795694032e-02 9.04576309939730e-04
2.80826923076923e+00 9.29717481886340e-02 8.91420665024109e-04
2.87434615384615e+00 9.05350965831779e-02 8.78212992542072e-04
2.94042307692308e+00 8.81623059961719e-02 8.64972227396293e-04
3.00650000000000e+00 8.58517027332505e-02 8.51715835329963e-04
3.07257692307692e+00 8.36016569566236e-02 8.38459922469017e-04
3.13865384615385e+00 8.14105815441593e-02 8.25219332446414e-04
3.20473076923077e+00 7.92769309633821e-02 8.12007736026567e-04
3.27080769230769e+00 7.71992002013222e-02 7.98837715647158e-04
3.33688461538462e+00 7.51759236822580e-02 7.85720843871489e-04
3.40296153846154e+00 7.32056742354157e-02 7.72667750336588e-04
3.46903846153846e+00 7.12870621057248e-02 7.59688188730906e-04
3.53511538461538e+00 6.94187339554981e-02 7.46791098641870e-04
3.60119230769231e+00 6.75993719111204e-02 7.33984657973108e-04
3.66726923076923e+00 6.58276926486869e-02 7.21276336187446e-04
3.73334615384615e+00 6.41024464730520e-02 7.08672943643436e-04
3.79942307692308e+00 6.24224164374059e-02 6.96180673065905e-04
3.86550000000000e+00 6.07864174982547e-02 6.83805142308625e-04
3.93157692307692e+00 5.91932956657424e-02 6.71551433708171e-04
3.99765384615385e+00 5.76419271943869e-02 6.59424128766222e-04
4.06373076923077e+00 5.61312177867954e-02 6.47427340810601e-04
4.12980769230769e+00 5.46601018329387e-02 6.35564746860898e-04
4.19588461538462e+00 5.32275416470158e-02 6.23839617784926e-04
4.26196153846154e+00 5.18325267362506e-02 6.12254843080599e-04
4.32803846153846e+00 5.04740730979588e-02 6.00812957331299e-04
4.39411538461538e+00 4.91512225153216e-02 5.89516164914618e-04
4.46019230769231e+00 4.78630418821551e-02 5.78366360063394e-04
4.52626923076923e+00 4.66086225534126e-02 5.67365148628741e-04
4.59234615384615e+00 4.53870796953022e-02 5.56513868435910e-04
4.65842307692308e+00 4.41975516617183e-02 5.45813605589869e-04
4.72450000000000e+00 4.30391993941663e-02 5.35265212459675e-04
4.79057692307692e+00 4.19112058219949e-02 5.24869324270492e-04
4.85665384615385e+00 4.08127752887676e-02 5.14626373416345e-04
4.92273076923077e+00 3.97431329889094e-02 5.04536603104758e-04
4.98880769230769e+00 3.87015244276961e-02 4.94600081073901e-04
5.05488461538462e+00 3.76872148823633e-02 4.84816712740927e-04
5.12096153846154e+00 3.66994888842641e-02 4.75186251367997e-04
5.18703846153846e+00 3.57376497199887e-02 4.65708309740026e-04
5.25311538461538e+00 3.48010189339677e-02 4.56382371119043e-04
5.31919230769231e+00 3.38889358502782e-02 4.47207797558422e-04
5.38526923076923e+00 3.30007571117724e-02 4.38183839648398e-04
5.45134615384615e+00 3.21358562209764e-02 4.29309645660477e-04
5.51742307692308e+00 3.12936230984943e-02 4.20584268345462e-04
5.58350000000000e+00 3.04734636572730e-02 4.12006673076419e-04
5.64957692307692e+00 2.96747993788317e-02 4.03575745327081e-04
5.71565384615385e+00 2.88970669068035e-02 3.95290296888390e-04
5.78173076923077e+00 2.81397176482814e-02 3.87149071847136e-04
5.84780769230769e+00 2.74022173907803e-02 3.79150752800671e-04
5.91388461538462e+00 2.66840459213938e-02 3.71293966874781e-04
5.97996153846154e+00 2.59846966600857e-02 3.63577289951665e-04
6.04603846153846e+00 2.53036763058703e-02 3.55999252033751e-04
6.11211538461538e+00 2.46405044852503e-02 3.48558342273916e-04
6.17819230769231e+00 2.39947134135882e-02 3.41253012402775e-04
6.24426923076923e+00 2.33658475682804e-02 3.34081681212196e-04
6.31034615384615e+00 2.27534633642244e-02 3.27042738756956e-04
6.37642307692308e+00 2.21571288411114e-02 3.20134549117524e-04
6.44250000000000e+00 2.15764233615469e-02 3.13355454142069e-04
6.50857692307692e+00 2.10109373114608e-02 3.06703776842157e-04
6.57465384615385e+00 2.04602718121616e-02 3.00177824042252e-04
6.64073076923077e+00 1.99240384381907e-02 2.93775888948539e-04
6.70680769230769e+00 1.94018589457549e-02 2.87496253947957e-04
6.77288461538461e+00 1.88933650034469e-02 2.81337193346900e-04
6.83896153846154e+00 1.83981979325742e-02 2.75296974991263e-04
6.90503846153846e+00 1.79160084563271e-02 2.69373862697407e-04
6.97111538461538e+00 1.74464564511829e-02 2.63566118520485e-04
7.03719230769231e+00 1.69892107071194e-02 2.57872004014431e-04
7.10326923076923e+00 1.65439486959367e-02 2.52289782241319e-04
7.16934615384615e+00 1.61103563417569e-02 2.46817719642217e-04
7.23542307692308e+00 1.56881277995948e-02 2.41454086997769e-04
7.30150000000000e+00 1.52769652413768e-02 2.36197161080130e-04
7.36757692307692e+00 1.48765786440653e-02 2.31045226115114e-04
7.43365384615385e+00 1.44866855856974e-02 2.25996574786267e-04
7.49973076923077e+00 1.41070110456774e-02 2.21049509219374e-04
7.56580769230769e+00 1.37372872123008e-02 2.16202342154056e-04
7.63188461538461e+00 1.33772532922953e-02 2.11453398107191e-04
7.69796153846154e+00 1.30266553269499e-02 2.06801013820485e-04
7.76403846153846e+00 1.26852460143437e-02 2.02243539276668e-04
7.83011538461538e+00 1.23527845335076e-02 1.97779338634565e-04
7.89619230769231e+00 1.20290363746337e-02 1.93406790516390e-04
7.96226923076923e+00 1.17137731748871e-02 1.89124288819151e-04
8.02834615384615e+00 1.14067725560660e-02 1.84930243456878e-04
8.09442307692308e+00 1.11078179678107e-02 1.80823080515979e-04
8.16050000000000e+00 1.08166985359635e-02 1.76801242893221e-04
8.22657692307692e+00 1.05332089126894e-02 1.72863190826617e-04
8.29265384615385e+00 1.02571491320158e-02 1.69007402138537e-04
8.35873076923077e+00 9.98832446846848e-03 1.65232372482846e-04
8.42480769230769e+00 9.72654530067940e-03 1.61536615734502e-04
8.49088461538462e+00 9.47162697664869e-03 1.57918664389961e-04
8.55696153846154e+00 9.22338968354884e-03 1.54377069502583e-04
8.62303846153846e+00 8.98165832175829e-03 1.50910401013990e-04
8.68911538461538e+00 8.74626238046146e-03 1.47517248045225e-04
8.75519230769231e+00 8.51703581742324e-03 1.44196218765962e-04
8.82126923076923e+00 8.29381694265166e-03 1.40945940628341e-04
8.88734615384615e+00 8.07644830354307e-03 1.37765060566664e-04
8.95342307692308e+00 7.86477657386210e-03 1.34652244813928e-04
9.01950000000000e+00 7.65865244629881e-03 1.31606179053850e-04
9.08557692307692e+00 7.45793052642582e-03 1.28625568511522e-04
9.15165384615385e+00 7.26246923038827e-03 1.25709137860563e-04
9.21773076923077e+00 7.07213068483293e-03 1.22855631142249e-04
9.28380769230769e+00 6.88678063027364e-03 1.20063811789991e-04
9.34988461538462e+00 6.70628832575673e-03 1.17332462670040e-04
9.41596153846154e+00 6.53052645667310e-03 1.14660385817018e-04
9.48203846153846e+00 6.35937104551266e-03 1.12046402444504e-04
9.54811538461538e+00 6.19270136384214e-03 1.09489352936418e-04
9.61419230769231e+00 6.03039984717698e-03 1.06988096560969e-04
9.68026923076923e+00 5.87235201255997e-03 1.04541511437799e-04
9.74634615384615e+00 5.71844637729077e-03 1.02148494489056e-04
9.81242307692308e+00 5.56857438031609e-03 9.98079611380751e-05
9.87850000000000e+00 5.42263030611165e-03 9.75188452409955e-05
9.94457692307692e+00 5.28051120964504e-03 9.52800989830136e-05
1.00106538461538e+01 5.14211684392061e-03 9.30906926349027e-05
1.00767307692308e+01 5.00734958926812e-03 9.09496143685560e-05
1.01428076923077e+01 4.87611438473656e-03 8.88558703702687e-05
1.02088846153846e+01 4.74831865928671e-03 8.68084840376501e-05
1.02749615384615e+01 4.62387227052464e-03 8.48064961195915e-05
1.03410384615385e+01 4.50268743728560e-03 8.28489650127909e-05
1.04071153846154e+01 4.38467867901744e-03 8.09349658983588e-05
1.04731923076923e+01 4.26976275549002e-03 7.90635909444301e-05
1.05392692307692e+01 4.15785860703857e-03 7.72339485716622e-05
1.06053461538462e+01 4.04888730056517e-03 7.54451636080004e-05
1.06714230769231e+01 3.94277197061528e-03 7.36963774592456e-05
1.07375000000000e+01 3.83943776626551e-03 7.19867474804054e-05
1.08035769230769e+01 3.73881179741409e-03 7.03154464863613e-05
1.08696538461538e+01 3.64082308615553e-03 6.86816628591885e-05
1.09357307692308e+01 3.54540251386626e-03 6.70846006704498e-05
1.10018076923077e+01 3.45248277341946e-03 6.55234790938081e-05
1.10678846153846e+01 3.36199832090953e-03 6.39975319421566e-05
1.11339615384615e+01 3.27388533186842e-03 6.25060077365678e-05
1.12000384615385e+01 3.18808165374451e-03 6.10481697893715e-05
1.12661153846154e+01 3.10452676291145e-03 5.96232955342941e-05
1.13321923076923e+01 3.02316172197952e-03 5.82306765840116e-05
1.13982692307692e+01 2.94392913754135e-03 5.68696181525246e-05
1.14643461538462e+01 2.86677312176856e-03 5.55394390853902e-05
1.15304230769231e+01 2.79163925086598e-03 5.42394719032295e-05
1.15965000000000e+01 2.71847452740638e-03 5.29690623035849e-05
1.16625769230769e+01 2.64722734234961e-03 5.17275687593404e-05
1.17286538461538e+01 2.57784744046794e-03 5.05143625259414e-05
1.17947307692308e+01 2.51028588303015e-03 4.93288276610040e-05
1.18608076923077e+01 2.44449501391665e-03 4.81703605624995e-05
1.19268846153846e+01 2.38042842547931e-03 4.70383695932801e-05
1.19929615384615e+01 2.31804092741542e-03 4.59322750702130e-05
1.20590384615385e+01 2.25728851324931e-03 4.48515092648447e-05
1.21251153846154e+01 2.19812832984925e-03 4.37955158924011e-05
1.21911923076923e+01 2.14051864720181e-03 4.27637500985229e-05
1.22572692307692e+01 2.08441882852818e-03 4.17556780141029e-05
1.23233461538462e+01 2.02978930298944e-03 4.07707767266748e-05
1.23894230769231e+01 1.97659153637654e-03 3.98085342624477e-05
1.24555000000000e+01 1.92478800440551e-03 3.88684492000889e-05
1.25215769230769e+01 1.87434216585464e-03 3.79500303515444e-05
1.25876538461538e+01 1.82521843799501e-03 3.70527967236008e-05
1.26537307692308e+01 1.77738217026070e-03 3.61762774892941e-05
1.27198076923077e+01 1.73079962022576e-03 3.53200116317466e-05
1.27858846153846e+01 1.68543792945663e-03 3.44835476479752e-05
1.28519615384615e+01 1.64126510139681e-03 3.36664435032289e-05
1.29180384615385e+01 1.59824997771321e-03 3.28682665944221e-05
1.29841153846154e+01 1.55636221668608e-03 3.20885933648726e-05
1.30501923076923e+01 1.51557227180799e-03 3.13270092604427e-05
1.31162692307692e+01 1.47585137064578e-03 3.05831083911988e-05
1.31823461538462e+01 1.43717149545113e-03 2.98564934791691e-05
1.32484230769231e+01 1.39950536247314e-03 2.91467758144073e-05
1.33145000000000e+01 1.36282640302789e-03 2.84535749600084e-05
1.33805769230769e+01 1.32710874449654e-03 2.77765185037427e-05
1.34466538461538e+01 1.29232719287413e-03 2.71152420028844e-05
1.35127307692308e+01 1.25845721418331e-03 2.64693889366784e-05
1.35788076923077e+01 1.22547491744593e-03 2.58386104353388e-05
1.36448846153846e+01 1.19335703760103e-03 2.52225650507715e-05
1.37109615384615e+01 1.16208091979878e-03 2.46209186997827e-05
1.37770384615385e+01 1.13162450270141e-03 2.40333446143072e-05
1.38431153846154e+01 1.10196630316587e-03 2.34595230534253e-05
1.39091923076923e+01 1.07308540109096e-03 2.28991412500480e-05
1.39752692307692e+01 1.04496142446368e-03 2.23518931563454e-05
1.40413461538462e+01 1.01757453559129e-03 2.18174793860638e-05
1.41074230769231e+01 9.90905416494116e-04 2.12956071632043e-05
1.41735000000000e+01 9.64935255488351e-04 2.07859900991575e-05
1.42395769230769e+01 9.39645733743014e-04 2.02883480023062e-05
1.43056538461538e+01 9.15019012889673e-04 1.98024068208188e-05
1.43717307692308e+01 8.91037721897588e-04 1.93278985912702e-05
1.44378076923077e+01 8.67684945005005e-04 1.88645612344727e-05
1.45038846153846e+01 8.44944209634046e-04 1.84121383803784e-05
1.45699615384615e+01 8.22799475240579e-04 1.79703793119483e-05
1.46360384615385e+01 8.01235121520902e-04 1.75390389143579e-05
1.47021153846154e+01 7.80235937556187e-04 1.71178774611236e-05
1.47681923076923e+01 7.59787111083555e-04 1.67066605618335e-05
1.48342692307692e+01 7.39874217916428e-04 1.63051589720556e-05
1.49003461538462e+01 7.20483212171507e-04 1.59131485389793e-05
1.49664230769231e+01 7.01600415951649e-04 1.55304101518673e-05
1.50325000000000e+01 6.83212509837263e-04 1.51567295750516e-05
1.50985769230769e+01 6.65306523375147e-04 1.47918973035743e-05
1.51646538461538e+01 6.47869826284197e-04 1.44357085108013e-05
1.52307307692308e+01 6.30890119184446e-04 1.40879630004316e-05
1.52968076923077e+01 6.14355425044459e-04 1.37484650538356e-05
1.53628846153846e+01 5.98254080630659e-04 1.34170232976773e-05
1.54289615384615e+01 5.82574728593963e-04 1.30934506537206e-05
1.54950384615385e+01 5.67306309138699e-04 1.27775642926494e-05
1.55611153846154e+01 5.52438052329961e-04 1.24691854760353e-05
1.56271923076923e+01 5.37959470497075e-04 1.21681395097830e-05
1.56932692307692e+01 5.23860350747894e-04 1.18742556030202e-05
1.57593461538462e+01 5.10130748033512e-04 1.15873668207112e-05
1.58254230769231e+01 4.96760977859281e-04 1.13073100398743e-05
1.58915000000000e+01 4.83741609546894e-04 1.10339258252317e-05
1.59575769230769e+01 4.71063459504531e-04 1.07670583206743e-05
1.60236538461538e+01 4.58717584986593e-04 1.05065552043309e-05
1.60897307692308e+01 4.46695277543361e-04 1.02522676469245e-05
1.61558076923077e+01 4.34988056960680e-04 1.00040501982976e-05
1.62218846153846e+01 4.23587665209591e-04 9.76176068810706e-06
1.62879615384615e+01 4.12486060831556e-04 9.52526018337676e-06
1.63540384615385e+01 4.01675413051784e-04 9.29441294904387e-06
1.64201153846154e+01 3.91148096328428e-04 9.06908633166185e-06
1.64861923076923e+01 3.80896684973919e-04 8.84915072011757e-06
1.65522692307692e+01 3.70913947858032e-04 8.63447944137423e-06
1.66183461538462e+01 3.61192843487532e-04 8.42494872102260e-06
1.66844230769231e+01 3.51726514855400e-04 8.22043764651231e-06
1.67505000000000e+01 3.42508284666664e-04 8.02082807503184e-06
1.68165769230769e+01 3.33531650576211e-04 7.82600455244552e-06
1.68826538461538e+01 3.24790280761819e-04 7.63585427627617e-06
1.69487307692308e+01 3.16278009295054e-04 7.45026706112854e-06
1.70148076923077e+01 3.07988831847334e-04 7.26913525474355e-06
1.70808846153846e+01 2.99916901408468e-04 7.09235366396220e-06
1.71469615384615e+01 2.92056524303666e-04 6.91981952007550e-06
1.72130384615385e+01 2.84402156033217e-04 6.75143244639485e-06
1.72791153846154e+01 2.76948397410493e-04 6.58709437295232e-06
1.73451923076923e+01 2.69689990753627e-04 6.42670950447788e-06
1.74112692307692e+01 2.62621816137142e-04 6.27018424366664e-06
1.74773461538462e+01 2.55738887901833e-04 6.11742715931629e-06
1.75434230769231e+01 2.49036351014263e-04 5.96834895644712e-06
1.76095000000000e+01 2.42509477684265e-04 5.82286240834094e-06
1.76755769230769e+01 2.36153663994916e-04 5.68088229631866e-06
1.77416538461538e+01 2.29964426762566e-04 5.54232538005621e-06
1.78077307692308e+01 2.23937400264876e-04 5.40711036970351e-06
1.78738076923077e+01 2.18068333198622e-04 5.27515786402494e-06
1.79398846153846e+01 2.12353085649818e-04 5.14639029547815e-06
1.80059615384615e+01 2.06787626268799e-04 5.02073190260801e-06
1.80720384615385e+01 2.01368029329449e-04 4.89810870407925e-06
1.81381153846154e+01 1.96090471993095e-04 4.77844843628553e-06
1.82041923076923e+01 1.90951231612053e-04 4.66168052785921e-06
1.82702692307692e+01 1.85946683076957e-04 4.54773604337575e-06
1.83363461538462e+01 1.81073296341568e-04 4.43654765816095e-06
1.84024230769231e+01 1.76327633849293e-04 4.32804963455807e-06
1.84685000000000e+01 1.71706348136828e-04 4.22217777196187e-06
1.85345769230769e+01 1.67206179449200e-04 4.11886936227458e-06
1.86006538461538e+01 1.62823953513009e-04 4.01806316655825e-06
1.86667307692308e+01 1.58556579223359e-04 3.91969939301337e-06
1.87328076923077e+01 1.54401046488637e-04 3.82371965154278e-06
1.87988846153846e+01 1.50354424086241e-04 3.73006691317812e-06
1.88649615384615e+01 1.46413857659340e-04 3.63868548847073e-06
1.89310384615385e+01 1.42576567637850e-04 3.54952100708653e-06
1.89971153846154e+01 1.38839847300082e-04 3.46252037227796e-06
1.90631923076923e+01 1.35201060863550e-04 3.37763174094290e-06
1.91292692307692e+01 1.31657641607619e-04 3.29480448243382e-06
1.91953461538462e+01 1.28207090118375e-04 3.21398915894917e-06
1.92614230769231e+01 1.24846972469150e-04 3.13513750699639e-06
1.93275000000000e+01 1.21574918522907e-04 3.05820240076267e-06
1.93935769230769e+01 1.18388620244336e-04 2.98313781928768e-06
1.94596538461538e+01 1.15285830120939e-04 2.90989882836337e-06
1.95257307692308e+01 1.12264359527619e-04 2.83844156340587e-06
1.95918076923077e+01 1.09322077199900e-04 2.76872319617473e-06
1.96578846153846e+01 1.06456907716354e-04 2.70070190490239e-06
1.97239615384615e+01 1.03666830078225e-04 2.63433685760305e-06
1.97900384615385e+01 1.00949876239441e-04 2.56958819626388e-06
1.98561153846154e+01 9.83041297334903e-05 2.50641700368881e-06
1.99221923076923e+01 9.57277243216301e-05 2.44478528810229e-06
1.99882692307692e+01 9.32188426642079e-05 2.38465595307948e-06
2.00543461538462e+01 9.07757150762640e-05 2.32599278246709e-06
2.01204230769231e+01 8.83966182410015e-05 2.26876042608808e-06
2.01865000000000e+01 8.60798740072128e-05 2.21292437295581e-06
2.02525769230769e+01 8.38238481946648e-05 2.15845092715636e-06
2.03186538461538e+01 8.16269494746846e-05 2.10530719397232e-06
2.03847307692308e+01 7.94876282137329e-05 2.05346106671760e-06
2.04508076923077e+01 7.74043753918698e-05 2.00288120241737e-06
2.05168846153846e+01 7.53757215286733e-05 1.95353699988173e-06
2.05829615384615e+01 7.34002356762645e-05 1.90539858694694e-06
2.06490384615385e+01 7.14765243798179e-05 1.85843680836127e-06
2.07151153846154e+01 6.96032307048880e-05 1.81262320168068e-06
2.07811923076923e+01 6.77790332802839e-05 1.76792998550327e-06
2.08472692307692e+01 6.60026453576716e-05 1.72433003756143e-06
