Energy (eV)          EEDF (eV^-(3/2))     First Anisotropy
3.25000000000000e-02 9.28854824975056e-02 6.56469249335528e-05
9.75000000000000e-02 9.17452528716975e-02 1.08099791387305e-04
1.62500000000000e-01 9.06190203050803e-02 1.41906313219800e-04
2.27500000000000e-01 8.95066129746867e-02 1.67109115339890e-04
2.92500000000000e-01 8.84078611667678e-02 1.87734851005237e-04
3.57500000000000e-01 8.73225972509177e-02 2.05318423524561e-04
4.22500000000000e-01 8.62506556545017e-02 2.20660326555983e-04
4.87500000000000e-01 8.51918728373964e-02 2.34247611380648e-04
5.52500000000000e-01 8.41460872670396e-02 2.46405697342385e-04
6.17500000000000e-01 8.31131393937859e-02 2.57366265154382e-04
6.82500000000000e-01 8.20928716265656e-02 2.67302050643849e-04
7.47500000000000e-01 8.10851283088416e-02 2.76346452445829e-04
8.12500000000000e-01 8.00897556948617e-02 2.84605388420685e-04
8.77500000000000e-01 7.91066019262030e-02 2.92164867144250e-04
9.42500000000000e-01 7.81355170086031e-02 2.99096038709455e-04
1.00750000000000e+00 7.71763527890768e-02 3.05458686690390e-04
1.07250000000000e+00 7.62289629333127e-02 3.11303715614106e-04
1.13750000000000e+00 7.52932029033484e-02 3.16674968432724e-04
1.20250000000000e+00 7.43689299355187e-02 3.21610583777955e-04
1.26750000000000e+00 7.34560030186752e-02 3.26144028979603e-04
1.33250000000000e+00 7.25542828726730e-02 3.30304899544025e-04
1.39750000000000e+00 7.16636319271213e-02 3.34119547112470e-04
1.46250000000000e+00 7.07839143003952e-02 3.37611579253629e-04
1.52750000000000e+00 6.99149957789050e-02 3.40802261995790e-04
1.59250000000000e+00 6.90567437966201e-02 3.43710847519137e-04
1.65750000000000e+00 6.82090274148439e-02 3.46354843531987e-04
1.72250000000000e+00 6.73717173022374e-02 3.48750236684224e-04
1.78750000000000e+00 6.65446857150878e-02 3.50911679374557e-04
1.85250000000000e+00 6.57278064778192e-02 3.52852647123010e-04
1.91750000000000e+00 6.49209549637431e-02 3.54585572065688e-04
1.98250000000000e+00 6.41240080760444e-02 3.56121956921481e-04
2.04750000000000e+00 6.33368442290012e-02 3.57472472867096e-04
2.11250000000000e+00 6.25593433294357e-02 3.58647044058887e-04
2.17750000000000e+00 6.17913867583914e-02 3.59654921001257e-04
2.24250000000000e+00 6.10328573530369e-02 3.60504744542007e-04
2.30750000000000e+00 6.02836393887905e-02 3.61204601945687e-04
2.37250000000000e+00 5.95436185616649e-02 3.61762076235386e-04
2.43750000000000e+00 5.88126819708285e-02 3.62184289785556e-04
2.50250000000000e+00 5.80907181013806e-02 3.62477942981565e-04
2.56750000000000e+00 5.73776168073386e-02 3.62649348627174e-04
2.63250000000000e+00 5.66732692948332e-02 3.62704462671220e-04
2.69750000000000e+00 5.59775681055106e-02 3.62648911735323e-04
2.76250000000000e+00 5.52904071001380e-02 3.62488017850798e-04
2.82750000000000e+00 5.46116814424105e-02 3.62226820751946e-04
2.89250000000000e+00 5.39412875829573e-02 3.61870098022453e-04
2.95750000000000e+00 5.32791232435431e-02 3.61422383349278e-04
3.02250000000000e+00 5.26250874014644e-02 3.60887983103173e-04
3.08750000000000e+00 5.19790802741371e-02 3.60270991435089e-04
3.15250000000000e+00 5.13410033038729e-02 3.59575304052544e-04
3.21750000000000e+00 5.07107591428434e-02 3.58804630818872e-04
3.28250000000000e+00 5.00882516382279e-02 3.57962507299818e-04
3.34750000000000e+00 4.94733858175440e-02 3.57052305366523e-04
3.41250000000000e+00 4.88660678741583e-02 3.56077242950705e-04
3.47750000000000e+00 4.82662051529746e-02 3.55040393036137e-04
3.54250000000000e+00 4.76737061362984e-02 3.53944691960916e-04
3.60750000000000e+00 4.70884804298741e-02 3.52792947096254e-04
3.67250000000000e+00 4.65104387490945e-02 3.51587843960086e-04
3.73750000000000e+00 4.59394929053788e-02 3.50331952817496e-04
3.80250000000000e+00 4.53755557927184e-02 3.49027734814053e-04
3.86750000000000e+00 4.48185413743875e-02 3.47677547683407e-04
3.93250000000000e+00 4.42683646698169e-02 3.46283651066128e-04
3.99750000000000e+00 4.37249417416293e-02 3.44848211472824e-04
4.06250000000000e+00 4.31881896828330e-02 3.43373306921422e-04
4.12750000000000e+00 4.26580266041736e-02 3.41860931275294e-04
4.19250000000000e+00 4.21343716216404e-02 3.40312998306486e-04
4.25750000000000e+00 4.16171448441266e-02 3.38731345505892e-04
4.32250000000000e+00 4.11062673612404e-02 3.37117737660068e-04
4.38750000000000e+00 4.06016612312665e-02 3.35473870212680e-04
4.45250000000000e+00 4.01032494692748e-02 3.33801372426856e-04
4.51750000000000e+00 3.96109560353750e-02 3.32101810363201e-04
4.58250000000000e+00 3.91247058231160e-02 3.30376689687000e-04
4.64750000000000e+00 3.86444246480273e-02 3.28627458316896e-04
4.71250000000000e+00 3.81700392363006e-02 3.26855508926276e-04
4.77750000000000e+00 3.77014772136115e-02 3.25062181307639e-04
4.84250000000000e+00 3.72386670940773e-02 3.23248764609422e-04
4.90750000000000e+00 3.67815382693510e-02 3.21416499453861e-04
4.97250000000000e+00 3.63300209978489e-02 3.19566579943827e-04
5.03750000000000e+00 3.58840463941105e-02 3.17700155565970e-04
5.10250000000000e+00 3.54435464182890e-02 3.15818332996891e-04
5.16750000000000e+00 3.50084538657712e-02 3.13922177818481e-04
5.23250000000000e+00 3.45787023569238e-02 3.12012716148234e-04
5.29750000000000e+00 3.41542263269669e-02 3.10090936189762e-04
5.36250000000000e+00 3.37349610159707e-02 3.08157789708370e-04
5.42750000000000e+00 3.33208424589757e-02 3.06214193436293e-04
5.49250000000000e+00 3.29118074762337e-02 3.04261030411766e-04
5.55750000000000e+00 3.25077936635690e-02 3.02299151255748e-04
5.62250000000000e+00 3.21087393828578e-02 3.00329375390012e-04
5.68750000000000e+00 3.17145837526242e-02 2.98352492199960e-04
5.75250000000000e+00 3.13252666387518e-02 2.96369262145196e-04
5.81750000000000e+00 3.09407286453099e-02 2.94380417820852e-04
5.88250000000000e+00 3.05609111054910e-02 2.92386664972375e-04
5.94750000000000e+00 3.01857560726612e-02 2.90388683466290e-04
6.01250000000000e+00 2.98152063115189e-02 2.88387128219345e-04
6.07750000000000e+00 2.94492052893630e-02 2.86382630088184e-04
6.14250000000000e+00 2.90876971674681e-02 2.84375796721666e-04
6.20750000000000e+00 2.87306267925654e-02 2.82367213377779e-04
6.27250000000000e+00 2.83779396884283e-02 2.80357443706937e-04
6.33750000000000e+00 2.80295820475613e-02 2.78347030503381e-04
6.40250000000000e+00 2.76855007229908e-02 2.76336496426291e-04
6.46750000000000e+00 2.73456432201568e-02 2.74326344692054e-04
6.53250000000000e+00 2.70099576889042e-02 2.72317059739167e-04
6.59750000000000e+00 2.66783929155721e-02 2.70309107867101e-04
6.66250000000000e+00 2.63508983151807e-02 2.68302937850327e-04
6.72750000000000e+00 2.60274239237137e-02 2.66298981528703e-04
6.79250000000000e+00 2.57079203904953e-02 2.64297654375325e-04
6.85750000000000e+00 2.53923389706616e-02 2.62299356042935e-04
6.92250000000000e+00 2.50806315177233e-02 2.60304470889811e-04
6.98750000000000e+00 2.47727504762208e-02 2.58313368486077e-04
7.05250000000000e+00 2.44686488744684e-02 2.56326404101371e-04
7.11750000000000e+00 2.41682803173885e-02 2.54343919174622e-04
7.18250000000000e+00 2.38715989794332e-02 2.52366241766803e-04
7.24750000000000e+00 2.35785595975929e-02 2.50393686997338e-04
7.31250000000000e+00 2.32891174644908e-02 2.48426557464907e-04
7.37750000000000e+00 2.30032284215624e-02 2.46465143653341e-04
7.44250000000000e+00 2.27208488523180e-02 2.44509724323143e-04
7.50750000000000e+00 2.24419356756889e-02 2.42560566889370e-04
7.57250000000000e+00 2.21664463394542e-02 2.40617927786355e-04
7.63750000000000e+00 2.18943388137494e-02 2.38682052819815e-04
7.70250000000000e+00 2.16255715846538e-02 2.36753177506930e-04
7.76750000000000e+00 2.13601036478570e-02 2.34831527404799e-04
7.83250000000000e+00 2.10978945024031e-02 2.32917318427778e-04
7.89750000000000e+00 2.08389041445120e-02 2.31010757154170e-04
7.96250000000000e+00 2.05830930614756e-02 2.29112041122626e-04
8.02750000000000e+00 2.03304222256303e-02 2.27221359118708e-04
8.09250000000000e+00 2.00808530884022e-02 2.25338891451968e-04
8.15750000000000e+00 1.98343475744263e-02 2.23464810223959e-04
8.22250000000000e+00 1.95908680757373e-02 2.21599279587462e-04
8.28750000000000e+00 1.93503774460323e-02 2.19742455997276e-04
8.35250000000000e+00 1.91128389950032e-02 2.17894488452917e-04
8.41750000000000e+00 1.88782164827393e-02 2.16055518733512e-04
8.48250000000000e+00 1.86464741141985e-02 2.14225681625185e-04
8.54750000000000e+00 1.84175765337459e-02 2.12405105141191e-04
8.61250000000000e+00 1.81914888197601e-02 2.10593910735085e-04
8.67750000000000e+00 1.79681764793052e-02 2.08792213507157e-04
8.74250000000000e+00 1.77476054428685e-02 2.07000122404390e-04
8.80750000000000e+00 1.75297420591628e-02 2.05217740414188e-04
8.87250000000000e+00 1.73145530899922e-02 2.03445164752069e-04
8.93750000000000e+00 1.71020057051813e-02 2.01682487043509e-04
9.00250000000000e+00 1.68920674775663e-02 1.99929793500231e-04
9.06750000000000e+00 1.66847063780482e-02 1.98187165091049e-04
9.13250000000000e+00 1.64798907707056e-02 1.96454677707467e-04
9.19750000000000e+00 1.62775894079689e-02 1.94732402324272e-04
9.26250000000000e+00 1.60777714258525e-02 1.93020405155209e-04
9.32750000000000e+00 1.58804063392463e-02 1.91318747803959e-04
9.39250000000000e+00 1.56854640372650e-02 1.89627487410576e-04
9.45750000000000e+00 1.54929147786535e-02 1.87946676793507e-04
9.52250000000000e+00 1.53027291872504e-02 1.86276364587357e-04
9.58750000000000e+00 1.51148782475054e-02 1.84616595376531e-04
9.65250000000000e+00 1.49293333000531e-02 1.82967409824931e-04
9.71750000000000e+00 1.47460660373404e-02 1.81328844801777e-04
9.78250000000000e+00 1.45650484993077e-02 1.79700933503703e-04
9.84750000000000e+00 1.43862530691235e-02 1.78083705573257e-04
9.91250000000000e+00 1.42096524689707e-02 1.76477187213911e-04
9.97750000000000e+00 1.40352197558851e-02 1.74881401301696e-04
1.00425000000000e+01 1.38629283176450e-02 1.73296367493552e-04
1.01075000000000e+01 1.36927518687109e-02 1.71722102332544e-04
1.01725000000000e+01 1.35246644462153e-02 1.70158619349988e-04
1.02375000000000e+01 1.33586404060020e-02 1.68605929164600e-04
1.03025000000000e+01 1.31946544187133e-02 1.67064039578788e-04
1.03675000000000e+01 1.30326814659258e-02 1.65532955672146e-04
1.04325000000000e+01 1.28726968363337e-02 1.64012679892241e-04
1.04975000000000e+01 1.27146761219782e-02 1.62503212142781e-04
1.05625000000000e+01 1.25585952145243e-02 1.61004549869250e-04
1.06275000000000e+01 1.24044303015825e-02 1.59516688142071e-04
1.06925000000000e+01 1.22521578630755e-02 1.58039619737382e-04
1.07575000000000e+01 1.21017546676507e-02 1.56573335215509e-04
1.08225000000000e+01 1.19531977691352e-02 1.55117822997167e-04
1.08875000000000e+01 1.18064645030351e-02 1.53673069437514e-04
1.09525000000000e+01 1.16615324830782e-02 1.52239058898054e-04
1.10175000000000e+01 1.15183795977983e-02 1.50815773816521e-04
1.10825000000000e+01 1.13769840071615e-02 1.49403194774749e-04
1.11475000000000e+01 1.12373241392348e-02 1.48001300564609e-04
1.12125000000000e+01 1.10993786868946e-02 1.46610068252089e-04
1.12775000000000e+01 1.09631266045761e-02 1.45229473239544e-04
1.13425000000000e+01 1.08285471050625e-02 1.43859489326151e-04
1.14075000000000e+01 1.06956196563134e-02 1.42500088766685e-04
1.14725000000000e+01 1.05643239783329e-02 1.41151242328609e-04
1.15375000000000e+01 1.04346400400747e-02 1.39812919347545e-04
1.16025000000000e+01 1.03065480563871e-02 1.38485087781167e-04
1.16675000000000e+01 1.01800284849938e-02 1.37167714261571e-04
1.17325000000000e+01 1.00550620235125e-02 1.35860764146165e-04
1.17975000000000e+01 9.93162960651045e-03 1.34564201567101e-04
1.18625000000000e+01 9.80971240259519e-03 1.33277989479317e-04
1.19275000000000e+01 9.68929181154201e-03 1.32002089707209e-04
1.19925000000000e+01 9.57034946145599e-03 1.30736462989991e-04
1.20575000000000e+01 9.45286720596916e-03 1.29481069025748e-04
1.21225000000000e+01 9.33682712147199e-03 1.28235866514254e-04
1.21875000000000e+01 9.22221150437892e-03 1.27000813198569e-04
1.22525000000000e+01 9.10900286842737e-03 1.25775865905447e-04
1.23175000000000e+01 8.99718394201002e-03 1.24560980584609e-04
1.23825000000000e+01 8.88673766553973e-03 1.23356112346873e-04
1.24475000000000e+01 8.77764718884688e-03 1.22161215501224e-04
1.25125000000000e+01 8.66989586860862e-03 1.20976243590815e-04
1.25775000000000e+01 8.56346726580971e-03 1.19801149427939e-04
1.26425000000000e+01 8.45834514323448e-03 1.18635885127994e-04
1.27075000000000e+01 8.35451346298964e-03 1.17480402142485e-04
1.27725000000000e+01 8.25195638405745e-03 1.16334651291086e-04
1.28375000000000e+01 8.15065825987897e-03 1.15198582792765e-04
1.29025000000000e+01 8.05060363596691e-03 1.14072146296024e-04
1.29675000000000e+01 7.95177724754787e-03 1.12955290908263e-04
1.30325000000000e+01 7.85416401723343e-03 1.11847965224306e-04
1.30975000000000e+01 7.75774905271994e-03 1.10750117354082e-04
1.31625000000000e+01 7.66251764451641e-03 1.09661694949525e-04
1.32275000000000e+01 7.56845526370044e-03 1.08582645230684e-04
1.32925000000000e+01 7.47554755970157e-03 1.07512915011063e-04
1.33575000000000e+01 7.38378035811193e-03 1.06452450722244e-04
1.34225000000000e+01 7.29313965852369e-03 1.05401198437775e-04
1.34875000000000e+01 7.20361163239314e-03 1.04359103896358e-04
1.35525000000000e+01 7.11518262093090e-03 1.03326112524355e-04
1.36175000000000e+01 7.02783913301814e-03 1.02302169457634e-04
1.36825000000000e+01 6.94156784314823e-03 1.01287219562760e-04
1.37475000000000e+01 6.85635558939383e-03 1.00281207457581e-04
1.38125000000000e+01 6.77218937139878e-03 9.92840775311737e-05
1.38775000000000e+01 6.68905634839474e-03 9.82957739631997e-05
1.39425000000000e+01 6.60694383724216e-03 9.73162407427031e-05
1.40075000000000e+01 6.52583931049525e-03 9.63454216863128e-05
1.40725000000000e+01 6.44573039449074e-03 9.53832604559125e-05
1.41375000000000e+01 6.36660486746013e-03 9.44297005757717e-05
1.42025000000000e+01 6.28845065766508e-03 9.34846854491579e-05
1.42675000000000e+01 6.21125584155565e-03 9.25481583744395e-05
1.43325000000000e+01 6.13500864195123e-03 9.16200625606850e-05
1.43975000000000e+01 6.05969742624376e-03 9.07003411428006e-05
1.44625000000000e+01 5.98531070462299e-03 8.97889371961869e-05
1.45275000000000e+01 5.91183712832356e-03 8.88857937509414e-05
1.45925000000000e+01 5.83926548789357e-03 8.79908538056136e-05
1.46575000000000e+01 5.76758471148442e-03 8.71040603405327e-05
1.47225000000000e+01 5.69678386316164e-03 8.62253563307181e-05
1.47875000000000e+01 5.62685214123648e-03 8.53546847583665e-05
1.48525000000000e+01 5.55777887661791e-03 8.44919886249535e-05
1.49175000000000e+01 5.48955353118495e-03 8.36372109629427e-05
1.49825000000000e+01 5.42216569617885e-03 8.27902948471119e-05
1.50475000000000e+01 5.35560509061519e-03 8.19511834055072e-05
1.51125000000000e+01 5.28986155971529e-03 8.11198198300561e-05
1.51775000000000e+01 5.22492507335695e-03 8.02961473868137e-05
1.52425000000000e+01 5.16078572454427e-03 7.94801094258746e-05
1.53075000000000e+01 5.09743372789613e-03 7.86716493909522e-05
1.53725000000000e+01 5.03485941815335e-03 7.78707108286372e-05
1.54375000000000e+01 4.97305324870406e-03 7.70772373973464e-05
1.55025000000000e+01 4.91200579012726e-03 7.62911728759554e-05
1.55675000000000e+01 4.85170772875421e-03 7.55124611721398e-05
1.56325000000000e+01 4.79214986524751e-03 7.47410463304217e-05
1.56975000000000e+01 4.73332311319760e-03 7.39768725399419e-05
1.57625000000000e+01 4.67521849773649e-03 7.32198841419519e-05
1.58275000000000e+01 4.61782715416856e-03 7.24700256370422e-05
1.58925000000000e+01 4.56114032661802e-03 7.17272416921028e-05
1.59575000000000e+01 4.50514936669321e-03 7.09914771470328e-05
1.60225000000000e+01 4.44984573216705e-03 7.02626770212061e-05
1.60875000000000e+01 4.39522098567386e-03 6.95407865196925e-05
1.61525000000000e+01 4.34126679342211e-03 6.88257510392557e-05
1.62175000000000e+01 4.28797492392296e-03 6.81175161741083e-05
1.62825000000000e+01 4.23533724673446e-03 6.74160277214514e-05
1.63475000000000e+01 4.18334573122110e-03 6.67212316868003e-05
1.64125000000000e+01 4.13199244532864e-03 6.60330742890931e-05
1.64775000000000e+01 4.08126955437397e-03 6.53515019656073e-05
1.65425000000000e+01 4.03116931984978e-03 6.46764613766717e-05
1.66075000000000e+01 3.98168409824397e-03 6.40078994101742e-05
1.66725000000000e+01 3.93280633987355e-03 6.33457631858918e-05
1.67375000000000e+01 3.88452858773274e-03 6.26900000596386e-05
1.68025000000000e+01 3.83684347635538e-03 6.20405576272303e-05
1.68675000000000e+01 3.78974373069119e-03 6.13973837282777e-05
1.69325000000000e+01 3.74322216499584e-03 6.07604264498056e-05
1.69975000000000e+01 3.69727168173471e-03 6.01296341297143e-05
1.70625000000000e+01 3.65188527049998e-03 5.95049553600773e-05
1.71275000000000e+01 3.60705600694119e-03 5.88863389902822e-05
1.71925000000000e+01 3.56277705170875e-03 5.82737341300271e-05
1.72575000000000e+01 3.51904164941053e-03 5.76670901521646e-05
1.73225000000000e+01 3.47584312758123e-03 5.70663566953973e-05
1.73875000000000e+01 3.43317489566440e-03 5.64714836668401e-05
1.74525000000000e+01 3.39103044400694e-03 5.58824212444492e-05
1.75175000000000e+01 3.34940334286598e-03 5.52991198793164e-05
1.75825000000000e+01 3.30828724142791e-03 5.47215302978353e-05
1.76475000000000e+01 3.26767586683950e-03 5.41496035037416e-05
1.77125000000000e+01 3.22756302325085e-03 5.35832907800327e-05
1.77775000000000e+01 3.18794259087015e-03 5.30225436907718e-05
1.78425000000000e+01 3.14880852502999e-03 5.24673140827768e-05
1.79075000000000e+01 3.11015485526522e-03 5.19175540871994e-05
1.79725000000000e+01 3.07197568440199e-03 5.13732161209892e-05
1.80375000000000e+01 3.03426518765809e-03 5.08342528882595e-05
1.81025000000000e+01 2.99701761175433e-03 5.03006173815507e-05
1.81675000000000e+01 2.96022727403671e-03 4.97722628829934e-05
1.82325000000000e+01 2.92388856160954e-03 4.92491429653732e-05
1.82975000000000e+01 2.88799593047905e-03 4.87312114931053e-05
1.83625000000000e+01 2.85254390470759e-03 4.82184226231171e-05
1.84275000000000e+01 2.81752707557821e-03 4.77107308056390e-05
1.84925000000000e+01 2.78294010076949e-03 4.72080907849171e-05
1.85575000000000e+01 2.74877770354044e-03 4.67104575998380e-05
1.86225000000000e+01 2.71503467192551e-03 4.62177865844687e-05
1.86875000000000e+01 2.68170585793943e-03 4.57300333685286e-05
1.87525000000000e+01 2.64878617679176e-03 4.52471538777776e-05
1.88175000000000e+01 2.61627060611118e-03 4.47691043343312e-05
1.88825000000000e+01 2.58415418517925e-03 4.42958412569080e-05
1.89475000000000e+01 2.55243201417356e-03 4.38273214610036e-05
1.90125000000000e+01 2.52109925342020e-03 4.33635020590003e-05
1.90775000000000e+01 2.49015112265540e-03 4.29043404602091e-05
1.91425000000000e+01 2.45958290029625e-03 4.24497943708512e-05
1.92075000000000e+01 2.42938992272032e-03 4.19998217939764e-05
1.92725000000000e+01 2.39956758355417e-03 4.15543810293204e-05
1.93375000000000e+01 2.37011133297061e-03 4.11134306731065e-05
1.94025000000000e+01 2.34101667699449e-03 4.06769296177955e-05
1.94675000000000e+01 2.31227917681718e-03 4.02448370517741e-05
1.95325000000000e+01 2.28389444811926e-03 3.98171124589959e-05
1.95975000000000e+01 2.25585816040172e-03 3.93937156185732e-05
1.96625000000000e+01 2.22816603632519e-03 3.89746066043115e-05
1.97275000000000e+01 2.20081385105747e-03 3.85597457842071e-05
1.97925000000000e+01 2.17379743162889e-03 3.81490938198934e-05
1.98575000000000e+01 2.14711265629568e-03 3.77426116660424e-05
1.99225000000000e+01 2.12075545391120e-03 3.73402605697269e-05
1.99875000000000e+01 2.09472180330472e-03 3.69420020697380e-05
2.00525000000000e+01 2.06900773266803e-03 3.65477979958615e-05
2.01175000000000e+01 2.04360931894945e-03 3.61576104681208e-05
2.01825000000000e+01 2.01852268725528e-03 3.57714018959795e-05
2.02475000000000e+01 1.99374401025867e-03 3.53891349775076e-05
2.03125000000000e+01 1.96926950761571e-03 3.50107726985151e-05
2.03775000000000e+01 1.94509544538863e-03 3.46362783316478e-05
2.04425000000000e+01 1.92121813547621e-03 3.42656154354549e-05
2.05075000000000e+01 1.89763393505104e-03 3.38987478534251e-05
