Energy (eV)          EEDF (eV^-(3/2))     First Anisotropy
1.00294117647059e-01 3.59889252890951e-02 3.25269869651367e-05
3.00882352941176e-01 3.52652485284937e-02 5.33506330965356e-05
5.01470588235294e-01 3.45561236886577e-02 6.94798303074004e-05
7.02058823529412e-01 3.38612581577503e-02 8.11707357084877e-05
9.02647058823529e-01 3.31803652043468e-02 9.04662431227518e-05
1.10323529411765e+00 3.25131638602459e-02 9.81548772397603e-05
1.30382352941176e+00 3.18593788166512e-02 1.04652722296747e-04
1.50441176470588e+00 3.12187402884156e-02 1.10215774000374e-04
1.70500000000000e+00 3.05909839258718e-02 1.15016895040493e-04
1.90558823529412e+00 2.99758506863191e-02 1.19180396142997e-04
2.10617647058824e+00 2.93730867433564e-02 1.22799841224626e-04
2.30676470588235e+00 2.87824433682423e-02 1.25948128596648e-04
2.50735294117647e+00 2.82036768393447e-02 1.28683615330958e-04
2.70794117647059e+00 2.76365483309139e-02 1.31054046992167e-04
2.90852941176471e+00 2.70808238240202e-02 1.33099191501386e-04
3.10911764705882e+00 2.65362740014656e-02 1.34852669117021e-04
3.30970588235294e+00 2.60026741608648e-02 1.36343262322267e-04
3.51029411764706e+00 2.54798041149097e-02 1.37595877925610e-04
3.71088235294118e+00 2.49674481055253e-02 1.38632268667627e-04
3.91147058823529e+00 2.44653947145686e-02 1.39471586237073e-04
4.11205882352941e+00 2.39734367723566e-02 1.40130810690097e-04
4.31264705882353e+00 2.34913712776318e-02 1.40625089908524e-04
4.51323529411765e+00 2.30189993087512e-02 1.40968011261643e-04
4.71382352941176e+00 2.25561259462830e-02 1.41171821528026e-04
4.91441176470588e+00 2.21025601882197e-02 1.41247607018798e-04
5.11500000000000e+00 2.16581148752243e-02 1.41205442411062e-04
5.31558823529412e+00 2.12226066096033e-02 1.41054514969209e-04
5.51617647058824e+00 2.07958556831866e-02 1.40803228946188e-04
5.71676470588235e+00 2.03776859998324e-02 1.40459294113236e-04
5.91735294117647e+00 1.99679250059034e-02 1.40029801236844e-04
6.11794117647059e+00 1.95664036161054e-02 1.39521286952777e-04
6.31852941176471e+00 1.91729561465065e-02 1.38939789753966e-04
6.51911764705882e+00 1.87874202435324e-02 1.38290898678072e-04
6.71970588235294e+00 1.84096368194661e-02 1.37579795769531e-04
6.92029411764706e+00 1.80394499844405e-02 1.36811293429127e-04
7.12088235294118e+00 1.76767069838400e-02 1.35989867056442e-04
7.32147058823529e+00 1.73212581351920e-02 1.35119684428561e-04
7.52205882352941e+00 1.69729567648721e-02 1.34204631347418e-04
7.72264705882353e+00 1.66316591495801e-02 1.33248334715480e-04
7.92323529411765e+00 1.62972244551328e-02 1.32254183181084e-04
8.12382352941176e+00 1.59695146801587e-02 1.31225345638420e-04
8.32441176470588e+00 1.56483945974302e-02 1.30164787928543e-04
8.52500000000000e+00 1.53337316997048e-02 1.29075287891587e-04
8.72558823529412e+00 1.50253961434814e-02 1.27959449036864e-04
8.92617647058823e+00 1.47232606969157e-02 1.26819712926568e-04
9.12676470588235e+00 1.44272006858917e-02 1.25658370483235e-04
9.32735294117647e+00 1.41370939439403e-02 1.24477572279820e-04
9.52794117647059e+00 1.38528207605232e-02 1.23279337981449e-04
9.72852941176471e+00 1.35742638328840e-02 1.22065564972469e-04
9.92911764705882e+00 1.33013082164491e-02 1.20838036424480e-04
1.01297058823529e+01 1.30338412774756e-02 1.19598428117177e-04
1.03302941176471e+01 1.27717526497612e-02 1.18348315692199e-04
1.05308823529412e+01 1.25149341844141e-02 1.17089181278949e-04
1.07314705882353e+01 1.22632799049434e-02 1.15822417913191e-04
1.09320588235294e+01 1.20166859706273e-02 1.14549335646142e-04
1.11326470588235e+01 1.17750506263555e-02 1.13271167281138e-04
1.13332352941176e+01 1.15382741610987e-02 1.11989071382784e-04
1.15338235294118e+01 1.13062588730755e-02 1.10704137346301e-04
1.17344117647059e+01 1.10789090229537e-02 1.09417390106124e-04
1.19350000000000e+01 1.08561307947313e-02 1.08129792402288e-04
1.21355882352941e+01 1.06378322626532e-02 1.06842249182790e-04
1.23361764705882e+01 1.04239233457852e-02 1.05555610672302e-04
1.25367647058824e+01 1.02143157781067e-02 1.04270675132170e-04
1.27373529411765e+01 1.00089230666665e-02 1.02988192583476e-04
1.29379411764706e+01 9.80766045620478e-03 1.01708866207493e-04
1.31385294117647e+01 9.61044489891115e-03 1.00433355482218e-04
1.33391176470588e+01 9.41719501530466e-03 9.91622791165438e-05
1.35397058823529e+01 9.22783106093321e-03 9.78962161004829e-05
1.37402941176471e+01 9.04227489770755e-03 9.66357083675009e-05
1.39408823529412e+01 8.86044995730802e-03 9.53812632879112e-05
1.41414705882353e+01 8.68228120984052e-03 9.41333544501659e-05
1.43420588235294e+01 8.50769513668249e-03 9.28924239363706e-05
1.45426470588235e+01 8.33661969624216e-03 9.16588844568242e-05
1.47432352941176e+01 8.16898429444826e-03 9.04331199232600e-05
1.49438235294118e+01 8.00471975905041e-03 8.92154874050884e-05
1.51444117647059e+01 7.84375830756349e-03 8.80063189687335e-05
1.53450000000000e+01 7.68603351948597e-03 8.68059220888274e-05
1.55455882352941e+01 7.53148031198914e-03 8.56145814703110e-05
1.57461764705882e+01 7.38003490893997e-03 8.44325601153525e-05
1.59467647058824e+01 7.23163481858882e-03 8.32601002654606e-05
1.61473529411765e+01 7.08621880479305e-03 8.20974250079081e-05
1.63479411764706e+01 6.94372686190492e-03 8.09447384838656e-05
1.65485294117647e+01 6.80410019265479e-03 7.98022272344423e-05
1.67491176470588e+01 6.66728118118475e-03 7.86700614699114e-05
1.69497058823529e+01 6.53321336941623e-03 7.75483951944821e-05
1.71502941176471e+01 6.40184143614627e-03 7.64373673849111e-05
1.73508823529412e+01 6.27311117177024e-03 7.53371031016461e-05
1.75514705882353e+01 6.14696945604211e-03 7.42477135484389e-05
1.77520588235294e+01 6.02336423832360e-03 7.31692971075929e-05
1.79526470588235e+01 5.90224451388678e-03 7.21019403165074e-05
1.81532352941176e+01 5.78356030298112e-03 7.10457178763797e-05
1.83538235294118e+01 5.66726263218052e-03 7.00006935638299e-05
1.85544117647059e+01 5.55330351216096e-03 6.89669210921622e-05
1.87550000000000e+01 5.44163591799825e-03 6.79444440803203e-05
1.89555882352941e+01 5.33221377155653e-03 6.69332969418968e-05
1.91561764705882e+01 5.22499192008924e-03 6.59335053089168e-05
1.93567647058824e+01 5.11992611992838e-03 6.49450863918336e-05
1.95573529411765e+01 5.01697301649446e-03 6.39680497804623e-05
1.97579411764706e+01 4.91609012649134e-03 6.30023973616346e-05
1.99585294117647e+01 4.81723582192198e-03 6.20481239796965e-05
2.01591176470588e+01 4.72036931133221e-03 6.11052180611180e-05
2.03597058823529e+01 4.62545062305616e-03 6.01736615129776e-05
2.05602941176471e+01 4.53244059013114e-03 5.92534303102804e-05
2.07608823529412e+01 4.44130083269614e-03 5.83444950509086e-05
2.09614705882353e+01 4.35199374222604e-03 5.74468208399025e-05
2.11620588235294e+01 4.26448246729741e-03 5.65603678124281e-05
2.13626470588235e+01 4.17873089706956e-03 5.56850916279527e-05
2.15632352941176e+01 4.09470364644720e-03 5.48209433442645e-05
2.17638235294118e+01 4.01236604265287e-03 5.39678698835887e-05
2.19644117647059e+01 3.93168410972151e-03 5.31258144735432e-05
2.21650000000000e+01 3.85262455453700e-03 5.22947165140016e-05
2.23655882352941e+01 3.77515475416759e-03 5.14745120479091e-05
2.25661764705882e+01 3.69924274097626e-03 5.06651339349959e-05
2.27667647058824e+01 3.62485719082072e-03 4.98665119890659e-05
2.29673529411765e+01 3.55196740908877e-03 4.90785734075256e-05
2.31679411764706e+01 3.48054331808080e-03 4.83012426294427e-05
2.33685294117647e+01 3.41055544553075e-03 4.75344416822204e-05
2.35691176470588e+01 3.34197491149366e-03 4.67780905095367e-05
2.37697058823529e+01 3.27477341647309e-03 4.60321068281943e-05
2.39702941176471e+01 3.20892323059718e-03 4.52964064388005e-05
2.41708823529412e+01 3.14439718130490e-03 4.45709035192996e-05
2.43714705882353e+01 3.08116864217473e-03 4.38555104820242e-05
2.45720588235294e+01 3.01921152271914e-03 4.31501382522421e-05
2.47726470588235e+01 2.95850025682085e-03 4.24546965312594e-05
2.49732352941176e+01 2.89900979221995e-03 4.17690936547627e-05
2.51738235294118e+01 2.84071558089357e-03 4.10932368425835e-05
2.53744117647059e+01 2.78359356819503e-03 4.04270324348226e-05
2.55750000000000e+01 2.72762018296089e-03 3.97703857523093e-05
2.57755882352941e+01 2.67277232844302e-03 3.91232013568430e-05
2.59761764705882e+01 2.61902737190205e-03 3.84853831179109e-05
2.61767647058824e+01 2.56636313612207e-03 3.78568342573823e-05
2.63773529411765e+01 2.51475788962163e-03 3.72374575888388e-05
2.65779411764706e+01 2.46419033771491e-03 3.66271553816762e-05
2.67785294117647e+01 2.41463961429953e-03 3.60258295492410e-05
2.69791176470588e+01 2.36608527266041e-03 3.54333818265484e-05
2.71797058823529e+01 2.31850727705899e-03 3.48497136380842e-05
2.73802941176471e+01 2.27188599499380e-03 3.42747262670091e-05
2.75808823529412e+01 2.22620218856065e-03 3.37083210147452e-05
2.77814705882353e+01 2.18143700653880e-03 3.31503990727970e-05
2.79820588235294e+01 2.13757197709743e-03 3.26008616749062e-05
2.81826470588235e+01 2.09458899967851e-03 3.20596102404806e-05
2.83832352941176e+01 2.05247033754984e-03 3.15265462506462e-05
2.85838235294118e+01 2.01119861093274e-03 3.10015713850033e-05
2.87844117647059e+01 1.97075678937534e-03 3.04845876506325e-05
2.89850000000000e+01 1.93112818474503e-03 2.99754972624927e-05
2.91855882352941e+01 1.89229644475342e-03 2.94742027904119e-05
2.93861764705882e+01 1.85424554566182e-03 2.89806071784158e-05
2.95867647058824e+01 1.81695978620269e-03 2.84946137503042e-05
2.97873529411765e+01 1.78042378070213e-03 2.80161263455968e-05
2.99879411764706e+01 1.74462245274836e-03 2.75450492065615e-05
3.01885294117647e+01 1.70954102933104e-03 2.70812870816707e-05
3.03891176470588e+01 1.67516503437814e-03 2.66247453230450e-05
3.05897058823529e+01 1.64148028279855e-03 2.61753297780118e-05
3.07902941176471e+01 1.60847287496073e-03 2.57329468822187e-05
3.09908823529412e+01 1.57612919061884e-03 2.52975037471640e-05
3.11914705882353e+01 1.54443588330724e-03 2.48689080562588e-05
3.13920588235294e+01 1.51337987513921e-03 2.44470681485787e-05
3.15926470588235e+01 1.48294835109865e-03 2.40318930975272e-05
3.17932352941176e+01 1.45312875376562e-03 2.36232926113337e-05
3.19938235294118e+01 1.42390877841676e-03 2.32211771083143e-05
3.21944117647059e+01 1.39527636766055e-03 2.28254577875915e-05
3.23950000000000e+01 1.36721970647405e-03 2.24360465339340e-05
3.25955882352941e+01 1.33972721758807e-03 2.20528560014828e-05
3.27961764705882e+01 1.31278755636345e-03 2.16757996125033e-05
3.29967647058824e+01 1.28638960644791e-03 2.13047915473775e-05
3.31973529411765e+01 1.26052247493642e-03 2.09397468223698e-05
3.33979411764706e+01 1.23517548788699e-03 2.05805812010126e-05
3.35985294117647e+01 1.21033818614521e-03 2.02272112509097e-05
3.37991176470588e+01 1.18600032079517e-03 1.98795543969834e-05
3.39997058823529e+01 1.16215184894028e-03 1.95375288369511e-05
3.42002941176471e+01 1.13878292977054e-03 1.92010535923633e-05
3.44008823529412e+01 1.11588392028651e-03 1.88700485563283e-05
3.46014705882353e+01 1.09344537132941e-03 1.85444344129545e-05
3.48020588235294e+01 1.07145802387721e-03 1.82241326831573e-05
3.50026470588235e+01 1.04991280502518e-03 1.79090657674376e-05
3.52032352941176e+01 1.02880082425039e-03 1.75991568691549e-05
3.54038235294118e+01 1.00811336992356e-03 1.72943300355756e-05
3.56044117647059e+01 9.87841905530626e-04 1.69945101962150e-05
3.58050000000000e+01 9.67978066157839e-04 1.66996230897976e-05
3.60055882352941e+01 9.48513655206881e-04 1.64095953118725e-05
3.62061764705882e+01 9.29440640790755e-04 1.61243543054870e-05
3.64067647058824e+01 9.10751152636096e-04 1.58438283462066e-05
3.66073529411765e+01 8.92437478673768e-04 1.55679465864983e-05
3.68079411764706e+01 8.74492061863236e-04 1.52966389882431e-05
3.70085294117647e+01 8.56907497221255e-04 1.50298363534389e-05
3.72091176470588e+01 8.39676528616630e-04 1.47674703527695e-05
3.74097058823529e+01 8.22792045782255e-04 1.45094734614574e-05
3.76102941176471e+01 8.06247081517112e-04 1.42557789867287e-05
3.78108823529412e+01 7.90034808672864e-04 1.40063210932846e-05
3.80114705882353e+01 7.74148537342497e-04 1.37610347423584e-05
3.82120588235294e+01 7.58581712225559e-04 1.35198557162396e-05
3.84126470588235e+01 7.43327909795122e-04 1.32827206409728e-05
3.86132352941177e+01 7.28380835652470e-04 1.30495669284821e-05
3.88138235294118e+01 7.13734322046196e-04 1.28203327984194e-05
3.90144117647059e+01 6.99382325208662e-04 1.25949572983791e-05
3.92150000000000e+01 6.85318922866915e-04 1.23733802489499e-05
3.94155882352941e+01 6.71538311906738e-04 1.21555422704995e-05
3.96161764705882e+01 6.58034805834650e-04 1.19413847716005e-05
3.98167647058824e+01 6.44802832571466e-04 1.17308499337700e-05
4.00173529411765e+01 6.31836932048413e-04 1.15238807365189e-05
4.02179411764706e+01 6.19131753958323e-04 1.13204209068195e-05
4.04185294117647e+01 6.06682055643120e-04 1.11204149351530e-05
4.06191176470588e+01 5.94482699833586e-04 1.09238080902650e-05
4.08197058823529e+01 5.82528652533469e-04 1.07305463712358e-05
4.10202941176471e+01 5.70814981030452e-04 1.05405765217141e-05
4.12208823529412e+01 5.59336851770945e-04 1.03538460429410e-05
4.14214705882353e+01 5.48089528369249e-04 1.01703031483040e-05
4.16220588235294e+01 5.37068369734829e-04 9.98989677592568e-06
4.18226470588235e+01 5.26268828074060e-04 9.81257660014144e-06
4.20232352941176e+01 5.15686447016999e-04 9.63829298841993e-06
4.22238235294118e+01 5.05316859854231e-04 9.46699701245465e-06
4.24244117647059e+01 4.95155787657953e-04 9.29864045826245e-06
4.26250000000000e+01 4.85199037519393e-04 9.13317578535194e-06
4.28255882352941e+01 4.75442500888869e-04 8.97055614146190e-06
4.30261764705882e+01 4.65882151787046e-04 8.81073535134596e-06
4.32267647058824e+01 4.56514045234872e-04 8.65366790314064e-06
4.34273529411765e+01 4.47334315557575e-04 8.49930896219430e-06
4.36279411764706e+01 4.38339174792239e-04 8.34761433363416e-06
4.38285294117647e+01 4.29524911186880e-04 8.19854047023659e-06
4.40291176470588e+01 4.20887887605619e-04 8.05204447951042e-06
4.42297058823529e+01 4.12424540030395e-04 7.90808408824103e-06
4.44302941176471e+01 4.04131376147917e-04 7.76661764935801e-06
4.46308823529412e+01 3.96004973849971e-04 7.62760414806582e-06
4.48314705882353e+01 3.88041979823690e-04 7.49100316826757e-06
4.50320588235294e+01 3.80239108221270e-04 7.35677489852543e-06
4.52326470588235e+01 3.72593139249727e-04 7.22488013734517e-06
4.54332352941177e+01 3.65100917844459e-04 7.09528026138556e-06
4.56338235294118e+01 3.57759352416916e-04 6.96793723059650e-06
4.58344117647059e+01 3.50565413528460e-04 6.84281359275166e-06
4.60350000000000e+01 3.43516132642284e-04 6.71987245335174e-06
4.62355882352941e+01 3.36608600944497e-04 6.59907748342802e-06
4.64361764705882e+01 3.29839968082624e-04 6.48039290972413e-06
4.66367647058824e+01 3.23207441049233e-04 6.36378350328403e-06
4.68373529411765e+01 3.16708282984750e-04 6.24921458680311e-06
4.70379411764706e+01 3.10339812049874e-04 6.13665200709648e-06
4.72385294117647e+01 3.04099400359737e-04 6.02606213848693e-06
4.74391176470588e+01 2.97984472858046e-04 5.91741188571353e-06
4.76397058823529e+01 2.91992506256154e-04 5.81066865787832e-06
4.78402941176471e+01 2.86121028029715e-04 5.70580037129480e-06
4.80408823529412e+01 2.80367615359899e-04 5.60277545188664e-06
4.82414705882353e+01 2.74729894135176e-04 5.50156281053774e-06
4.84420588235294e+01 2.69205538006809e-04 5.40213184545501e-06
4.86426470588235e+01 2.63792267393153e-04 5.30445244411806e-06
4.88432352941176e+01 2.58487848540419e-04 5.20849495996021e-06
4.90438235294118e+01 2.53290092633582e-04 5.11423021429276e-06
4.92444117647059e+01 2.48196854859992e-04 5.02162949786040e-06
4.94450000000000e+01 2.43206033525629e-04 4.93066454878254e-06
4.96455882352941e+01 2.38315569218196e-04 4.84130755641244e-06
4.98461764705882e+01 2.33523443916975e-04 4.75353115319663e-06
5.00467647058824e+01 2.28827680199537e-04 4.66730840547907e-06
5.02473529411765e+01 2.24226340396320e-04 4.58261281715783e-06
5.04479411764706e+01 2.19717525792214e-04 4.49941830953778e-06
5.06485294117647e+01 2.15299375869993e-04 4.41769922234172e-06
5.08491176470588e+01 2.10970067515221e-04 4.33743031442933e-06
5.10497058823529e+01 2.06727814265033e-04 4.25858674474507e-06
5.12502941176471e+01 2.02570865595975e-04 4.18114407305238e-06
5.14508823529412e+01 1.98497506176232e-04 4.10507826039354e-06
5.16514705882353e+01 1.94506055158813e-04 4.03036565107536e-06
5.18520588235294e+01 1.90594865511207e-04 3.95698297315605e-06
5.20526470588235e+01 1.86762323312109e-04 3.88490733868096e-06
5.22532352941177e+01 1.83006847086380e-04 3.81411622665138e-06
5.24538235294118e+01 1.79326887174064e-04 3.74458748329055e-06
5.26544117647059e+01 1.75720925068976e-04 3.67629932208558e-06
5.28550000000000e+01 1.72187472792948e-04 3.60923030768622e-06
5.30555882352941e+01 1.68725072301920e-04 3.54335935756989e-06
5.32561764705882e+01 1.65332294857576e-04 3.47866573551335e-06
5.34567647058824e+01 1.62007740463896e-04 3.41512904436385e-06
5.36573529411765e+01 1.58750037269957e-04 3.35272922763361e-06
5.38579411764706e+01 1.55557841004598e-04 3.29144655481129e-06
5.40585294117647e+01 1.52429834439567e-04 3.23126162118529e-06
5.42591176470588e+01 1.49364726827840e-04 3.17215534748972e-06
5.44597058823529e+01 1.46361253371702e-04 3.11410896602160e-06
5.46602941176471e+01 1.43418174717442e-04 3.05710402033358e-06
5.48608823529412e+01 1.40534276427066e-04 3.00112236476060e-06
5.50614705882353e+01 1.37708368477829e-04 2.94614615129982e-06
5.52620588235294e+01 1.34939284786613e-04 2.89215782918948e-06
5.54626470588235e+01 1.32225882713066e-04 2.83914014433553e-06
5.56632352941176e+01 1.29567042588704e-04 2.78707612691312e-06
5.58638235294118e+01 1.26961667269248e-04 2.73594909084575e-06
5.60644117647059e+01 1.24408681667307e-04 2.68574263314899e-06
5.62650000000000e+01 1.21907032309306e-04 2.63644062221421e-06
5.64655882352941e+01 1.19455686914143e-04 2.58802719829576e-06
5.66661764705882e+01 1.17053633949458e-04 2.54048676839169e-06
5.68667647058824e+01 1.14699882231604e-04 2.49380400065799e-06
5.70673529411765e+01 1.12393460503666e-04 2.44796382489232e-06
5.72679411764706e+01 1.10133417035177e-04 2.40295142185563e-06
5.74685294117647e+01 1.07918819241274e-04 2.35875222256688e-06
5.76691176470588e+01 1.05748753285802e-04 2.31535190749106e-06
5.78697058823529e+01 1.03622323704690e-04 2.27273639645042e-06
5.80702941176471e+01 1.01538653047501e-04 2.23089184786895e-06
5.82708823529412e+01 9.94968815041201e-05 2.18980465791675e-06
5.84714705882353e+01 9.74961665503980e-05 2.14946145097904e-06
5.86720588235294e+01 9.55356826107754e-05 2.10984907885896e-06
5.88726470588235e+01 9.36146207071590e-05 2.07095461988857e-06
5.90732352941177e+01 9.17321881255044e-05 2.03276536992567e-06
5.92738235294118e+01 8.98876080982876e-05 1.99526884152188e-06
5.94744117647059e+01 8.80801194742444e-05 1.95845276300960e-06
5.96750000000000e+01 8.63089764046577e-05 1.92230506999725e-06
5.98755882352941e+01 8.45734480445075e-05 1.88681390526214e-06
6.00761764705882e+01 8.28728182390348e-05 1.85196761479958e-06
6.02767647058824e+01 8.12063852398212e-05 1.81775474356064e-06
6.04773529411765e+01 7.95734614065562e-05 1.78416403537236e-06
6.06779411764706e+01 7.79733729236158e-05 1.75118442519204e-06
6.08785294117647e+01 7.64054595299573e-05 1.71880503822775e-06
6.10791176470588e+01 7.48690742386012e-05 1.68701518899521e-06
6.12797058823529e+01 7.33635830699648e-05 1.65580437400211e-06
6.14802941176471e+01 7.18883647976472e-05 1.62516227085991e-06
6.16808823529412e+01 7.04428106845728e-05 1.59507873733619e-06
6.18814705882353e+01 6.90263242320892e-05 1.56554380444564e-06
6.20820588235294e+01 6.76383209407087e-05 1.53654767555747e-06
6.22826470588235e+01 6.62782280619246e-05 1.50808072544825e-06
6.24832352941176e+01 6.49454843621378e-05 1.48013349377752e-06
6.26838235294118e+01 6.36395398974783e-05 1.45269668419393e-06
6.28844117647059e+01 6.23598557803625e-05 1.42576116339359e-06
6.30850000000000e+01 6.11059039573707e-05 1.39931795495856e-06
6.32855882352941e+01 5.98771669973229e-05 1.37335823898324e-06
