Energy (eV)          EEDF (eV^-(3/2))     First Anisotropy
6.25000000000000e-02 4.37852863340673e-02 3.34080438998687e-05
1.87500000000000e-01 4.31594182005066e-02 5.49566561127732e-05
3.12500000000000e-01 4.25424962439411e-02 7.19960695654907e-05
4.37500000000000e-01 4.19343925874487e-02 8.46094433602224e-05
5.62500000000000e-01 4.13349811819937e-02 9.48582759295445e-05
6.87500000000000e-01 4.07441377802907e-02 1.03530872156842e-04
8.12500000000000e-01 4.01617399110489e-02 1.11039586293258e-04
9.37500000000000e-01 3.95876668535860e-02 1.17636034613802e-04
1.06250000000000e+00 3.90217996128045e-02 1.23488802038937e-04
1.18750000000000e+00 3.84640208945261e-02 1.28718235997776e-04
1.31250000000000e+00 3.79142150811793e-02 1.33414298381892e-04
1.43750000000000e+00 3.73722682078332e-02 1.37646637525254e-04
1.56250000000000e+00 3.68380679385748e-02 1.41470685598407e-04
1.68750000000000e+00 3.63115035432241e-02 1.44931556916220e-04
1.81250000000000e+00 3.57924658743812e-02 1.48066651468286e-04
1.93750000000000e+00 3.52808473448026e-02 1.50907457043729e-04
2.06250000000000e+00 3.47765419050996e-02 1.53480834495289e-04
2.18750000000000e+00 3.42794450217566e-02 1.55809957956857e-04
2.31250000000000e+00 3.37894536554631e-02 1.57915017844839e-04
2.43750000000000e+00 3.33064662397555e-02 1.59813756587763e-04
2.56250000000000e+00 3.28303826599640e-02 1.61521883767385e-04
2.68750000000000e+00 3.23611042324608e-02 1.63053402616378e-04
2.81250000000000e+00 3.18985336842048e-02 1.64420870219020e-04
2.93750000000000e+00 3.14425751325783e-02 1.65635607355697e-04
3.06250000000000e+00 3.09931340655128e-02 1.66707869563658e-04
3.18750000000000e+00 3.05501173218976e-02 1.67646987948898e-04
3.31250000000000e+00 3.01134330722699e-02 1.68461486134441e-04
3.43750000000000e+00 2.96829907997798e-02 1.69159178184657e-04
3.56250000000000e+00 2.92587012814278e-02 1.69747251217751e-04
3.68750000000000e+00 2.88404765695704e-02 1.70232335584987e-04
3.81250000000000e+00 2.84282299736905e-02 1.70620564871376e-04
3.93750000000000e+00 2.80218760424273e-02 1.70917627500534e-04
4.06250000000000e+00 2.76213305458647e-02 1.71128811365320e-04
4.18750000000000e+00 2.72265104580711e-02 1.71259042627135e-04
4.31250000000000e+00 2.68373339398899e-02 1.71312919609565e-04
4.43750000000000e+00 2.64537203219761e-02 1.71294742541371e-04
4.56250000000000e+00 2.60755900880741e-02 1.71208539768711e-04
4.68750000000000e+00 2.57028648585364e-02 1.71058090948675e-04
4.81250000000000e+00 2.53354673740762e-02 1.70846947649615e-04
4.93750000000000e+00 2.49733214797531e-02 1.70578451713706e-04
5.06250000000000e+00 2.46163521091878e-02 1.70255751680263e-04
5.18750000000000e+00 2.42644852690018e-02 1.69881817521683e-04
5.31250000000000e+00 2.39176480234800e-02 1.69459453905613e-04
5.43750000000000e+00 2.35757684794527e-02 1.68991312165150e-04
5.56250000000000e+00 2.32387757713932e-02 1.68479901132549e-04
5.68750000000000e+00 2.29066000467284e-02 1.67927596969957e-04
5.81250000000000e+00 2.25791724513602e-02 1.67336652112170e-04
5.93750000000000e+00 2.22564251153928e-02 1.66709203420904e-04
6.06250000000000e+00 2.19382911390647e-02 1.66047279636890e-04
6.18750000000000e+00 2.16247045788812e-02 1.65352808204946e-04
6.31250000000000e+00 2.13156004339463e-02 1.64627621537699e-04
6.43750000000000e+00 2.10109146324883e-02 1.63873462775444e-04
6.56250000000000e+00 2.07105840185793e-02 1.63091991092665e-04
6.68750000000000e+00 2.04145463390441e-02 1.62284786595754e-04
6.81250000000000e+00 2.01227402305562e-02 1.61453354851229e-04
6.93750000000000e+00 1.98351052069181e-02 1.60599131079279e-04
7.06250000000000e+00 1.95515816465239e-02 1.59723484043584e-04
7.18750000000000e+00 1.92721107800004e-02 1.58827719664898e-04
7.31250000000000e+00 1.89966346780258e-02 1.57913084382934e-04
7.43750000000000e+00 1.87250962393215e-02 1.56980768288539e-04
7.56250000000000e+00 1.84574391788161e-02 1.56031908045762e-04
7.68750000000000e+00 1.81936080159790e-02 1.55067589621493e-04
7.81250000000000e+00 1.79335480633195e-02 1.54088850838546e-04
7.93750000000000e+00 1.76772054150516e-02 1.53096683766461e-04
8.06250000000000e+00 1.74245269359202e-02 1.52092036962971e-04
8.18750000000000e+00 1.71754602501869e-02 1.51075817577805e-04
8.31250000000000e+00 1.69299537307739e-02 1.50048893329415e-04
8.43750000000000e+00 1.66879564885619e-02 1.49012094364221e-04
8.56250000000000e+00 1.64494183618424e-02 1.47966215007123e-04
8.68750000000000e+00 1.62142899059199e-02 1.46912015411215e-04
8.81250000000000e+00 1.59825223828625e-02 1.45850223113985e-04
8.93750000000000e+00 1.57540677513998e-02 1.44781534506581e-04
9.06250000000000e+00 1.55288786569648e-02 1.43706616222217e-04
9.18750000000000e+00 1.53069084218779e-02 1.42626106449307e-04
9.31250000000000e+00 1.50881110356717e-02 1.41540616174357e-04
9.43750000000000e+00 1.48724411455535e-02 1.40450730359301e-04
9.56250000000000e+00 1.46598540470051e-02 1.39357009057616e-04
9.68750000000000e+00 1.44503056745157e-02 1.38259988473133e-04
9.81250000000000e+00 1.42437525924481e-02 1.37160181965212e-04
9.93750000000000e+00 1.40401519860355e-02 1.36058081003644e-04
1.00625000000000e+01 1.38394616525066e-02 1.34954156076378e-04
1.01875000000000e+01 1.36416399923377e-02 1.33848857552972e-04
1.03125000000000e+01 1.34466460006297e-02 1.32742616506435e-04
1.04375000000000e+01 1.32544392586090e-02 1.31635845495892e-04
1.05625000000000e+01 1.30649799252489e-02 1.30528939312414e-04
1.06875000000000e+01 1.28782287290116e-02 1.29422275690119e-04
1.08125000000000e+01 1.26941469597075e-02 1.28316215984539e-04
1.09375000000000e+01 1.25126964604720e-02 1.27211105820066e-04
1.10625000000000e+01 1.23338396198555e-02 1.26107275708240e-04
1.11875000000000e+01 1.21575393640276e-02 1.25005041638448e-04
1.13125000000000e+01 1.19837591490923e-02 1.23904705642545e-04
1.14375000000000e+01 1.18124629535131e-02 1.22806556334792e-04
1.15625000000000e+01 1.16436152706464e-02 1.21710869428419e-04
1.16875000000000e+01 1.14771811013815e-02 1.20617908230036e-04
1.18125000000000e+01 1.13131259468861e-02 1.19527924113028e-04
1.19375000000000e+01 1.11514158014551e-02 1.18441156971026e-04
1.20625000000000e+01 1.09920171454620e-02 1.17357835652457e-04
1.21875000000000e+01 1.08348969384106e-02 1.16278178377105e-04
1.23125000000000e+01 1.06800226120868e-02 1.15202393135585e-04
1.24375000000000e+01 1.05273620638073e-02 1.14130678072561e-04
1.25625000000000e+01 1.03768836497655e-02 1.13063221854509e-04
1.26875000000000e+01 1.02285561784722e-02 1.12000204022739e-04
1.28125000000000e+01 1.00823489042904e-02 1.10941795332385e-04
1.29375000000000e+01 9.93823152106195e-03 1.09888158078036e-04
1.30625000000000e+01 9.79617415582594e-03 1.08839446406614e-04
1.31875000000000e+01 9.65614736262632e-03 1.07795806618076e-04
1.33125000000000e+01 9.51812211640839e-03 1.06757377454522e-04
1.34375000000000e+01 9.38206980700243e-03 1.05724290378206e-04
1.35625000000000e+01 9.24796223319330e-03 1.04696669838954e-04
1.36875000000000e+01 9.11577159687483e-03 1.03674633531468e-04
1.38125000000000e+01 8.98547049728777e-03 1.02658292642938e-04
1.39375000000000e+01 8.85703192534010e-03 1.01647752091406e-04
1.40625000000000e+01 8.73042925800855e-03 1.00643110755260e-04
1.41875000000000e+01 8.60563625282010e-03 9.96444616942648e-05
1.43125000000000e+01 8.48262704241238e-03 9.86518923624374e-05
1.44375000000000e+01 8.36137612917183e-03 9.76654848131669e-05
1.45625000000000e+01 8.24185837994854e-03 9.66853158968730e-05
1.46875000000000e+01 8.12404902084653e-03 9.57114574515038e-05
1.48125000000000e+01 8.00792363208861e-03 9.47439764861830e-05
1.49375000000000e+01 7.89345814295458e-03 9.37829353582704e-05
1.50625000000000e+01 7.78062882679180e-03 9.28283919441199e-05
1.51875000000000e+01 7.66941229609709e-03 9.18803998037650e-05
1.53125000000000e+01 7.55978549766890e-03 9.09390083397880e-05
1.54375000000000e+01 7.45172570782881e-03 9.00042629505992e-05
1.55625000000000e+01 7.34521052771129e-03 8.90762051783361e-05
1.56875000000000e+01 7.24021787862086e-03 8.81548728516082e-05
1.58125000000000e+01 7.13672599745551e-03 8.72403002232685e-05
1.59375000000000e+01 7.03471343219567e-03 8.63325181034076e-05
1.60625000000000e+01 6.93415903745752e-03 8.54315539877676e-05
1.61875000000000e+01 6.83504197010997e-03 8.45374321817257e-05
1.63125000000000e+01 6.73734168495426e-03 8.36501739200189e-05
1.64375000000000e+01 6.64103793046525e-03 8.27697974823908e-05
1.65625000000000e+01 6.54611074459372e-03 8.18963183052799e-05
1.66875000000000e+01 6.45254045062851e-03 8.10297490897128e-05
1.68125000000000e+01 6.36030765311797e-03 8.01700999055395e-05
1.69375000000000e+01 6.26939323384957e-03 7.93173782921453e-05
1.70625000000000e+01 6.17977834788705e-03 7.84715893557637e-05
1.71875000000000e+01 6.09144441966423e-03 7.76327358635090e-05
1.73125000000000e+01 6.00437313913459e-03 7.68008183342560e-05
1.74375000000000e+01 5.91854645797591e-03 7.59758351264629e-05
1.75625000000000e+01 5.83394658584926e-03 7.51577825230687e-05
1.76875000000000e+01 5.75055598671129e-03 7.43466548135525e-05
1.78125000000000e+01 5.66835737517934e-03 7.35424443732473e-05
1.79375000000000e+01 5.58733371294854e-03 7.27451417400213e-05
1.80625000000000e+01 5.50746820526001e-03 7.19547356884146e-05
1.81875000000000e+01 5.42874429741965e-03 7.11712133013065e-05
1.83125000000000e+01 5.35114567136661e-03 7.03945600392113e-05
1.84375000000000e+01 5.27465624229090e-03 6.96247598072770e-05
1.85625000000000e+01 5.19926015529922e-03 6.88617950200624e-05
1.86875000000000e+01 5.12494178212860e-03 6.81056466641852e-05
1.88125000000000e+01 5.05168571790690e-03 6.73562943588921e-05
1.89375000000000e+01 4.97947677795965e-03 6.66137164146276e-05
1.90625000000000e+01 4.90829999466258e-03 6.58778898896716e-05
1.91875000000000e+01 4.83814061433904e-03 6.51487906449121e-05
1.93125000000000e+01 4.76898409420186e-03 6.44263933968074e-05
1.94375000000000e+01 4.70081609933890e-03 6.37106717686028e-05
1.95625000000000e+01 4.63362249974165e-03 6.30015983398559e-05
1.96875000000000e+01 4.56738936737634e-03 6.22991446943327e-05
1.98125000000000e+01 4.50210297329694e-03 6.16032814663192e-05
1.99375000000000e+01 4.43774978479934e-03 6.09139783854080e-05
2.00625000000000e+01 4.37431646261630e-03 6.02312043198048e-05
2.01875000000000e+01 4.31178985815245e-03 5.95549273182017e-05
2.03125000000000e+01 4.25015701075879e-03 5.88851146502646e-05
2.04375000000000e+01 4.18940514504626e-03 5.82217328457840e-05
2.05625000000000e+01 4.12952166823752e-03 5.75647477325310e-05
2.06875000000000e+01 4.07049416755679e-03 5.69141244728501e-05
2.08125000000000e+01 4.01231040765684e-03 5.62698275990426e-05
2.09375000000000e+01 3.95495832808285e-03 5.56318210475679e-05
2.10625000000000e+01 3.89842604077249e-03 5.50000681921114e-05
2.11875000000000e+01 3.84270182759172e-03 5.43745318755413e-05
2.13125000000000e+01 3.78777413790585e-03 5.37551744408039e-05
2.14375000000000e+01 3.73363158618530e-03 5.31419577607832e-05
2.15625000000000e+01 3.68026294964556e-03 5.25348432671528e-05
2.16875000000000e+01 3.62765716592094e-03 5.19337919782609e-05
2.18125000000000e+01 3.57580333077149e-03 5.13387645260746e-05
2.19375000000000e+01 3.52469069582282e-03 5.07497211822144e-05
2.20625000000000e+01 3.47430866633807e-03 5.01666218831016e-05
2.21875000000000e+01 3.42464679902189e-03 4.95894262542539e-05
2.23125000000000e+01 3.37569479985565e-03 4.90180936337531e-05
2.24375000000000e+01 3.32744252196375e-03 4.84525830949090e-05
2.25625000000000e+01 3.27987996351031e-03 4.78928534681448e-05
2.26875000000000e+01 3.23299726562597e-03 4.73388633621284e-05
2.28125000000000e+01 3.18678471036434e-03 4.67905711841716e-05
2.29375000000000e+01 3.14123271868763e-03 4.62479351599255e-05
2.30625000000000e+01 3.09633184848108e-03 4.57109133523893e-05
2.31875000000000e+01 3.05207279259580e-03 4.51794636802472e-05
2.33125000000000e+01 3.00844637691956e-03 4.46535439355679e-05
2.34375000000000e+01 2.96544355847514e-03 4.41331118008779e-05
2.35625000000000e+01 2.92305542354588e-03 4.36181248656247e-05
2.36875000000000e+01 2.88127318582807e-03 4.31085406420600e-05
2.38125000000000e+01 2.84008818460965e-03 4.26043165805483e-05
2.39375000000000e+01 2.79949188297506e-03 4.21054100843223e-05
2.40625000000000e+01 2.75947586603561e-03 4.16117785237114e-05
2.41875000000000e+01 2.72003183918531e-03 4.11233792498455e-05
2.43125000000000e+01 2.68115162638148e-03 4.06401696078561e-05
2.44375000000000e+01 2.64282716845004e-03 4.01621069495936e-05
2.45625000000000e+01 2.60505052141496e-03 3.96891486458675e-05
2.46875000000000e+01 2.56781385485164e-03 3.92212520982359e-05
2.48125000000000e+01 2.53110945026380e-03 3.87583747503434e-05
2.49375000000000e+01 2.49492969948356e-03 3.83004740988323e-05
2.50625000000000e+01 2.45926710309441e-03 3.78475077038371e-05
2.51875000000000e+01 2.42411426887670e-03 3.73994331990734e-05
2.53125000000000e+01 2.38946391027540e-03 3.69562083015349e-05
2.54375000000000e+01 2.35530884488969e-03 3.65177908208088e-05
2.55625000000000e+01 2.32164199298421e-03 3.60841386680268e-05
2.56875000000000e+01 2.28845637602152e-03 3.56552098644553e-05
2.58125000000000e+01 2.25574511521560e-03 3.52309625497392e-05
2.59375000000000e+01 2.22350143010600e-03 3.48113549898119e-05
2.60625000000000e+01 2.19171863715235e-03 3.43963455844797e-05
2.61875000000000e+01 2.16039014834903e-03 3.39858928746885e-05
2.63125000000000e+01 2.12950946985952e-03 3.35799555494886e-05
2.64375000000000e+01 2.09907020067041e-03 3.31784924527000e-05
2.65625000000000e+01 2.06906603126455e-03 3.27814625892909e-05
2.66875000000000e+01 2.03949074231321e-03 3.23888251314817e-05
2.68125000000000e+01 2.01033820338693e-03 3.20005394245726e-05
2.69375000000000e+01 1.98160237168477e-03 3.16165649925148e-05
2.70625000000000e+01 1.95327729078176e-03 3.12368615432277e-05
2.71875000000000e+01 1.92535708939426e-03 3.08613889736685e-05
2.73125000000000e+01 1.89783598016289e-03 3.04901073746664e-05
2.74375000000000e+01 1.87070825845298e-03 3.01229770355241e-05
2.75625000000000e+01 1.84396830117207e-03 2.97599584483983e-05
2.76875000000000e+01 1.81761056560433e-03 2.94010123124633e-05
2.78125000000000e+01 1.79162958826167e-03 2.90460995378640e-05
2.79375000000000e+01 1.76601998375126e-03 2.86951812494671e-05
2.80625000000000e+01 1.74077644365923e-03 2.83482187904141e-05
2.81875000000000e+01 1.71589373545033e-03 2.80051737254852e-05
2.83125000000000e+01 1.69136670138331e-03 2.76660078442809e-05
2.84375000000000e+01 1.66719025744184e-03 2.73306831642209e-05
2.85625000000000e+01 1.64335939228063e-03 2.69991619333722e-05
2.86875000000000e+01 1.61986916618674e-03 2.66714066331111e-05
2.88125000000000e+01 1.59671471005560e-03 2.63473799806211e-05
2.89375000000000e+01 1.57389122438179e-03 2.60270449312351e-05
2.90625000000000e+01 1.55139397826412e-03 2.57103646806253e-05
2.91875000000000e+01 1.52921830842506e-03 2.53973026668477e-05
2.93125000000000e+01 1.50735961824411e-03 2.50878225722427e-05
2.94375000000000e+01 1.48581337680497e-03 2.47818883251983e-05
2.95625000000000e+01 1.46457511795640e-03 2.44794641017819e-05
2.96875000000000e+01 1.44364043938647e-03 2.41805143272422e-05
2.98125000000000e+01 1.42300500170998e-03 2.38850036773861e-05
2.99375000000000e+01 1.40266452756907e-03 2.35928970798371e-05
3.00625000000000e+01 1.38261480074653e-03 2.33041597151768e-05
3.01875000000000e+01 1.36285166529189e-03 2.30187570179742e-05
3.03125000000000e+01 1.34337102465995e-03 2.27366546777019e-05
3.04375000000000e+01 1.32416884086165e-03 2.24578186395560e-05
3.05625000000000e+01 1.30524113362704e-03 2.21822151051677e-05
3.06875000000000e+01 1.28658397958030e-03 2.19098105332180e-05
3.08125000000000e+01 1.26819351142641e-03 2.16405716399593e-05
3.09375000000000e+01 1.25006591714962e-03 2.13744653996452e-05
3.10625000000000e+01 1.23219743922322e-03 2.11114590448726e-05
3.11875000000000e+01 1.21458437383069e-03 2.08515200668349e-05
3.13125000000000e+01 1.19722307009798e-03 2.05946162154985e-05
3.14375000000000e+01 1.18010992933673e-03 2.03407154996964e-05
3.15625000000000e+01 1.16324140429833e-03 2.00897861871461e-05
3.16875000000000e+01 1.14661399843867e-03 1.98417968043933e-05
3.18125000000000e+01 1.13022426519330e-03 1.95967161366856e-05
3.19375000000000e+01 1.11406880726310e-03 1.93545132277779e-05
3.20625000000000e+01 1.09814427591001e-03 1.91151573796688e-05
3.21875000000000e+01 1.08244737026295e-03 1.88786181522769e-05
3.23125000000000e+01 1.06697483663357e-03 1.86448653630545e-05
3.24375000000000e+01 1.05172346784185e-03 1.84138690865415e-05
3.25625000000000e+01 1.03669010255127e-03 1.81855996538634e-05
3.26875000000000e+01 1.02187162461357e-03 1.79600276521744e-05
3.28125000000000e+01 1.00726496242278e-03 1.77371239240486e-05
3.29375000000000e+01 9.92867088278564e-04 1.75168595668195e-05
3.30625000000000e+01 9.78675017758627e-04 1.72992059318716e-05
3.31875000000000e+01 9.64685809100081e-04 1.70841346238867e-05
3.33125000000000e+01 9.50896562589686e-04 1.68716175000431e-05
3.34375000000000e+01 9.37304419962784e-04 1.66616266691732e-05
3.35625000000000e+01 9.23906563810835e-04 1.64541344908801e-05
3.36875000000000e+01 9.10700216997415e-04 1.62491135746147e-05
3.38125000000000e+01 8.97682642082571e-04 1.60465367787141e-05
3.39375000000000e+01 8.84851140755391e-04 1.58463772094046e-05
3.40625000000000e+01 8.72203053274698e-04 1.56486082197698e-05
3.41875000000000e+01 8.59735757917733e-04 1.54532034086852e-05
3.43125000000000e+01 8.47446670436713e-04 1.52601366197218e-05
3.44375000000000e+01 8.35333243523171e-04 1.50693819400194e-05
3.45625000000000e+01 8.23392966279936e-04 1.48809136991299e-05
3.46875000000000e+01 8.11623363700677e-04 1.46947064678343e-05
3.48125000000000e+01 8.00021996156870e-04 1.45107350569334e-05
3.49375000000000e+01 7.88586458892115e-04 1.43289745160123e-05
3.50625000000000e+01 7.77314381523664e-04 1.41494001321820e-05
3.51875000000000e+01 7.66203427551091e-04 1.39719874287988e-05
3.53125000000000e+01 7.55251293871974e-04 1.37967121641615e-05
3.54375000000000e+01 7.44455710304501e-04 1.36235503301885e-05
3.55625000000000e+01 7.33814439116905e-04 1.34524781510755e-05
3.56875000000000e+01 7.23325274563619e-04 1.32834720819357e-05
3.58125000000000e+01 7.12986042428069e-04 1.31165088074216e-05
3.59375000000000e+01 7.02794599571992e-04 1.29515652403315e-05
3.60625000000000e+01 6.92748833491206e-04 1.27886185202009e-05
3.61875000000000e+01 6.82846661877725e-04 1.26276460118787e-05
3.63125000000000e+01 6.73086032188131e-04 1.24686253040903e-05
3.64375000000000e+01 6.63464921218121e-04 1.23115342079890e-05
3.65625000000000e+01 6.53981334683132e-04 1.21563507556942e-05
3.66875000000000e+01 6.44633306804962e-04 1.20030531988194e-05
3.68125000000000e+01 6.35418899904298e-04 1.18516200069900e-05
3.69375000000000e+01 6.26336203999071e-04 1.17020298663525e-05
3.70625000000000e+01 6.17383336408550e-04 1.15542616780735e-05
3.71875000000000e+01 6.08558441363095e-04 1.14082945568320e-05
3.73125000000000e+01 5.99859689619494e-04 1.12641078293042e-05
3.74375000000000e+01 5.91285278081785e-04 1.11216810326413e-05
3.75625000000000e+01 5.82833429427514e-04 1.09809939129420e-05
3.76875000000000e+01 5.74502391739324e-04 1.08420264237191e-05
3.78125000000000e+01 5.66290438141815e-04 1.07047587243622e-05
3.79375000000000e+01 5.58195866443595e-04 1.05691711785958e-05
3.80625000000000e+01 5.50216998784440e-04 1.04352443529336e-05
3.81875000000000e+01 5.42352181287513e-04 1.03029590151305e-05
3.83125000000000e+01 5.34599783716536e-04 1.01722961326317e-05
3.84375000000000e+01 5.26958199137876e-04 1.00432368710199e-05
3.85625000000000e+01 5.19425843587457e-04 9.91576259246122e-06
3.86875000000000e+01 5.12001155742428e-04 9.78985485415017e-06
3.88125000000000e+01 5.04682596597534e-04 9.66549540675425e-06
3.89375000000000e+01 4.97468649146103e-04 9.54266619285756e-06
3.90625000000000e+01 4.90357818065601e-04 9.42134934540592e-06
3.91875000000000e+01 4.83348629407676e-04 9.30152718615281e-06
3.93125000000000e+01 4.76439630292636e-04 9.18318222410547e-06
3.94375000000000e+01 4.69629388608294e-04 9.06629715397288e-06
