Energy (eV)          EEDF (eV^-(3/2))     First Anisotropy
2.56896551724138e-03 1.40149354405842e+00 6.80864218042716e-04
7.70689655172414e-03 1.39318134548167e+00 1.12474744002764e-03
1.28448275862069e-02 1.38491844615305e+00 1.48597896960249e-03
1.79827586206897e-02 1.37670455376928e+00 1.76113186097714e-03
2.31206896551724e-02 1.36853937764226e+00 1.99121165200594e-03
2.82586206896552e-02 1.36042262880501e+00 2.19170062914977e-03
3.33965517241379e-02 1.35235402007119e+00 2.37060041526895e-03
3.85344827586207e-02 1.34433326591894e+00 2.53273679236391e-03
4.36724137931035e-02 1.33636008250521e+00 2.68130625966785e-03
4.88103448275862e-02 1.32843418770966e+00 2.81856519900104e-03
5.39482758620690e-02 1.32055530106352e+00 2.94618181307620e-03
5.90862068965517e-02 1.31272314374970e+00 3.06543376039707e-03
6.42241379310345e-02 1.30493743863226e+00 3.17732726155078e-03
6.93620689655172e-02 1.29719791020416e+00 3.28267290156020e-03
7.45000000000000e-02 1.28950428458289e+00 3.38213601472187e-03
7.96379310344828e-02 1.28185628953132e+00 3.47627140955044e-03
8.47758620689655e-02 1.27425365440693e+00 3.56554801557202e-03
8.99137931034483e-02 1.26669611019134e+00 3.65036682888130e-03
9.50517241379310e-02 1.25918338945173e+00 3.73107427174493e-03
1.00189655172414e-01 1.25171522633421e+00 3.80797231861747e-03
1.05327586206897e-01 1.24429135655533e+00 3.88132630234595e-03
1.10465517241379e-01 1.23691151743589e+00 3.95137103514297e-03
1.15603448275862e-01 1.22957544783154e+00 4.01831565932373e-03
1.20741379310345e-01 1.22228288814684e+00 4.08234753010508e-03
1.25879310344828e-01 1.21503358032602e+00 4.14363537367741e-03
1.31017241379310e-01 1.20782726784389e+00 4.20233187115382e-03
1.36155172413793e-01 1.20066369569671e+00 4.25857579346663e-03
1.41293103448276e-01 1.19354261039318e+00 4.31249377957838e-03
1.46431034482759e-01 1.18646375994547e+00 4.36420182866257e-03
1.51568965517241e-01 1.17942689386030e+00 4.41380656089530e-03
1.56706896551724e-01 1.17243176312998e+00 4.46140628948325e-03
1.61844827586207e-01 1.16547812022381e+00 4.50709193763168e-03
1.66982758620690e-01 1.15856571907915e+00 4.55094782720028e-03
1.72120689655172e-01 1.15169431509278e+00 4.59305236043119e-03
1.77258620689655e-01 1.14486366511223e+00 4.63347861211877e-03
1.82396551724138e-01 1.13807352742713e+00 4.67229484628984e-03
1.87534482758621e-01 1.13132366176072e+00 4.70956496892534e-03
1.92672413793103e-01 1.12461382926131e+00 4.74534892622024e-03
1.97810344827586e-01 1.11794379249382e+00 4.77970305624815e-03
2.02948275862069e-01 1.11131331543141e+00 4.81268040058020e-03
2.08086206896552e-01 1.10472216344711e+00 4.84433098134709e-03
2.13224137931034e-01 1.09817010330549e+00 4.87470204836037e-03
2.18362068965517e-01 1.09165690315446e+00 4.90383830018771e-03
2.23500000000000e-01 1.08518233251704e+00 4.93178208759405e-03
2.28637931034483e-01 1.07874616225564e+00 4.95857357656767e-03
2.33775862068966e-01 1.07234816464758e+00 4.98425091965343e-03
2.38913793103448e-01 1.06598811329240e+00 5.00885041183702e-03
2.44051724137931e-01 1.05966578313242e+00 5.03240660672123e-03
2.49189655172414e-01 1.05338095044478e+00 5.05495244162018e-03
2.54327586206897e-01 1.04713339283351e+00 5.07651934662883e-03
2.59465517241379e-01 1.04092288922166e+00 5.09713734411859e-03
2.64603448275862e-01 1.03474921984349e+00 5.11683513968124e-03
2.69741379310345e-01 1.02861216623667e+00 5.13564020541507e-03
2.74879310344828e-01 1.02251151123459e+00 5.15357885633601e-03
2.80017241379310e-01 1.01644703895861e+00 5.17067632060491e-03
2.85155172413793e-01 1.01041853481050e+00 5.18695680418178e-03
2.90293103448276e-01 1.00442578546479e+00 5.20244355044630e-03
2.95431034482759e-01 9.98468578861214e-01 5.21715889526037e-03
3.00568965517241e-01 9.92546704197259e-01 5.23112431790408e-03
3.05706896551724e-01 9.86659951920645e-01 5.24436048824799e-03
3.10844827586207e-01 9.80808113721958e-01 5.25688731051905e-03
3.15982758620690e-01 9.74990982527259e-01 5.26872396396205e-03
3.21120689655172e-01 9.69208352490759e-01 5.27988894064710e-03
3.26258620689655e-01 9.63460018987532e-01 5.29040008068429e-03
3.31396551724138e-01 9.57745778606275e-01 5.30027460505917e-03
3.36534482758621e-01 9.52065429142109e-01 5.30952914628644e-03
3.41672413793103e-01 9.46418769589427e-01 5.31817977705984e-03
3.46810344827586e-01 9.40805600134777e-01 5.32624203705850e-03
3.51948275862069e-01 9.35225722149792e-01 5.33373095805669e-03
3.57086206896552e-01 9.29678938184165e-01 5.34066108746849e-03
3.62224137931034e-01 9.24165051958657e-01 5.34704651044771e-03
3.67362068965517e-01 9.18683868358153e-01 5.35290087065147e-03
3.72500000000000e-01 9.13235193424761e-01 5.35823739309571e-03
3.77637931034483e-01 9.07818834336980e-01 5.36306889248848e-03
3.82775862068966e-01 9.02434599445133e-01 5.36740779729903e-03
3.87913793103448e-01 8.97082298221959e-01 5.37126617286370e-03
3.93051724137931e-01 8.91761741270206e-01 5.37465572656647e-03
3.98189655172414e-01 8.86472740315930e-01 5.37758782583652e-03
4.03327586206897e-01 8.81215108201833e-01 5.38007351191483e-03
4.08465517241379e-01 8.75988658880641e-01 5.38212351288014e-03
4.13603448275862e-01 8.70793207408516e-01 5.38374825598373e-03
4.18741379310345e-01 8.65628569938518e-01 5.38495787933673e-03
4.23879310344828e-01 8.60494563714093e-01 5.38576224299344e-03
4.29017241379310e-01 8.55391007062613e-01 5.38617093946934e-03
4.34155172413793e-01 8.50317719388938e-01 5.38619330372866e-03
4.39293103448276e-01 8.45274521169036e-01 5.38583842267691e-03
4.44431034482759e-01 8.40261233943622e-01 5.38511514418587e-03
4.49568965517241e-01 8.35277680311845e-01 5.38403208568331e-03
4.54706896551724e-01 8.30323683925009e-01 5.38259764232671e-03
4.59844827586207e-01 8.25399069480338e-01 5.38081999479453e-03
4.64982758620690e-01 8.20503662714770e-01 5.37870711671554e-03
4.70120689655172e-01 8.15637290398794e-01 5.37626678175084e-03
4.75258620689655e-01 8.10799780330313e-01 5.37350657035687e-03
4.80396551724138e-01 8.05990961328554e-01 5.37043387624045e-03
4.85534482758621e-01 8.01210663228010e-01 5.36705591252770e-03
4.90672413793103e-01 7.96458716872420e-01 5.36337971766285e-03
4.95810344827586e-01 7.91734954108780e-01 5.35941216104867e-03
5.00948275862069e-01 7.87039207781397e-01 5.35515994844569e-03
5.06086206896552e-01 7.82371311725971e-01 5.35062962714130e-03
5.11224137931034e-01 7.77731100763713e-01 5.34582759090072e-03
5.16362068965517e-01 7.73118410695507e-01 5.34076008471442e-03
5.21500000000000e-01 7.68533078296092e-01 5.33543321171729e-03
5.26637931034483e-01 7.63974941299880e-01 5.32985293040429e-03
5.31775862068966e-01 7.59443838420631e-01 5.32402506361566e-03
5.36913793103448e-01 7.54939609320135e-01 5.31795530738402e-03
5.42051724137931e-01 7.50462094611145e-01 5.31164922752002e-03
5.47189655172414e-01 7.46011135851731e-01 5.30511226576774e-03
5.52327586206897e-01 7.41586575539676e-01 5.29834974337567e-03
5.57465517241379e-01 7.37188257106904e-01 5.29136686453116e-03
5.62603448275862e-01 7.32816024913936e-01 5.28416871966507e-03
5.67741379310345e-01 7.28469724244386e-01 5.27676028863371e-03
5.72879310344828e-01 7.24149201299481e-01 5.26914644378148e-03
5.78017241379310e-01 7.19854303192627e-01 5.26133195289232e-03
5.83155172413793e-01 7.15584877943991e-01 5.25332148203472e-03
5.88293103448276e-01 7.11340774475127e-01 5.24511959830202e-03
5.93431034482759e-01 7.07121842603630e-01 5.23673077245704e-03
5.98568965517241e-01 7.02927933037818e-01 5.22815938148473e-03
6.03706896551724e-01 6.98758897371452e-01 5.21940971105159e-03
6.08844827586207e-01 6.94614588078485e-01 5.21048595788284e-03
6.13982758620690e-01 6.90494858507843e-01 5.20139223205969e-03
6.19120689655172e-01 6.86399562878231e-01 5.19213255923520e-03
6.24258620689655e-01 6.82328556272980e-01 5.18271088277756e-03
6.29396551724138e-01 6.78281694634913e-01 5.17313106584198e-03
6.34534482758621e-01 6.74258834761251e-01 5.16339689337283e-03
6.39672413793103e-01 6.70259834298545e-01 5.15351207404163e-03
6.44810344827586e-01 6.66284551737639e-01 5.14348024212168e-03
6.49948275862069e-01 6.62332846408659e-01 5.13330495930195e-03
6.55086206896552e-01 6.58404578476043e-01 5.12298971644381e-03
6.60224137931035e-01 6.54499608933584e-01 5.11253793528254e-03
6.65362068965517e-01 6.50617799599516e-01 5.10195297007480e-03
6.70500000000000e-01 6.46759013111625e-01 5.09123811095401e-03
6.75637931034483e-01 6.42923112916872e-01 5.08039658017161e-03
6.80775862068966e-01 6.39109963283211e-01 5.06943153715186e-03
6.85913793103448e-01 6.35319429278026e-01 5.05834608353047e-03
6.91051724137931e-01 6.31551376768981e-01 5.04714325916402e-03
6.96189655172414e-01 6.27805672419272e-01 5.03582604530881e-03
7.01327586206897e-01 6.24082183682913e-01 5.02439736595061e-03
7.06465517241379e-01 6.20380778800041e-01 5.01286008909352e-03
7.11603448275862e-01 6.16701326792254e-01 5.00121702801232e-03
7.16741379310345e-01 6.13043697457981e-01 4.98947094246897e-03
7.21879310344828e-01 6.09407761367869e-01 4.97762453989394e-03
7.27017241379310e-01 6.05793389860204e-01 4.96568047653334e-03
7.32155172413793e-01 6.02200455036360e-01 4.95364135856409e-03
7.37293103448276e-01 5.98628829756274e-01 4.94150974317917e-03
7.42431034482759e-01 5.95078387633943e-01 4.92928813964156e-03
7.47568965517241e-01 5.91549003032957e-01 4.91697901031013e-03
7.52706896551724e-01 5.88040551062046e-01 4.90458477163477e-03
7.57844827586207e-01 5.84552907570667e-01 4.89210779512711e-03
7.62982758620690e-01 5.81085949144611e-01 4.87955040830647e-03
7.68120689655172e-01 5.77639553101630e-01 4.86691489561673e-03
7.73258620689655e-01 5.74213597487102e-01 4.85420349932176e-03
7.78396551724138e-01 5.70807961069712e-01 4.84141842037591e-03
7.83534482758621e-01 5.67422523337163e-01 4.82856181927187e-03
7.88672413793103e-01 5.64057164491909e-01 4.81563581686719e-03
7.93810344827586e-01 5.60711765446923e-01 4.80264249518903e-03
7.98948275862069e-01 5.57386207821475e-01 4.78958389821829e-03
8.04086206896552e-01 5.54080373936945e-01 4.77646203265389e-03
8.09224137931035e-01 5.50794146812664e-01 4.76327886865780e-03
8.14362068965517e-01 5.47527410161767e-01 4.75003634058185e-03
8.19500000000000e-01 5.44280048387082e-01 4.73673634901471e-03
8.24637931034483e-01 5.41051946573243e-01 4.72338075743282e-03
8.29775862068966e-01 5.37842990494083e-01 4.70997139557953e-03
8.34913793103448e-01 5.34653066597060e-01 4.69651006285041e-03
8.40051724137931e-01 5.31482062003109e-01 4.68299852482449e-03
8.45189655172414e-01 5.28329864502645e-01 4.66943851526772e-03
8.50327586206897e-01 5.25196362551593e-01 4.65583173674285e-03
8.55465517241379e-01 5.22081445267441e-01 4.64217986120684e-03
8.60603448275862e-01 5.18985002425319e-01 4.62848453059291e-03
8.65741379310345e-01 5.15906924454092e-01 4.61474735737864e-03
8.70879310344828e-01 5.12847102432490e-01 4.60096992514194e-03
8.76017241379310e-01 5.09805428085250e-01 4.58715378910298e-03
8.81155172413793e-01 5.06781793779284e-01 4.57330047665470e-03
8.86293103448276e-01 5.03776092519872e-01 4.55941148788065e-03
8.91431034482759e-01 5.00788217946875e-01 4.54548829606026e-03
8.96568965517241e-01 4.97818064330972e-01 4.53153234816412e-03
9.01706896551724e-01 4.94865526569916e-01 4.51754506533714e-03
9.06844827586207e-01 4.91930500184820e-01 4.50352784337096e-03
9.11982758620690e-01 4.89012881316454e-01 4.48948205316676e-03
9.17120689655172e-01 4.86112566721576e-01 4.47540904118634e-03
9.22258620689655e-01 4.83229453769272e-01 4.46131012989423e-03
9.27396551724138e-01 4.80363440437331e-01 4.44718661819034e-03
9.32534482758621e-01 4.77514425308630e-01 4.43303978183347e-03
9.37672413793104e-01 4.74682307567545e-01 4.41887087385362e-03
9.42810344827586e-01 4.71866986996388e-01 4.40468112495755e-03
9.47948275862069e-01 4.69068363971856e-01 4.39047174392531e-03
9.53086206896552e-01 4.66286339461509e-01 4.37624391799731e-03
9.58224137931035e-01 4.63520815020263e-01 4.36199881325491e-03
9.63362068965517e-01 4.60771692786907e-01 4.34773757499096e-03
9.68500000000000e-01 4.58038875480644e-01 4.33346132911130e-03
9.73637931034483e-01 4.55322266394936e-01 4.31917117936358e-03
9.78775862068965e-01 4.52621769402251e-01 4.30486820977938e-03
9.83913793103448e-01 4.49937288942450e-01 4.29055348712889e-03
9.89051724137931e-01 4.47268730022154e-01 4.27622805807365e-03
9.94189655172414e-01 4.44615998211387e-01 4.26189295055992e-03
9.99327586206897e-01 4.41978999640236e-01 4.24754917217473e-03
1.00446551724138e+00 4.39357641000569e-01 4.23319771541325e-03
1.00960344827586e+00 4.36751829530006e-01 4.21883955599090e-03
1.01474137931034e+00 4.34161473018893e-01 4.20447564913099e-03
1.01987931034483e+00 4.31586479804469e-01 4.19010694341642e-03
1.02501724137931e+00 4.29026758743421e-01 4.17573435136085e-03
1.03015517241379e+00 4.26482219281687e-01 4.16135876891061e-03
1.03529310344828e+00 4.23952771377790e-01 4.14698109511963e-03
1.04043103448276e+00 4.21438325524288e-01 4.13260220320849e-03
1.04556896551724e+00 4.18938792744607e-01 4.11822295062959e-03
1.05070689655172e+00 4.16454084589869e-01 4.10384417931550e-03
1.05584482758621e+00 4.13984113135803e-01 4.08946671593647e-03
1.06098275862069e+00 4.11528790979616e-01 4.07509137216855e-03
1.06612068965517e+00 4.09088031236895e-01 4.06071895376610e-03
1.07125862068966e+00 4.06661747516582e-01 4.04635023417661e-03
1.07639655172414e+00 4.04249853984163e-01 4.03198597260227e-03
1.08153448275862e+00 4.01852265291998e-01 4.01762693222752e-03
1.08667241379310e+00 3.99468896598637e-01 4.00327385335200e-03
1.09181034482759e+00 3.97099663565825e-01 3.98892746269688e-03
1.09694827586207e+00 3.94744482355509e-01 3.97458847362675e-03
1.10208620689655e+00 3.92403269626872e-01 3.96025758635849e-03
1.10722413793103e+00 3.90075942533398e-01 3.94593548817907e-03
1.11236206896552e+00 3.87762418719933e-01 3.93162285366209e-03
1.11750000000000e+00 3.85462616319767e-01 3.91732035299490e-03
1.12263793103448e+00 3.83176453932004e-01 3.90302862767890e-03
1.12777586206897e+00 3.80903850678225e-01 3.88874830712611e-03
1.13291379310345e+00 3.78644726139739e-01 3.87448002541018e-03
1.13805172413793e+00 3.76399000374817e-01 3.86022439652588e-03
1.14318965517241e+00 3.74166593915860e-01 3.84598202293315e-03
1.14832758620690e+00 3.71947427766582e-01 3.83175349573687e-03
1.15346551724138e+00 3.69741423399225e-01 3.81753939486390e-03
1.15860344827586e+00 3.67548502751781e-01 3.80334028924813e-03
1.16374137931034e+00 3.65368588225225e-01 3.78915673700625e-03
1.16887931034483e+00 3.63201602680769e-01 3.77498929309281e-03
1.17401724137931e+00 3.61047469419358e-01 3.76083848690004e-03
1.17915517241379e+00 3.58906112232581e-01 3.74670483752666e-03
1.18429310344828e+00 3.56777455346045e-01 3.73258886919179e-03
1.18943103448276e+00 3.54661423434772e-01 3.71849108843133e-03
1.19456896551724e+00 3.52557941620533e-01 3.70441199195385e-03
1.19970689655172e+00 3.50466935469188e-01 3.69035206678457e-03
1.20484482758621e+00 3.48388330988078e-01 3.67631179041811e-03
1.20998275862069e+00 3.46322054623388e-01 3.66229163097746e-03
1.21512068965517e+00 3.44268033257550e-01 3.64829205431867e-03
1.22025862068966e+00 3.42226194190437e-01 3.63431350318425e-03
1.22539655172414e+00 3.40196465185712e-01 3.62035641139052e-03
1.23053448275862e+00 3.38178774419075e-01 3.60642121815313e-03
1.23567241379310e+00 3.36173050492215e-01 3.59250834686657e-03
1.24081034482759e+00 3.34179222430281e-01 3.57861821239565e-03
1.24594827586207e+00 3.32197219679366e-01 3.56475122120677e-03
1.25108620689655e+00 3.30226972104017e-01 3.55090777149405e-03
1.25622413793103e+00 3.28268409984756e-01 3.53708825331040e-03
1.26136206896552e+00 3.26321464015609e-01 3.52329304869703e-03
1.26650000000000e+00 3.24386065301653e-01 3.50952253823119e-03
1.27163793103448e+00 3.22462145341921e-01 3.49577708177766e-03
1.27677586206897e+00 3.20549636071194e-01 3.48205703156809e-03
1.28191379310345e+00 3.18648469813130e-01 3.46836274541111e-03
1.28705172413793e+00 3.16758579292774e-01 3.45469456709994e-03
1.29218965517241e+00 3.14879897634175e-01 3.44105283313166e-03
1.29732758620690e+00 3.13012358358016e-01 3.42743787281513e-03
1.30246551724138e+00 3.11155895379269e-01 3.41385000837946e-03
1.30760344827586e+00 3.09310443004859e-01 3.40028955508812e-03
1.31274137931034e+00 3.07475935931331e-01 3.38675682134581e-03
1.31787931034483e+00 3.05652309242544e-01 3.37325211473701e-03
1.32301724137931e+00 3.03839498394102e-01 3.35977572424061e-03
1.32815517241379e+00 3.02037439251099e-01 3.34632793229971e-03
1.33329310344828e+00 3.00246068045600e-01 3.33290902701296e-03
1.33843103448276e+00 2.98465321387875e-01 3.31951928403314e-03
1.34356896551724e+00 2.96695136264158e-01 3.30615897276411e-03
1.34870689655172e+00 2.94935450034405e-01 3.29282835645014e-03
1.35384482758621e+00 2.93186200430099e-01 3.27952769226987e-03
1.35898275862069e+00 2.91447325552033e-01 3.26625723143601e-03
1.36412068965517e+00 2.89718763868122e-01 3.25301722481420e-03
1.36925862068966e+00 2.88000454199067e-01 3.23980790634032e-03
1.37439655172414e+00 2.86292335752865e-01 3.22662950426235e-03
1.37953448275862e+00 2.84594348085781e-01 3.21348225249690e-03
1.38467241379310e+00 2.82906431112572e-01 3.20036637375200e-03
1.38981034482759e+00 2.81228525104356e-01 3.18728208529479e-03
1.39494827586207e+00 2.79560570686499e-01 3.17422959903447e-03
1.40008620689655e+00 2.77902508836516e-01 3.16120912159961e-03
1.40522413793103e+00 2.76254280881985e-01 3.14822085442179e-03
1.41036206896552e+00 2.74615828498468e-01 3.13526499381787e-03
1.41550000000000e+00 2.72987093707446e-01 3.12234173618085e-03
1.42063793103448e+00 2.71368018863232e-01 3.10945126263786e-03
1.42577586206897e+00 2.69758546684222e-01 3.09659374944063e-03
1.43091379310345e+00 2.68158620217394e-01 3.08376937846227e-03
1.43605172413793e+00 2.66568182847515e-01 3.07097832158378e-03
1.44118965517241e+00 2.64987178295131e-01 3.05822074602278e-03
1.44632758620690e+00 2.63415550614580e-01 3.04549681440190e-03
1.45146551724138e+00 2.61853244192011e-01 3.03280668481743e-03
1.45660344827586e+00 2.60300203743418e-01 3.02015051091225e-03
1.46174137931034e+00 2.58756374312685e-01 3.00752844194406e-03
1.46687931034483e+00 2.57221701269637e-01 2.99494062758551e-03
1.47201724137931e+00 2.55696130298071e-01 2.98238720372057e-03
1.47715517241379e+00 2.54179607424108e-01 2.96986830205465e-03
1.48229310344828e+00 2.52672078983845e-01 2.95738405982482e-03
1.48743103448276e+00 2.51173491631658e-01 2.94493460534555e-03
1.49256896551724e+00 2.49683792338317e-01 2.93252006293581e-03
1.49770689655172e+00 2.48202928389097e-01 2.92014055297537e-03
1.50284482758621e+00 2.46730847381930e-01 2.90779619196568e-03
1.50798275862069e+00 2.45267497225543e-01 2.89548709259450e-03
1.51312068965517e+00 2.43812826137613e-01 2.88321336821207e-03
1.51825862068966e+00 2.42366782633710e-01 2.87097511956625e-03
1.52339655172414e+00 2.40929315553300e-01 2.85877244376998e-03
1.52853448275862e+00 2.39500374029962e-01 2.84660544336387e-03
1.53367241379310e+00 2.38079907498962e-01 2.83447421281793e-03
1.53881034482759e+00 2.36667865695464e-01 2.82237884312632e-03
1.54394827586207e+00 2.35264198652748e-01 2.81031942186132e-03
1.54908620689655e+00 2.33868856700446e-01 2.79829603322289e-03
1.55422413793103e+00 2.32481790462782e-01 2.78630875809273e-03
1.55936206896552e+00 2.31102950856829e-01 2.77435767408831e-03
1.56450000000000e+00 2.29732289090769e-01 2.76244285970636e-03
1.56963793103448e+00 2.28369756653758e-01 2.75056438203028e-03
1.57477586206897e+00 2.27015305339564e-01 2.73872230503447e-03
1.57991379310345e+00 2.25668887219376e-01 2.72691669797686e-03
1.58505172413793e+00 2.24330454648645e-01 2.71514762289049e-03
1.59018965517241e+00 2.22999960265402e-01 2.70341513883701e-03
1.59532758620690e+00 2.21677356988576e-01 2.69171930195128e-03
1.60046551724138e+00 2.20362598016334e-01 2.68006016548592e-03
1.60560344827586e+00 2.19055636824426e-01 2.66843777985919e-03
1.61074137931034e+00 2.17756427164531e-01 2.65685219269958e-03
1.61587931034483e+00 2.16464923062631e-01 2.64530345268523e-03
1.62101724137931e+00 2.15181078809704e-01 2.63379159814504e-03
