Energy (eV)          EEDF (eV^-(3/2))     First Anisotropy
1.12500000000000e-01 6.64792333021982e-02 7.76710240773082e-05
3.37500000000000e-01 6.42266804866095e-02 1.26509336250266e-04
5.62500000000000e-01 6.20504521701894e-02 1.62440064016959e-04
7.87500000000000e-01 5.99479622075077e-02 1.87104954906994e-04
1.01250000000000e+00 5.79167120809361e-02 2.05600309673078e-04
1.23750000000000e+00 5.59542879315080e-02 2.19938114076729e-04
1.46250000000000e+00 5.40583576903818e-02 2.31201445977894e-04
1.68750000000000e+00 5.22266683075007e-02 2.40068497320581e-04
1.91250000000000e+00 5.04570430741555e-02 2.47004270469443e-04
2.13750000000000e+00 4.87473790362680e-02 2.52347525481352e-04
2.36250000000000e+00 4.70956444953221e-02 2.56355969184235e-04
2.58750000000000e+00 4.54998765939718e-02 2.59232083985328e-04
2.81250000000000e+00 4.39581789834576e-02 2.61138971523781e-04
3.03750000000000e+00 4.24687195700594e-02 2.62210618804602e-04
3.26250000000000e+00 4.10297283379067e-02 2.62558848750690e-04
3.48750000000000e+00 3.96394952455608e-02 2.62278198552962e-04
3.71250000000000e+00 3.82963681938676e-02 2.61449448336852e-04
3.93750000000000e+00 3.69987510626669e-02 2.60142239726828e-04
4.16250000000000e+00 3.57451018140252e-02 2.58417062299213e-04
4.38750000000000e+00 3.45339306597376e-02 2.56326789634986e-04
4.61250000000000e+00 3.33637982909208e-02 2.53917887201137e-04
4.83750000000000e+00 3.22333141675945e-02 2.51231376364292e-04
5.06250000000000e+00 3.11411348662178e-02 2.48303613984020e-04
5.28750000000000e+00 3.00859624832161e-02 2.45166930340043e-04
5.51250000000000e+00 2.90665430926031e-02 2.41850156689937e-04
5.73750000000000e+00 2.80816652558640e-02 2.38379065734951e-04
5.96250000000000e+00 2.71301585823281e-02 2.34776742559457e-04
6.18750000000000e+00 2.62108923383228e-02 2.31063899474973e-04
6.41250000000000e+00 2.53227741034530e-02 2.27259145163075e-04
6.63750000000000e+00 2.44647484724108e-02 2.23379216251214e-04
6.86250000000000e+00 2.36357958007735e-02 2.19439177752176e-04
7.08750000000000e+00 2.28349309932966e-02 2.15452597499739e-04
7.31250000000000e+00 2.20612023332658e-02 2.11431698713192e-04
7.53750000000000e+00 2.13136903515131e-02 2.07387494045649e-04
7.76250000000000e+00 2.05915067337553e-02 2.03329903860628e-04
7.98750000000000e+00 1.98937932649561e-02 1.99267860998118e-04
8.21250000000000e+00 1.92197208094561e-02 1.95209403905719e-04
8.43750000000000e+00 1.85684883256605e-02 1.91161759700386e-04
8.66250000000000e+00 1.79393219141119e-02 1.87131418475306e-04
8.88750000000000e+00 1.73314738978188e-02 1.83124199961811e-04
9.11250000000000e+00 1.67442219337443e-02 1.79145313488412e-04
9.33750000000000e+00 1.61768681544025e-02 1.75199412040606e-04
9.56250000000000e+00 1.56287383385395e-02 1.71290641110217e-04
9.78750000000000e+00 1.50991811099146e-02 1.67422682927179e-04
1.00125000000000e+01 1.45875671632306e-02 1.63598796586366e-04
1.02375000000000e+01 1.40932885162914e-02 1.59821854514367e-04
1.04625000000000e+01 1.36157577874997e-02 1.56094375663842e-04
1.06875000000000e+01 1.31544074978352e-02 1.52418555774373e-04
1.09125000000000e+01 1.27086893964848e-02 1.48796294997215e-04
1.11375000000000e+01 1.22780738093224e-02 1.45229223145690e-04
1.13625000000000e+01 1.18620490094649e-02 1.41718722802360e-04
1.15875000000000e+01 1.14601206091554e-02 1.38265950487644e-04
1.18125000000000e+01 1.10718109722523e-02 1.34871856071627e-04
1.20375000000000e+01 1.06966586466250e-02 1.31537200590913e-04
1.22625000000000e+01 1.03342178157817e-02 1.28262572614964e-04
1.24875000000000e+01 9.98405776907874e-03 1.25048403291185e-04
1.27125000000000e+01 9.64576238988065e-03 1.21894980184698e-04
1.29375000000000e+01 9.31892966106317e-03 1.18802460016976e-04
1.31625000000000e+01 9.00317118727175e-03 1.15770880397218e-04
1.33875000000000e+01 8.69811173336752e-03 1.12800170631121e-04
1.36125000000000e+01 8.40338877851242e-03 1.09890161683664e-04
1.38375000000000e+01 8.11865208536344e-03 1.07040595365245e-04
1.40625000000000e+01 7.84356328386416e-03 1.04251132804116e-04
1.42875000000000e+01 7.57779546913887e-03 1.01521362262321e-04
1.45125000000000e+01 7.32103281301149e-03 9.88508063471947e-05
1.47375000000000e+01 7.07297018868755e-03 9.62389286658997e-05
1.49625000000000e+01 6.83331280815341e-03 9.36851399663076e-05
1.51875000000000e+01 6.60177587186155e-03 9.11888038038597e-05
1.54125000000000e+01 6.37808423028580e-03 8.87492417706305e-05
1.56375000000000e+01 6.16197205694438e-03 8.63657383198384e-05
1.58625000000000e+01 5.95318253250191e-03 8.40375452162660e-05
1.60875000000000e+01 5.75146753957533e-03 8.17638856405870e-05
1.63125000000000e+01 5.55658736788079e-03 7.95439579733404e-05
1.65375000000000e+01 5.36831042937124e-03 7.73769392822360e-05
1.67625000000000e+01 5.18641298302615e-03 7.52619885346133e-05
1.69875000000000e+01 5.01067886896636e-03 7.31982495551733e-05
1.72125000000000e+01 4.84089925157806e-03 7.11848537475463e-05
1.74375000000000e+01 4.67687237134061e-03 6.92209225968513e-05
1.76625000000000e+01 4.51840330506339e-03 6.73055699690929e-05
1.78875000000000e+01 4.36530373424656e-03 6.54379042220514e-05
1.81125000000000e+01 4.21739172129072e-03 6.36170301412418e-05
1.83375000000000e+01 4.07449149328928e-03 6.18420507135066e-05
1.85625000000000e+01 3.93643323314673e-03 6.01120687498898e-05
1.87875000000000e+01 3.80305287777463e-03 5.84261883685907e-05
1.90125000000000e+01 3.67419192312534e-03 5.67835163480228e-05
1.92375000000000e+01 3.54969723583199e-03 5.51831633592768e-05
1.94625000000000e+01 3.42942087123069e-03 5.36242450866219e-05
1.96875000000000e+01 3.31321989754883e-03 5.21058832440823e-05
1.99125000000000e+01 3.20095622605053e-03 5.06272064955441e-05
2.01375000000000e+01 3.09249644693728e-03 4.91873512853290e-05
2.03625000000000e+01 2.98771167080894e-03 4.77854625856932e-05
2.05875000000000e+01 2.88647737549655e-03 4.64206945672543e-05
2.08125000000000e+01 2.78867325808504e-03 4.50922111979379e-05
2.10375000000000e+01 2.69418309194987e-03 4.37991867756486e-05
2.12625000000000e+01 2.60289458863782e-03 4.25408063995147e-05
2.14875000000000e+01 2.51469926442776e-03 4.13162663842176e-05
2.17125000000000e+01 2.42949231141279e-03 4.01247746216210e-05
2.19375000000000e+01 2.34717247295055e-03 3.89655508936143e-05
2.21625000000000e+01 2.26764192333381e-03 3.78378271398286e-05
2.23875000000000e+01 2.19080615153815e-03 3.67408476836306e-05
2.26125000000000e+01 2.11657384890871e-03 3.56738694195700e-05
2.28375000000000e+01 2.04485680065255e-03 3.46361619652454e-05
2.30625000000000e+01 1.97556978100760e-03 3.36270077803429e-05
2.32875000000000e+01 1.90863045196364e-03 3.26457022554261e-05
2.35125000000000e+01 1.84395926541505e-03 3.16915537728806e-05
2.37375000000000e+01 1.78147936862886e-03 3.07638837422451e-05
2.39625000000000e+01 1.72111651291599e-03 2.98620266120189e-05
2.41875000000000e+01 1.66279896539696e-03 2.89853298598946e-05
2.44125000000000e+01 1.60645742375732e-03 2.81331539632240e-05
2.46375000000000e+01 1.55202493389145e-03 2.73048723514118e-05
2.48625000000000e+01 1.49943681033694e-03 2.64998713418139e-05
2.50875000000000e+01 1.44863055940483e-03 2.57175500606038e-05
2.53125000000000e+01 1.39954580491457e-03 2.49573203499791e-05
2.55375000000000e+01 1.35212421644530e-03 2.42186066629816e-05
2.57625000000000e+01 1.30630944001823e-03 2.35008459471175e-05
2.59875000000000e+01 1.26204703112777e-03 2.28034875178812e-05
2.62125000000000e+01 1.21928439004175e-03 2.21259929232093e-05
2.64375000000000e+01 1.17797069929399e-03 2.14678357998248e-05
2.66625000000000e+01 1.13805686329475e-03 2.08285017223580e-05
2.68875000000000e+01 1.09949544998746e-03 2.02074880460697e-05
2.71125000000000e+01 1.06224063448228e-03 1.96043037439464e-05
2.73375000000000e+01 1.02624814459959e-03 1.90184692388791e-05
2.75625000000000e+01 9.91475208258628e-04 1.84495162315871e-05
2.77875000000000e+01 9.57880502648835e-04 1.78969875249005e-05
2.80125000000000e+01 9.25424105123408e-04 1.73604368449702e-05
2.82375000000000e+01 8.94067445756776e-04 1.68394286599309e-05
2.84625000000000e+01 8.63773261509597e-04 1.63335379965056e-05
2.86875000000000e+01 8.34505551946802e-04 1.58423502550003e-05
2.89125000000000e+01 8.06229536456077e-04 1.53654610231053e-05
2.91375000000000e+01 7.78911612915928e-04 1.49024758888881e-05
2.93625000000000e+01 7.52519317764224e-04 1.44530102533306e-05
2.95875000000000e+01 7.27021287419751e-04 1.40166891427346e-05
2.98125000000000e+01 7.02387221010954e-04 1.35931470212975e-05
3.00375000000000e+01 6.78587844367551e-04 1.31820276041303e-05
3.02625000000000e+01 6.55594875232246e-04 1.27829836709727e-05
3.04875000000000e+01 6.33380989651186e-04 1.23956768808309e-05
3.07125000000000e+01 6.11919789503234e-04 1.20197775877524e-05
3.09375000000000e+01 5.91185771129469e-04 1.16549646579261e-05
3.11625000000000e+01 5.71154295025619e-04 1.13009252882842e-05
3.13875000000000e+01 5.51801556561433e-04 1.09573548267609e-05
3.16125000000000e+01 5.33104557692177e-04 1.06239565943518e-05
3.18375000000000e+01 5.15041079628653e-04 1.03004417091013e-05
3.20625000000000e+01 4.97589656433247e-04 9.98652891213337e-06
3.22875000000000e+01 4.80729549510641e-04 9.68194439582776e-06
3.25125000000000e+01 4.64440722962872e-04 9.38642163423314e-06
3.27375000000000e+01 4.48703819779442e-04 9.09970121579645e-06
3.29625000000000e+01 4.33500138834202e-04 8.82153067848026e-06
3.31875000000000e+01 4.18811612661654e-04 8.55166434732802e-06
3.34125000000000e+01 4.04620785986278e-04 8.28986317453045e-06
3.36375000000000e+01 3.90910794979356e-04 8.03589458203760e-06
3.38625000000000e+01 3.77665347218653e-04 7.78953230675295e-06
3.40875000000000e+01 3.64868702327134e-04 7.55055624834029e-06
3.43125000000000e+01 3.52505653267707e-04 7.31875231966760e-06
3.45375000000000e+01 3.40561508271772e-04 7.09391229990519e-06
3.47625000000000e+01 3.29022073380090e-04 6.87583369029139e-06
3.49875000000000e+01 3.17873635575234e-04 6.66431957257294e-06
3.52125000000000e+01 3.07102946485570e-04 6.45917847012267e-06
3.54375000000000e+01 2.96697206641401e-04 6.26022421173376e-06
3.56625000000000e+01 2.86644050264579e-04 6.06727579808510e-06
3.58875000000000e+01 2.76931530573492e-04 5.88015727086852e-06
3.61125000000000e+01 2.67548105585967e-04 5.69869758456582e-06
3.63375000000000e+01 2.58482624403230e-04 5.52273048086089e-06
3.65625000000000e+01 2.49724313958611e-04 5.35209436566826e-06
3.67875000000000e+01 2.41262766215242e-04 5.18663218875790e-06
3.70125000000000e+01 2.33087925797557e-04 5.02619132595374e-06
3.72375000000000e+01 2.25190078041868e-04 4.87062346388038e-06
3.74625000000000e+01 2.17559837451839e-04 4.71978448723221e-06
3.76875000000000e+01 2.10188136545120e-04 4.57353436853589e-06
3.79125000000000e+01 2.03066215077910e-04 4.43173706037659e-06
3.81375000000000e+01 1.96185609634613e-04 4.29426039005668e-06
3.83625000000000e+01 1.89538143570254e-04 4.16097595665459e-06
3.85875000000000e+01 1.83115917293661e-04 4.03175903045015e-06
3.88125000000000e+01 1.76911298879901e-04 3.90648845468230e-06
3.90375000000000e+01 1.70916915000798e-04 3.78504654960416e-06
3.92625000000000e+01 1.65125642162750e-04 3.66731901879902e-06
3.94875000000000e+01 1.59530598241451e-04 3.55319485772159e-06
3.97125000000000e+01 1.54125134303439e-04 3.44256626442714e-06
3.99375000000000e+01 1.48902826704757e-04 3.33532855245155e-06
4.01625000000000e+01 1.43857469457350e-04 3.23138006580462e-06
4.03875000000000e+01 1.38983066854104e-04 3.13062209603902e-06
4.06125000000000e+01 1.34273826343784e-04 3.03295880135673e-06
4.08375000000000e+01 1.29724151647386e-04 2.93829712771540e-06
4.10625000000000e+01 1.25328636107741e-04 2.84654673189648e-06
4.12875000000000e+01 1.21082056264447e-04 2.75761990649687e-06
4.15125000000000e+01 1.16979365646517e-04 2.67143150680685e-06
4.17375000000000e+01 1.13015688775346e-04 2.58789887953629e-06
4.19625000000000e+01 1.09186315370877e-04 2.50694179335141e-06
4.21875000000000e+01 1.05486694754094e-04 2.42848237118549e-06
4.24125000000000e+01 1.01912430439167e-04 2.35244502428587e-06
4.26375000000000e+01 9.84592749088378e-05 2.27875638796091e-06
4.28625000000000e+01 9.51231245668383e-05 2.20734525899044e-06
4.30875000000000e+01 9.19000148613326e-05 2.13814253466376e-06
4.33125000000000e+01 8.87861155735991e-05 2.07108115340957e-06
4.35375000000000e+01 8.57777262663457e-05 2.00609603698251e-06
4.37625000000000e+01 8.28712718862543e-05 1.94312403417173e-06
4.39875000000000e+01 8.00632985155257e-05 1.88210386599702e-06
4.42125000000000e+01 7.73504692673773e-05 1.82297607235866e-06
4.44375000000000e+01 7.47295603206162e-05 1.76568296010766e-06
4.46625000000000e+01 7.21974570885751e-05 1.71016855250331e-06
4.48875000000000e+01 6.97511505178578e-05 1.65637854002592e-06
4.51125000000000e+01 6.73877335124973e-05 1.60426023251261e-06
4.53375000000000e+01 6.51043974792750e-05 1.55376251258488e-06
4.55625000000000e+01 6.28984289900975e-05 1.50483579033701e-06
4.57875000000000e+01 6.07672065574640e-05 1.45743195925510e-06
4.60125000000000e+01 5.87081975191915e-05 1.41150435333686e-06
4.62375000000000e+01 5.67189550286981e-05 1.36700770538287e-06
4.64625000000000e+01 5.47971151472644e-05 1.32389810643054e-06
4.66875000000000e+01 5.29403940348207e-05 1.28213296630265e-06
4.69125000000000e+01 5.11465852359199e-05 1.24167097524286e-06
4.71375000000000e+01 4.94135570576715e-05 1.20247206661085e-06
4.73625000000000e+01 4.77392500365198e-05 1.16449738061061e-06
4.75875000000000e+01 4.61216744908578e-05 1.12770922902602e-06
4.78125000000000e+01 4.45589081565665e-05 1.09207106093770e-06
4.80375000000000e+01 4.30490939026701e-05 1.05754742939666e-06
4.82625000000000e+01 4.15904375243945e-05 1.02410395902977e-06
4.84875000000000e+01 4.01812056110031e-05 9.91707314553487e-07
4.87125000000000e+01 3.88197234858785e-05 9.60325170172078e-07
4.89375000000000e+01 3.75043732164027e-05 9.29926179837555e-07
4.91625000000000e+01 3.62335916912672e-05 9.00479948348767e-07
4.93875000000000e+01 3.50058687629335e-05 8.71957003267729e-07
4.96125000000000e+01 3.38197454530312e-05 8.44328767631764e-07
4.98375000000000e+01 3.26738122185651e-05 8.17567533440381e-07
5.00625000000000e+01 3.15667072768690e-05 7.91646435896433e-07
5.02875000000000e+01 3.04971149873154e-05 7.66539428381516e-07
5.05125000000000e+01 2.94637642878599e-05 7.42221258145982e-07
5.07375000000000e+01 2.84654271845595e-05 7.18667442694518e-07
5.09625000000000e+01 2.75009172922730e-05 6.95854246848594e-07
5.11875000000000e+01 2.65690884248061e-05 6.73758660467522e-07
5.14125000000000e+01 2.56688332328285e-05 6.52358376810312e-07
5.16375000000000e+01 2.47990818879428e-05 6.31631771521043e-07
5.18625000000000e+01 2.39588008113420e-05 6.11557882220741e-07
5.20875000000000e+01 2.31469914455442e-05 5.92116388689214e-07
5.23125000000000e+01 2.23626890677457e-05 5.73287593620755e-07
5.25375000000000e+01 2.16049616433820e-05 5.55052403937933e-07
5.27625000000000e+01 2.08729087185338e-05 5.37392312648169e-07
5.29875000000000e+01 2.01656603498622e-05 5.20289381228098e-07
5.32125000000000e+01 1.94823760708023e-05 5.03726222521162e-07
5.34375000000000e+01 1.88222438927851e-05 4.87685984134189e-07
5.36625000000000e+01 1.81844793403013e-05 4.72152332319057e-07
5.38875000000000e+01 1.75683245186616e-05 4.57109436326046e-07
5.41125000000000e+01 1.69730472133437e-05 4.42541953215601e-07
5.43375000000000e+01 1.63979400198568e-05 4.28435013115720e-07
5.45625000000000e+01 1.58423195030900e-05 4.14774204912500e-07
5.47875000000000e+01 1.53055253851440e-05 4.01545562361629e-07
5.50125000000000e+01 1.47869197606824e-05 3.88735550608956e-07
5.52375000000000e+01 1.42858863388702e-05 3.76331053108637e-07
5.54625000000000e+01 1.38018297109973e-05 3.64319358927608e-07
5.56875000000000e+01 1.33341746429177e-05 3.52688150425386e-07
5.59125000000000e+01 1.28823653914638e-05 3.41425491298588e-07
5.61375000000000e+01 1.24458650440228e-05 3.30519814979767e-07
5.63625000000000e+01 1.20241548804903e-05 3.19959913380495e-07
5.65875000000000e+01 1.16167337568436e-05 3.09734925968825e-07
5.68125000000000e+01 1.12231175096013e-05 2.99834329171561e-07
5.70375000000000e+01 1.08428383804626e-05 2.90247926092079e-07
5.72625000000000e+01 1.04754444604412e-05 2.80965836534573e-07
5.74875000000000e+01 1.01204991528340e-05 2.71978487325959e-07
5.77125000000000e+01 9.77758065438683e-06 2.63276602926836e-07
5.79375000000000e+01 9.44628145403964e-06 2.54851196323165e-07
5.81625000000000e+01 9.12620784865611e-06 2.46693560190571e-07
5.83875000000000e+01 8.81697947516216e-06 2.38795258323344e-07
5.86125000000000e+01 8.51822885853715e-06 2.31148117320483e-07
5.88375000000000e+01 8.22960097512087e-06 2.23744218521320e-07
5.90625000000000e+01 7.95075283071711e-06 2.16575890183441e-07
5.92875000000000e+01 7.68135305299266e-06 2.09635699895881e-07
5.95125000000000e+01 7.42108149768730e-06 2.02916447220695e-07
5.97375000000000e+01 7.16962886816673e-06 1.96411156556265e-07
5.99625000000000e+01 6.92669634786643e-06 1.90113070215836e-07
6.01875000000000e+01 6.69199524518964e-06 1.84015641714967e-07
6.04125000000000e+01 6.46524665043745e-06 1.78112529261800e-07
6.06375000000000e+01 6.24618110436330e-06 1.72397589444167e-07
6.08625000000000e+01 6.03453827795810e-06 1.66864871107748e-07
6.10875000000000e+01 5.83006666308526e-06 1.61508609419654e-07
6.13125000000000e+01 5.63252327359818e-06 1.56323220111984e-07
6.15375000000000e+01 5.44167335658495e-06 1.51303293900009e-07
6.17625000000000e+01 5.25729011339704e-06 1.46443591069851e-07
6.19875000000000e+01 5.07915443013064e-06 1.41739036230633e-07
6.22125000000000e+01 4.90705461724010e-06 1.37184713226227e-07
6.24375000000000e+01 4.74078615797435e-06 1.32775860201857e-07
6.26625000000000e+01 4.58015146533704e-06 1.28507864820960e-07
6.28875000000000e+01 4.42495964728190e-06 1.24376259627861e-07
6.31125000000000e+01 4.27502627986393e-06 1.20376717551892e-07
6.33375000000000e+01 4.13017318807719e-06 1.16505047548746e-07
6.35625000000000e+01 3.99022823411853e-06 1.12757190375000e-07
6.37875000000000e+01 3.85502511282563e-06 1.09129214491792e-07
6.40125000000000e+01 3.72440315404645e-06 1.05617312093816e-07
6.42375000000000e+01 3.59820713170502e-06 1.02217795259880e-07
6.44625000000000e+01 3.47628707933680e-06 9.89270922213918e-08
6.46875000000000e+01 3.35849811187430e-06 9.57417437452173e-08
6.49125000000000e+01 3.24470025347133e-06 9.26583996275069e-08
6.51375000000000e+01 3.13475827116111e-06 8.96738152951360e-08
6.53625000000000e+01 3.02854151415063e-06 8.67848485115323e-08
6.55875000000000e+01 2.92592375856033e-06 8.39884561837506e-08
6.58125000000000e+01 2.82678305742452e-06 8.12816912677385e-08
6.60375000000000e+01 2.73100159577434e-06 7.86616997688394e-08
6.62625000000000e+01 2.63846555063101e-06 7.61257178346537e-08
6.64875000000000e+01 2.54906495574300e-06 7.36710689374760e-08
6.67125000000000e+01 2.46269357090643e-06 7.12951611435937e-08
6.69375000000000e+01 2.37924875571329e-06 6.89954844668198e-08
6.71625000000000e+01 2.29863134757755e-06 6.67696083037140e-08
6.73875000000000e+01 2.22074554389423e-06 6.46151789480163e-08
6.76125000000000e+01 2.14549878819127e-06 6.25299171818844e-08
6.78375000000000e+01 2.07280166013898e-06 6.05116159416070e-08
6.80625000000000e+01 2.00256776928641e-06 5.85581380555388e-08
6.82875000000000e+01 1.93471365239831e-06 5.66674140520463e-08
6.85125000000000e+01 1.86915867427060e-06 5.48374400353475e-08
6.87375000000000e+01 1.80582493190663e-06 5.30662756271740e-08
6.89625000000000e+01 1.74463716194032e-06 5.13520419722451e-08
6.91875000000000e+01 1.68552265119605e-06 4.96929198056163e-08
6.94125000000000e+01 1.62841115027912e-06 4.80871475800085e-08
6.96375000000000e+01 1.57323479009417e-06 4.65330196512889e-08
6.98625000000000e+01 1.51992800119208e-06 4.50288845203261e-08
7.00875000000000e+01 1.46842743584985e-06 4.35731431294943e-08
7.03125000000000e+01 1.41867189279057e-06 4.21642472121560e-08
7.05375000000000e+01 1.37060224445423e-06 4.08006976934996e-08
7.07625000000000e+01 1.32416136673281e-06 3.94810431411591e-08
7.09875000000000e+01 1.27929407108617e-06 3.82038782640896e-08
