Energy (eV)          EEDF (eV^-(3/2))     First Anisotropy
2.70909090909091e-03 1.40126323183098e+00 6.98958750172619e-04
8.12727272727273e-03 1.39250049846415e+00 1.15445179733403e-03
1.35454545454545e-02 1.38379256246563e+00 1.52472856921170e-03
1.89636363636364e-02 1.37513908108182e+00 1.80647033131007e-03
2.43818181818182e-02 1.36653971385367e+00 2.04181066186086e-03
2.98000000000000e-02 1.35799412237173e+00 2.24666519780038e-03
3.52181818181818e-02 1.34950197034746e+00 2.42926316742716e-03
4.06363636363636e-02 1.34106292359764e+00 2.59456975982178e-03
4.60545454545455e-02 1.33267665003013e+00 2.74587522394122e-03
5.14727272727273e-02 1.32434281961350e+00 2.88550310263311e-03
5.68909090909091e-02 1.31606110441496e+00 3.01517197586196e-03
6.23090909090909e-02 1.30783117853372e+00 3.13619864801270e-03
6.77272727272727e-02 1.29965271810690e+00 3.24962060532273e-03
7.31454545454546e-02 1.29152540129738e+00 3.35627396864616e-03
7.85636363636364e-02 1.28344890827042e+00 3.45684532083914e-03
8.39818181818182e-02 1.27542292121289e+00 3.55190742639803e-03
8.94000000000000e-02 1.26744712428779e+00 3.64194459342139e-03
9.48181818181818e-02 1.25952120363317e+00 3.72737113845736e-03
1.00236363636364e-01 1.25164484734988e+00 3.80854513800943e-03
1.05654545454545e-01 1.24381774545131e+00 3.88577883510270e-03
1.11072727272727e-01 1.23603959002346e+00 3.95934671325082e-03
1.16490909090909e-01 1.22831007490996e+00 4.02949178359962e-03
1.21909090909091e-01 1.22062889594218e+00 4.09643055040355e-03
1.27327272727273e-01 1.21299575085270e+00 4.16035704733207e-03
1.32745454545455e-01 1.20541033926504e+00 4.22144607199803e-03
1.38163636363636e-01 1.19787236273496e+00 4.27985587094320e-03
1.43581818181818e-01 1.19038152457453e+00 4.33573032485570e-03
1.49000000000000e-01 1.18293753000703e+00 4.38920076666888e-03
1.54418181818182e-01 1.17554008609878e+00 4.44038754252545e-03
1.59836363636364e-01 1.16818890174793e+00 4.48940130419651e-03
1.65254545454545e-01 1.16088368767319e+00 4.53634410844866e-03
1.70672727272727e-01 1.15362415644432e+00 4.58131038219242e-03
1.76090909090909e-01 1.14641002234300e+00 4.62438772316052e-03
1.81509090909091e-01 1.13924100148098e+00 4.66565759049991e-03
1.86927272727273e-01 1.13211681174496e+00 4.70519593544459e-03
1.92345454545455e-01 1.12503717278610e+00 4.74307372241395e-03
1.97763636363636e-01 1.11800180604362e+00 4.77935741375246e-03
2.03181818181818e-01 1.11101043462786e+00 4.81410936939690e-03
2.08600000000000e-01 1.10406278341652e+00 4.84738819852840e-03
2.14018181818182e-01 1.09715857900765e+00 4.87924909900399e-03
2.19436363636364e-01 1.09029754970897e+00 4.90974413772702e-03
2.24854545454545e-01 1.08347942552733e+00 4.93892250098976e-03
2.30272727272727e-01 1.07670393818687e+00 4.96683073839774e-03
2.35690909090909e-01 1.06997082103079e+00 4.99351295759925e-03
2.41109090909091e-01 1.06327980909945e+00 5.01901099846753e-03
2.46527272727273e-01 1.05663063908994e+00 5.04336461516862e-03
2.51945454545455e-01 1.05002304934605e+00 5.06661161681120e-03
2.57363636363636e-01 1.04345677987278e+00 5.08878801802119e-03
2.62781818181818e-01 1.03693157225052e+00 5.10992815349501e-03
2.68200000000000e-01 1.03044716970115e+00 5.13006478144832e-03
2.73618181818182e-01 1.02400331705224e+00 5.14922920091324e-03
2.79036363636364e-01 1.01759976072707e+00 5.16745134110734e-03
2.84454545454545e-01 1.01123624873469e+00 5.18475984350229e-03
2.89872727272727e-01 1.00491253068134e+00 5.20118215376108e-03
2.95290909090909e-01 9.98628357695879e-01 5.21674458594990e-03
3.00709090909091e-01 9.92383482485288e-01 5.23147238096252e-03
3.06127272727273e-01 9.86177659302867e-01 5.24538978128008e-03
3.11545454545455e-01 9.80010643938778e-01 5.25852007981173e-03
3.16963636363636e-01 9.73882193729215e-01 5.27088568454755e-03
3.22381818181818e-01 9.67792067489728e-01 5.28250815958780e-03
3.27800000000000e-01 9.61740025563339e-01 5.29340826260952e-03
3.33218181818182e-01 9.55725829791704e-01 5.30360599904897e-03
3.38636363636364e-01 9.49749243505791e-01 5.31312065732030e-03
3.44054545454546e-01 9.43810031516600e-01 5.32197084181219e-03
3.49472727272727e-01 9.37907960122380e-01 5.33017451782282e-03
3.54890909090909e-01 9.32042797049499e-01 5.33774903614572e-03
3.60309090909091e-01 9.26214311493640e-01 5.34471115554483e-03
3.65727272727273e-01 9.20422274093745e-01 5.35107708160688e-03
3.71145454545455e-01 9.14666456923112e-01 5.35686248581191e-03
3.76563636363636e-01 9.08946633495176e-01 5.36208254012309e-03
3.81981818181818e-01 9.03262578709819e-01 5.36675193320812e-03
3.87400000000000e-01 8.97614068889634e-01 5.37088488523942e-03
3.92818181818182e-01 8.92000881755942e-01 5.37449517846721e-03
3.98236363636364e-01 8.86422796420067e-01 5.37759617290275e-03
4.03654545454545e-01 8.80879593374676e-01 5.38020082127168e-03
4.09072727272727e-01 8.75371054498256e-01 5.38232169535226e-03
4.14490909090909e-01 8.69896963006800e-01 5.38397099578245e-03
4.19909090909091e-01 8.64457103485307e-01 5.38516056094229e-03
4.25327272727273e-01 8.59051261865815e-01 5.38590189077129e-03
4.30745454545455e-01 8.53679225419068e-01 5.38620615427033e-03
4.36163636363636e-01 8.48340782758021e-01 5.38608421111531e-03
4.41581818181818e-01 8.43035723793500e-01 5.38554661798769e-03
4.47000000000000e-01 8.37763839762217e-01 5.38460363423989e-03
4.52418181818182e-01 8.32524923206354e-01 5.38326524175317e-03
4.57836363636364e-01 8.27318767965418e-01 5.38154115237390e-03
4.63254545454545e-01 8.22145169168150e-01 5.37944081513803e-03
4.68672727272727e-01 8.17003923235133e-01 5.37697343382120e-03
4.74090909090909e-01 8.11894827838477e-01 5.37414797046597e-03
4.79509090909091e-01 8.06817681926390e-01 5.37097314844240e-03
4.84927272727273e-01 8.01772285704316e-01 5.36745746884023e-03
4.90345454545455e-01 7.96758440627133e-01 5.36360921292701e-03
4.95763636363636e-01 7.91775949401092e-01 5.35943645720942e-03
5.01181818181818e-01 7.86824615946508e-01 5.35494707538137e-03
5.06600000000000e-01 7.81904245419791e-01 5.35014873991680e-03
5.12018181818182e-01 7.77014644195780e-01 5.34504893629591e-03
5.17436363636364e-01 7.72155619860141e-01 5.33965496656402e-03
5.22854545454545e-01 7.67326981201802e-01 5.33397395287683e-03
5.28272727272727e-01 7.62528538214270e-01 5.32801285029041e-03
5.33690909090909e-01 7.57760102061428e-01 5.32177844739548e-03
5.39109090909091e-01 7.53021485097006e-01 5.31527736668703e-03
5.44527272727273e-01 7.48312500848145e-01 5.30851607678546e-03
5.49945454545455e-01 7.43632964008112e-01 5.30150089253894e-03
5.55363636363636e-01 7.38982690437118e-01 5.29423798634603e-03
5.60781818181818e-01 7.34361497130490e-01 5.28673338803510e-03
5.66200000000000e-01 7.29769202236215e-01 5.27899298453377e-03
5.71618181818182e-01 7.25205625039474e-01 5.27102253077392e-03
5.77036363636364e-01 7.20670585955539e-01 5.26282765128548e-03
5.82454545454545e-01 7.16163906522714e-01 5.25441384185713e-03
5.87872727272727e-01 7.11685409402719e-01 5.24578647945195e-03
5.93290909090909e-01 7.07234918351322e-01 5.23695082145312e-03
5.98709090909091e-01 7.02812258233940e-01 5.22791200474357e-03
6.04127272727273e-01 6.98417255011164e-01 5.21867505533440e-03
6.09545454545455e-01 6.94049735731952e-01 5.20924488733333e-03
6.14963636363636e-01 6.89709528533659e-01 5.19962631191328e-03
6.20381818181818e-01 6.85396462614570e-01 5.18982403619449e-03
6.25800000000000e-01 6.81110368248017e-01 5.17984266198892e-03
6.31218181818182e-01 6.76851076768699e-01 5.16968669455717e-03
6.36636363636364e-01 6.72618420566056e-01 5.15936054315599e-03
6.42054545454546e-01 6.68412233077679e-01 5.14886852168312e-03
6.47472727272727e-01 6.64232348789030e-01 5.13821485670254e-03
6.52890909090909e-01 6.60078603207968e-01 5.12740368602281e-03
6.58309090909091e-01 6.55950832877354e-01 5.11643905716400e-03
6.63727272727273e-01 6.51848875362205e-01 5.10532493523789e-03
6.69145454545455e-01 6.47772569243334e-01 5.09406520138130e-03
6.74563636363636e-01 6.43721754116810e-01 5.08266366012155e-03
6.79981818181818e-01 6.39696270570045e-01 5.07112403778954e-03
6.85400000000000e-01 6.35695960193231e-01 5.05944998083654e-03
6.90818181818182e-01 6.31720665567165e-01 5.04764506309532e-03
6.96236363636364e-01 6.27770230257054e-01 5.03571278575598e-03
7.01654545454546e-01 6.23844498806370e-01 5.02365657744514e-03
7.07072727272727e-01 6.19943316736089e-01 5.01147980091812e-03
7.12490909090909e-01 6.16066530522419e-01 4.99918575133935e-03
7.17909090909091e-01 6.12213987607051e-01 4.98677765448055e-03
7.23327272727273e-01 6.08385536385681e-01 4.97425867334524e-03
7.28745454545455e-01 6.04581026202067e-01 4.96163190637266e-03
7.34163636363636e-01 6.00800307347087e-01 4.94890039364415e-03
7.39581818181818e-01 5.97043231037757e-01 4.93606711510086e-03
7.45000000000000e-01 5.93309649426561e-01 4.92313498868965e-03
7.50418181818182e-01 5.89599415590534e-01 4.91010687652381e-03
7.55836363636364e-01 5.85912383525488e-01 4.89698558454232e-03
7.61254545454546e-01 5.82248408140267e-01 4.88377386227226e-03
7.66672727272727e-01 5.78607345255653e-01 4.87047440852763e-03
7.72090909090909e-01 5.74989051584762e-01 4.85708986958622e-03
7.77509090909091e-01 5.71393384741412e-01 4.84362283730306e-03
7.82927272727273e-01 5.67820203229822e-01 4.83007585478435e-03
7.88345454545455e-01 5.64269366439053e-01 4.81645141452502e-03
7.93763636363636e-01 5.60740734641788e-01 4.80275196373640e-03
7.99181818181818e-01 5.57234168975806e-01 4.78897990251470e-03
8.04600000000000e-01 5.53749531451619e-01 4.77513758195242e-03
8.10018181818182e-01 5.50286684942644e-01 4.76122730945231e-03
8.15436363636364e-01 5.46845493179815e-01 4.74725134821521e-03
8.20854545454546e-01 5.43425820746219e-01 4.73321191682607e-03
8.26272727272727e-01 5.40027533075764e-01 4.71911119418399e-03
8.31690909090909e-01 5.36650496435823e-01 4.70495131767851e-03
8.37109090909091e-01 5.33294577934100e-01 4.69073438131481e-03
8.42527272727273e-01 5.29959645509328e-01 4.67646244064223e-03
8.47945454545455e-01 5.26645567926084e-01 4.66213751091504e-03
8.53363636363636e-01 5.23352214773366e-01 4.64776157172521e-03
8.58781818181818e-01 5.20079456448158e-01 4.63333656520028e-03
8.64200000000000e-01 5.16827164161699e-01 4.61886439415554e-03
8.69618181818182e-01 5.13595209930595e-01 4.60434692673294e-03
8.75036363636364e-01 5.10383466571792e-01 4.58978599580255e-03
8.80454545454545e-01 5.07191807697573e-01 4.57518339845514e-03
8.85872727272727e-01 5.04020107714056e-01 4.56054090031486e-03
8.91290909090909e-01 5.00868241805763e-01 4.54586023377143e-03
8.96709090909091e-01 4.97736085941258e-01 4.53114309617144e-03
9.02127272727273e-01 4.94623516864723e-01 4.51639115414249e-03
9.07545454545455e-01 4.91530412091121e-01 4.50160604182159e-03
9.12963636363636e-01 4.88456649904636e-01 4.48678936492734e-03
9.18381818181818e-01 4.85402109344027e-01 4.47194269902791e-03
9.23800000000000e-01 4.82366670207780e-01 4.45706758777202e-03
9.29218181818182e-01 4.79350213046052e-01 4.44216554697659e-03
9.34636363636364e-01 4.76352619155975e-01 4.42723806399154e-03
9.40054545454545e-01 4.73373770576984e-01 4.41228659714853e-03
9.45472727272727e-01 4.70413550089218e-01 4.39731257956743e-03
9.50890909090909e-01 4.67471841199729e-01 4.38231741747331e-03
9.56309090909091e-01 4.64548528147126e-01 4.36730248847769e-03
9.61727272727273e-01 4.61643495893922e-01 4.35226914540560e-03
9.67145454545455e-01 4.58756630122016e-01 4.33721871461544e-03
9.72563636363636e-01 4.55887817231048e-01 4.32215249960311e-03
9.77981818181818e-01 4.53036944325303e-01 4.30707177936394e-03
9.83400000000000e-01 4.50203899217944e-01 4.29197780672124e-03
9.88818181818182e-01 4.47388570423687e-01 4.27687181195235e-03
9.94236363636364e-01 4.44590847154415e-01 4.26175500214816e-03
9.99654545454545e-01 4.41810619314822e-01 4.24662856459921e-03
1.00507272727273e+00 4.39047777490048e-01 4.23149365630729e-03
1.01049090909091e+00 4.36302212970895e-01 4.21635141433541e-03
1.01590909090909e+00 4.33573817714437e-01 4.20120296223823e-03
1.02132727272727e+00 4.30862484353353e-01 4.18604939729777e-03
1.02674545454545e+00 4.28168106191780e-01 4.17089180539526e-03
1.03216363636364e+00 4.25490577175931e-01 4.15573123302138e-03
1.03758181818182e+00 4.22829791965836e-01 4.14056870663695e-03
1.04300000000000e+00 4.20185645854790e-01 4.12540525222377e-03
1.04841818181818e+00 4.17558034790855e-01 4.11024186670404e-03
1.05383636363636e+00 4.14946855372776e-01 4.09507952796240e-03
1.05925454545455e+00 4.12352004845935e-01 4.07991920410881e-03
1.06467272727273e+00 4.09773381074830e-01 4.06476182691433e-03
1.07009090909091e+00 4.07210882609871e-01 4.04960831013843e-03
1.07550909090909e+00 4.04664408612121e-01 4.03445956803675e-03
1.08092727272727e+00 4.02133858873207e-01 4.01931648824360e-03
1.08634545454545e+00 3.99619133811436e-01 4.00417994979729e-03
1.09176363636364e+00 3.97120134445665e-01 3.98905079770244e-03
1.09718181818182e+00 3.94636762458371e-01 3.97392986045622e-03
1.10260000000000e+00 3.92168920124390e-01 3.95881796775112e-03
1.10801818181818e+00 3.89716510329665e-01 3.94371592450821e-03
1.11343636363636e+00 3.87279436567441e-01 3.92862451993450e-03
1.11885454545455e+00 3.84857602934479e-01 3.91354453589972e-03
1.12427272727273e+00 3.82450914106539e-01 3.89847672277793e-03
1.12969090909091e+00 3.80059275397202e-01 3.88342181605647e-03
1.13510909090909e+00 3.77682592691181e-01 3.86838055311319e-03
1.14052727272727e+00 3.75320772461707e-01 3.85335364856049e-03
1.14594545454545e+00 3.72973721766907e-01 3.83834181058900e-03
1.15136363636364e+00 3.70641348226485e-01 3.82334571782117e-03
1.15678181818182e+00 3.68323560077345e-01 3.80836603520681e-03
1.16220000000000e+00 3.66020266110351e-01 3.79340343008363e-03
1.16761818181818e+00 3.63731375686734e-01 3.77845854855510e-03
1.17303636363636e+00 3.61456798734528e-01 3.76353202369298e-03
1.17845454545455e+00 3.59196445745042e-01 3.74862448313013e-03
1.18387272727273e+00 3.56950227750955e-01 3.73373652706376e-03
1.18929090909091e+00 3.54718056378263e-01 3.71886874333332e-03
1.19470909090909e+00 3.52499843787012e-01 3.70402172265602e-03
1.20012727272727e+00 3.50295502686528e-01 3.68919603618177e-03
1.20554545454545e+00 3.48104946332032e-01 3.67439225033781e-03
1.21096363636364e+00 3.45928088503781e-01 3.65961090574202e-03
1.21638181818182e+00 3.43764843556246e-01 3.64485253164490e-03
1.22180000000000e+00 3.41615126361854e-01 3.63011766052361e-03
1.22721818181818e+00 3.39478852325362e-01 3.61540680656621e-03
1.23263636363636e+00 3.37355937380544e-01 3.60072047311608e-03
1.23805454545455e+00 3.35246297986887e-01 3.58605915956567e-03
1.24347272727273e+00 3.33149851109973e-01 3.57142334130610e-03
1.24889090909091e+00 3.31066514267476e-01 3.55681348343731e-03
1.25430909090909e+00 3.28996205476354e-01 3.54223005462374e-03
1.25972727272727e+00 3.26938843266223e-01 3.52767350663916e-03
1.26514545454545e+00 3.24894346676190e-01 3.51314428786938e-03
1.27056363636364e+00 3.22862635236157e-01 3.49864282408288e-03
1.27598181818182e+00 3.20843629010408e-01 3.48416953157072e-03
1.28140000000000e+00 3.18837248547426e-01 3.46972483042728e-03
1.28681818181818e+00 3.16843414892533e-01 3.45530912493214e-03
1.29223636363636e+00 3.14862049584794e-01 3.44092281031703e-03
1.29765454545455e+00 3.12893074653932e-01 3.42656627903520e-03
1.30307272727273e+00 3.10936412602719e-01 3.41223990246654e-03
1.30849090909091e+00 3.08991986447796e-01 3.39794404340100e-03
1.31390909090909e+00 3.07059719672509e-01 3.38367906865631e-03
1.31932727272727e+00 3.05139536238682e-01 3.36944533041703e-03
1.32474545454545e+00 3.03231360583659e-01 3.35524317853428e-03
1.33016363636364e+00 3.01335117603500e-01 3.34107294297195e-03
1.33558181818182e+00 2.99450732691704e-01 3.32693494577636e-03
1.34100000000000e+00 2.97578131694349e-01 3.31282951317860e-03
1.34641818181818e+00 2.95717240921225e-01 3.29875695768951e-03
1.35183636363636e+00 2.93867987142941e-01 3.28471758425825e-03
1.35725454545455e+00 2.92030297588052e-01 3.27071169598221e-03
1.36267272727273e+00 2.90204099927210e-01 3.25673957739881e-03
1.36809090909091e+00 2.88389322309472e-01 3.24280150586546e-03
1.37350909090909e+00 2.86585893320092e-01 3.22889776306418e-03
1.37892727272727e+00 2.84793741990897e-01 3.21502861796105e-03
1.38434545454545e+00 2.83012797797527e-01 3.20119433802211e-03
1.38976363636364e+00 2.81242990644306e-01 3.18739517317609e-03
1.39518181818182e+00 2.79484250898709e-01 3.17363136673144e-03
1.40060000000000e+00 2.77736509351181e-01 3.15990316641595e-03
1.40601818181818e+00 2.75999697224958e-01 3.14621080802061e-03
1.41143636363636e+00 2.74273746173371e-01 3.13255452101187e-03
1.41685454545455e+00 2.72558588277160e-01 3.11893453373843e-03
1.42227272727273e+00 2.70854156030195e-01 3.10535105815896e-03
1.42769090909091e+00 2.69160382371823e-01 3.09180430022701e-03
1.43310909090909e+00 2.67477200649023e-01 3.07829447039227e-03
1.43852727272727e+00 2.65804544625572e-01 3.06482176802619e-03
1.44394545454545e+00 2.64142348479468e-01 3.05138639166119e-03
1.44936363636364e+00 2.62490546789282e-01 3.03798852432505e-03
1.45478181818182e+00 2.60849074564897e-01 3.02462834350924e-03
1.46020000000000e+00 2.59217867211447e-01 3.01130603125002e-03
1.46561818181818e+00 2.57596860538000e-01 2.99802175917303e-03
1.47103636363636e+00 2.55985990755045e-01 2.98477569361480e-03
1.47645454545455e+00 2.54385194471976e-01 2.97156800037543e-03
1.48187272727273e+00 2.52794408684209e-01 2.95839883074746e-03
1.48729090909091e+00 2.51213570802055e-01 2.94526833100243e-03
1.49270909090909e+00 2.49642618616717e-01 2.93217665198595e-03
1.49812727272727e+00 2.48081490308412e-01 2.91912393487178e-03
1.50354545454545e+00 2.46530124443953e-01 2.90611032051692e-03
1.50896363636364e+00 2.44988459964428e-01 2.89313593604149e-03
1.51438181818182e+00 2.43456436212653e-01 2.88020090393934e-03
1.51980000000000e+00 2.41933992900757e-01 2.86730535129133e-03
1.52521818181818e+00 2.40421070117873e-01 2.85444939608106e-03
1.53063636363636e+00 2.38917608327784e-01 2.84163315187335e-03
1.53605454545455e+00 2.37423548366585e-01 2.82885673215625e-03
1.54147272727273e+00 2.35938831431028e-01 2.81612023755023e-03
1.54689090909091e+00 2.34463399104333e-01 2.80342376448294e-03
1.55230909090909e+00 2.32997193325606e-01 2.79076741396354e-03
1.55772727272727e+00 2.31540156397024e-01 2.77815127854123e-03
1.56314545454545e+00 2.30092230981584e-01 2.76557545086169e-03
1.56856363636364e+00 2.28653360091954e-01 2.75304001137708e-03
1.57398181818182e+00 2.27223487115033e-01 2.74054503667928e-03
1.57940000000000e+00 2.25802555782768e-01 2.72809060792862e-03
1.58481818181818e+00 2.24390510178972e-01 2.71567679832259e-03
1.59023636363636e+00 2.22987294737127e-01 2.70330367737307e-03
1.59565454545455e+00 2.21592854238203e-01 2.69097131487772e-03
1.60107272727273e+00 2.20207133800103e-01 2.67867976920145e-03
1.60649090909091e+00 2.18830078900776e-01 2.66642909521510e-03
1.61190909090909e+00 2.17461635350656e-01 2.65421935232554e-03
1.61732727272727e+00 2.16101749299041e-01 2.64205059252926e-03
1.62274545454545e+00 2.14750367231991e-01 2.62992286824440e-03
1.62816363636364e+00 2.13407435962225e-01 2.61783622104738e-03
1.63358181818182e+00 2.12072902651125e-01 2.60579068930122e-03
1.63900000000000e+00 2.10746714782427e-01 2.59378631587311e-03
1.64441818181818e+00 2.09428820168269e-01 2.58182313665128e-03
1.64983636363636e+00 2.08119166947147e-01 2.56990118445845e-03
1.65525454545455e+00 2.06817703581873e-01 2.55802049268701e-03
1.66067272727273e+00 2.05524378850004e-01 2.54618108455585e-03
1.66609090909091e+00 2.04239141864575e-01 2.53438298038111e-03
1.67150909090909e+00 2.02961942049217e-01 2.52262620493089e-03
1.67692727272727e+00 2.01692729143837e-01 2.51091077647433e-03
1.68234545454545e+00 2.00431453202646e-01 2.49923671395568e-03
1.68776363636364e+00 1.99178064584996e-01 2.48760402666593e-03
1.69318181818182e+00 1.97932513975125e-01 2.47601272123133e-03
1.69860000000000e+00 1.96694752358396e-01 2.46446280868352e-03
1.70401818181818e+00 1.95464731026682e-01 2.45295429393089e-03
1.70943636363636e+00 1.94242401576450e-01 2.44148717934223e-03
