Energy (eV)          EEDF (eV^-(3/2))     First Anisotropy
3.48529411764706e-02 6.24033051158919e-02 4.00530212547833e-05
1.04558823529412e-01 6.17729296477504e-02 6.60268360182634e-05
1.74264705882353e-01 6.11489220015915e-02 8.68664740054293e-05
2.43970588235294e-01 6.05312178557717e-02 1.02519259808616e-04
3.13676470588235e-01 5.99197535329450e-02 1.15426378573147e-04
3.83382352941176e-01 5.93144659988407e-02 1.26515266559313e-04
4.53088235294118e-01 5.87152928596492e-02 1.36268073518383e-04
5.22794117647059e-01 5.81221723497167e-02 1.44977256370990e-04
5.92500000000000e-01 5.75350433265061e-02 1.52837630780425e-04
6.62205882352941e-01 5.69538452672695e-02 1.59987487342210e-04
7.31911764705882e-01 5.63785182586489e-02 1.66529636465665e-04
8.01617647058823e-01 5.58090029943184e-02 1.72543253557489e-04
8.71323529411765e-01 5.52452407660706e-02 1.78091033215800e-04
9.41029411764706e-01 5.46871734581739e-02 1.83223751876819e-04
1.01073529411765e+00 5.41347435432633e-02 1.87983308424372e-04
1.08044117647059e+00 5.35878940716815e-02 1.92404822818499e-04
1.15014705882353e+00 5.30465686757365e-02 1.96518130219750e-04
1.21985294117647e+00 5.25107115530346e-02 2.00348871472399e-04
1.28955882352941e+00 5.19802674648294e-02 2.03919305080650e-04
1.35926470588235e+00 5.14551817305031e-02 2.07248925864911e-04
1.42897058823529e+00 5.09354002181743e-02 2.10354941494709e-04
1.49867647058824e+00 5.04208693503495e-02 2.13252647904383e-04
1.56838235294118e+00 4.99115360867870e-02 2.15955727825012e-04
1.63808823529412e+00 4.94073479230879e-02 2.18476489471357e-04
1.70779411764706e+00 4.89082528823249e-02 2.20826060694799e-04
1.77750000000000e+00 4.84141995186815e-02 2.23014549497548e-04
1.84720588235294e+00 4.79251369028814e-02 2.25051177071544e-04
1.91691176470588e+00 4.74410146201300e-02 2.26944387606341e-04
1.98661764705882e+00 4.69617827625063e-02 2.28701940757670e-04
2.05632352941176e+00 4.64873919312302e-02 2.30330991004331e-04
2.12602941176471e+00 4.60177932239568e-02 2.31838155373147e-04
2.19573529411765e+00 4.55529382323298e-02 2.33229570365841e-04
2.26544117647059e+00 4.50927790349784e-02 2.34510941131087e-04
2.33514705882353e+00 4.46372681988092e-02 2.35687585027246e-04
2.40485294117647e+00 4.41863587677298e-02 2.36764469622284e-04
2.47455882352941e+00 4.37400042599664e-02 2.37746244662895e-04
2.54426470588235e+00 4.32981586633112e-02 2.38637271375365e-04
2.61397058823529e+00 4.28607764286899e-02 2.39441647192697e-04
2.68367647058824e+00 4.24278124705608e-02 2.40163228712425e-04
2.75338235294118e+00 4.19992221570640e-02 2.40805652145349e-04
2.82308823529412e+00 4.15749613072050e-02 2.41372350633581e-04
2.89279411764706e+00 4.11549861848462e-02 2.41866569808209e-04
2.96250000000000e+00 4.07392534986171e-02 2.42291382514029e-04
3.03220588235294e+00 4.03277203929435e-02 2.42649702098614e-04
3.10191176470588e+00 3.99203444451653e-02 2.42944293561662e-04
3.17161764705882e+00 3.95170836598970e-02 2.43177783702583e-04
3.24132352941176e+00 3.91178964685679e-02 2.43352671033140e-04
3.31102941176471e+00 3.87227417211936e-02 2.43471334822222e-04
3.38073529411765e+00 3.83315786834693e-02 2.43536042560905e-04
3.45044117647059e+00 3.79443670314584e-02 2.43548956835565e-04
3.52014705882353e+00 3.75610668508504e-02 2.43512142275964e-04
3.58985294117647e+00 3.71816386293691e-02 2.43427571954338e-04
3.65955882352941e+00 3.68060432538711e-02 2.43297132384682e-04
3.72926470588235e+00 3.64342420063281e-02 2.43122628970063e-04
3.79897058823529e+00 3.60661965588644e-02 2.42905790235585e-04
3.86867647058824e+00 3.57018689727398e-02 2.42648272496358e-04
3.93838235294118e+00 3.53412216914556e-02 2.42351664199920e-04
4.00808823529412e+00 3.49842175378991e-02 2.42017489303982e-04
4.07779411764706e+00 3.46308197096461e-02 2.41647210457683e-04
4.14750000000000e+00 3.42809917777927e-02 2.41242232511188e-04
4.21720588235294e+00 3.39346976805316e-02 2.40803905802880e-04
4.28691176470588e+00 3.35919017203398e-02 2.40333528621495e-04
4.35661764705882e+00 3.32525685595242e-02 2.39832349547268e-04
4.42632352941176e+00 3.29166632189381e-02 2.39301570156243e-04
4.49602941176471e+00 3.25841510719791e-02 2.38742347568582e-04
4.56573529411765e+00 3.22549978418287e-02 2.38155796274552e-04
4.63544117647059e+00 3.19291695972223e-02 2.37542989887327e-04
4.70514705882353e+00 3.16066327510812e-02 2.36904963272068e-04
4.77485294117647e+00 3.12873540548883e-02 2.36242714563029e-04
4.84455882352941e+00 3.09713005959877e-02 2.35557206419428e-04
4.91426470588235e+00 3.06584397941993e-02 2.34849367829582e-04
4.98397058823529e+00 3.03487393978389e-02 2.34120095228682e-04
5.05367647058824e+00 3.00421674822701e-02 2.33370254117107e-04
5.12338235294118e+00 2.97386924447100e-02 2.32600680603016e-04
5.19308823529412e+00 2.94382830016171e-02 2.31812182383237e-04
5.26279411764706e+00 2.91409081849042e-02 2.31005539705703e-04
5.33250000000000e+00 2.88465373404521e-02 2.30181506694617e-04
5.40220588235294e+00 2.85551401232195e-02 2.29340812618988e-04
5.47191176470588e+00 2.82666864946999e-02 2.28484162648274e-04
5.54161764705882e+00 2.79811467193131e-02 2.27612238601941e-04
5.61132352941176e+00 2.76984913628975e-02 2.26725700050208e-04
5.68102941176471e+00 2.74186912880968e-02 2.25825185371816e-04
5.75073529411765e+00 2.71417176518890e-02 2.24911312340378e-04
5.82044117647059e+00 2.68675419021459e-02 2.23984678712708e-04
5.89014705882353e+00 2.65961357761144e-02 2.23045863154892e-04
5.95985294117647e+00 2.63274712960591e-02 2.22095426135328e-04
6.02955882352941e+00 2.60615207668642e-02 2.21133910293054e-04
6.09926470588235e+00 2.57982567731818e-02 2.20161841259289e-04
6.16897058823529e+00 2.55376521761845e-02 2.19179727999819e-04
6.23867647058823e+00 2.52796801120413e-02 2.18188063571370e-04
6.30838235294118e+00 2.50243139878584e-02 2.17187325853987e-04
6.37808823529412e+00 2.47715274793749e-02 2.16177977889315e-04
6.44779411764706e+00 2.45212945278626e-02 2.15160468230492e-04
6.51750000000000e+00 2.42735893386102e-02 2.14135231593693e-04
6.58720588235294e+00 2.40283863770793e-02 2.13102689490775e-04
6.65691176470588e+00 2.37856603666722e-02 2.12063250494680e-04
6.72661764705882e+00 2.35453862857717e-02 2.11017310518457e-04
6.79632352941176e+00 2.33075393662392e-02 2.09965253381452e-04
6.86602941176471e+00 2.30720950897706e-02 2.08907451360481e-04
6.93573529411765e+00 2.28390291857363e-02 2.07844265397855e-04
7.00544117647059e+00 2.26083176283528e-02 2.06776045324273e-04
7.07514705882353e+00 2.23799366352001e-02 2.05703130354674e-04
7.14485294117647e+00 2.21538626637638e-02 2.04625849572108e-04
7.21455882352941e+00 2.19300724093464e-02 2.03544522021808e-04
7.28426470588235e+00 2.17085428026673e-02 2.02459457163799e-04
7.35397058823529e+00 2.14892510071872e-02 2.01370954967305e-04
7.42367647058823e+00 2.12721744176525e-02 2.00279306333946e-04
7.49338235294118e+00 2.10572906568557e-02 1.99184793511839e-04
7.56308823529412e+00 2.08445775736366e-02 1.98087690214961e-04
7.63279411764706e+00 2.06340132403240e-02 1.96988261758254e-04
7.70250000000000e+00 2.04255759513066e-02 1.95886765433690e-04
7.77220588235294e+00 2.02192442199543e-02 1.94783450879037e-04
7.84191176470588e+00 2.00149967766876e-02 1.93678560169533e-04
7.91161764705882e+00 1.98128125665306e-02 1.92572327925283e-04
7.98132352941176e+00 1.96126707477112e-02 1.91464981647316e-04
8.05102941176471e+00 1.94145506887333e-02 1.90356742047681e-04
8.12073529411765e+00 1.92184319665124e-02 1.89247823118803e-04
8.19044117647059e+00 1.90242943640352e-02 1.88138432218293e-04
8.26014705882353e+00 1.88321178689904e-02 1.87028770370752e-04
8.32985294117647e+00 1.86418826709826e-02 1.85919032564678e-04
8.39955882352941e+00 1.84535691597333e-02 1.84809407750326e-04
8.46926470588235e+00 1.82671579230607e-02 1.83700079120222e-04
8.53897058823529e+00 1.80826297446632e-02 1.82591224113888e-04
8.60867647058823e+00 1.78999656027890e-02 1.81483014682559e-04
8.67838235294118e+00 1.77191466676175e-02 1.80375617550199e-04
8.74808823529412e+00 1.75401542995406e-02 1.79269194247522e-04
8.81779411764706e+00 1.73629700470412e-02 1.78163901160514e-04
8.88750000000000e+00 1.71875756453962e-02 1.77059889770364e-04
8.95720588235294e+00 1.70139530141819e-02 1.75957306890370e-04
9.02691176470588e+00 1.68420842556167e-02 1.74856294688565e-04
9.09661764705882e+00 1.66719516525302e-02 1.73756990724292e-04
9.16632352941176e+00 1.65035376671001e-02 1.72659528166472e-04
9.23602941176471e+00 1.63368249384748e-02 1.71564036009344e-04
9.30573529411765e+00 1.61717962811756e-02 1.70470639085769e-04
9.37544117647059e+00 1.60084346831526e-02 1.69379458094019e-04
9.44514705882353e+00 1.58467233045552e-02 1.68290609796901e-04
9.51485294117647e+00 1.56866454754661e-02 1.67204207218840e-04
9.58455882352941e+00 1.55281846943612e-02 1.66120359609536e-04
9.65426470588235e+00 1.53713246264093e-02 1.65039172631341e-04
9.72397058823529e+00 1.52160491016290e-02 1.63960748330726e-04
9.79367647058823e+00 1.50623421137025e-02 1.62885185316101e-04
9.86338235294118e+00 1.49101878178400e-02 1.61812578934095e-04
9.93308823529412e+00 1.47595705293104e-02 1.60743021268196e-04
1.00027941176471e+01 1.46104747216760e-02 1.59676601305372e-04
1.00725000000000e+01 1.44628850250543e-02 1.58613404322596e-04
1.01422058823529e+01 1.43167862270013e-02 1.57553513364054e-04
1.02119117647059e+01 1.41721632655550e-02 1.56497008746449e-04
1.02816176470588e+01 1.40290012323598e-02 1.55443967063745e-04
1.03513235294118e+01 1.38872853696571e-02 1.54394462530952e-04
1.04210294117647e+01 1.37470010687665e-02 1.53348566657241e-04
1.04907352941176e+01 1.36081338685796e-02 1.52306347964626e-04
1.05604411764706e+01 1.34706694553653e-02 1.51267873122966e-04
1.06301470588235e+01 1.33345936573718e-02 1.50233206302591e-04
1.06998529411765e+01 1.31998924473214e-02 1.49202408512310e-04
1.07695588235294e+01 1.30665519396325e-02 1.48175538757813e-04
1.08392647058824e+01 1.29345583889922e-02 1.47152653405589e-04
1.09089705882353e+01 1.28038981901294e-02 1.46133807240092e-04
1.09786764705882e+01 1.26745578728078e-02 1.45119052854673e-04
1.10483823529412e+01 1.25465241040714e-02 1.44108440028967e-04
1.11180882352941e+01 1.24197836856483e-02 1.43102016808175e-04
1.11877941176471e+01 1.22943235525898e-02 1.42099829212487e-04
1.12575000000000e+01 1.21701307719256e-02 1.41101920985481e-04
1.13272058823529e+01 1.20471925424097e-02 1.40108334565884e-04
1.13969117647059e+01 1.19254961899333e-02 1.39119110521025e-04
1.14666176470588e+01 1.18050291695130e-02 1.38134286967860e-04
1.15363235294118e+01 1.16857790628887e-02 1.37153900565678e-04
1.16060294117647e+01 1.15677335772457e-02 1.36177986244277e-04
1.16757352941176e+01 1.14508805439472e-02 1.35206576968097e-04
1.17454411764706e+01 1.13352079182597e-02 1.34239704630500e-04
1.18151470588235e+01 1.12207037751461e-02 1.33277399526858e-04
1.18848529411765e+01 1.11073563110264e-02 1.32319689816188e-04
1.19545588235294e+01 1.09951538415546e-02 1.31366602435216e-04
1.20242647058824e+01 1.08840848004166e-02 1.30418162580990e-04
1.20939705882353e+01 1.07741377390414e-02 1.29474394546075e-04
1.21636764705882e+01 1.06653013226859e-02 1.28535321222950e-04
1.22333823529412e+01 1.05575643320236e-02 1.27600963597744e-04
1.23030882352941e+01 1.04509156610609e-02 1.26671341604062e-04
1.23727941176471e+01 1.03453443159923e-02 1.25746473882649e-04
1.24425000000000e+01 1.02408394140686e-02 1.24826377571959e-04
1.25122058823529e+01 1.01373901832966e-02 1.23911069078158e-04
1.25819117647059e+01 1.00349859588409e-02 1.23000563614205e-04
1.26516176470588e+01 9.93361618443270e-03 1.22094874729076e-04
1.27213235294118e+01 9.83327041043797e-03 1.21194015095281e-04
1.27910294117647e+01 9.73393829278128e-03 1.20297996284497e-04
1.28607352941176e+01 9.63560959187959e-03 1.19406828571705e-04
1.29304411764706e+01 9.53827417233534e-03 1.18520521645671e-04
1.30001470588235e+01 9.44192199962634e-03 1.17639084180257e-04
1.30698529411765e+01 9.34654314135511e-03 1.16762523396640e-04
1.31395588235294e+01 9.25212776545651e-03 1.15890845790254e-04
1.32092647058824e+01 9.15866613918631e-03 1.15024056709921e-04
1.32789705882353e+01 9.06614862880938e-03 1.14162161022750e-04
1.33486764705882e+01 8.97456569651220e-03 1.13305162710821e-04
1.34183823529412e+01 8.88390790153100e-03 1.12453064459383e-04
1.34880882352941e+01 8.79416589846881e-03 1.11605868337196e-04
1.35577941176471e+01 8.70533043633207e-03 1.10763575598627e-04
1.36275000000000e+01 8.61739235757790e-03 1.09926186510331e-04
1.36972058823529e+01 8.53034259780150e-03 1.09093700965584e-04
1.37669117647059e+01 8.44417218289061e-03 1.08266118109088e-04
1.38366176470588e+01 8.35887223002692e-03 1.07443435953922e-04
1.39063235294118e+01 8.27443394612250e-03 1.06625652010384e-04
1.39760294117647e+01 8.19084862691423e-03 1.05812763101357e-04
1.40457352941176e+01 8.10810765606644e-03 1.05004765200394e-04
1.41154411764706e+01 8.02620250485971e-03 1.04201653999720e-04
1.41851470588235e+01 7.94512472956622e-03 1.03403424561165e-04
1.42548529411765e+01 7.86486597233877e-03 1.02610070959792e-04
1.43245588235294e+01 7.78541795975731e-03 1.01821586865497e-04
1.43942647058824e+01 7.70677250197752e-03 1.01037965200308e-04
1.44639705882353e+01 7.62892149242076e-03 1.00259198670759e-04
1.45336764705882e+01 7.55185690532092e-03 9.94852794393487e-05
1.46033823529412e+01 7.47557079652747e-03 9.87161987891680e-05
1.46730882352941e+01 7.40005530213853e-03 9.79519476690416e-05
1.47427941176471e+01 7.32530263769023e-03 9.71925165308197e-05
1.48125000000000e+01 7.25130509735487e-03 9.64378951863039e-05
1.48822058823529e+01 7.17805505363549e-03 9.56880733000114e-05
1.49519117647059e+01 7.10554495510002e-03 9.49430400834007e-05
1.50216176470588e+01 7.03376732709416e-03 9.42027839827545e-05
1.50913235294118e+01 6.96271477046938e-03 9.34672931838879e-05
1.51610294117647e+01 6.89237996082085e-03 9.27365554603802e-05
1.52307352941176e+01 6.82275564773232e-03 9.20105580399872e-05
1.53004411764706e+01 6.75383465447651e-03 9.12892880609711e-05
1.53701470588235e+01 6.68560987592084e-03 9.05727322874671e-05
1.54398529411765e+01 6.61807427916020e-03 8.98608768189538e-05
1.55095588235294e+01 6.55122090233275e-03 8.91537075577729e-05
1.55792647058824e+01 6.48504285390333e-03 8.84512099296768e-05
1.56489705882353e+01 6.41953331236844e-03 8.77533693120475e-05
1.57186764705882e+01 6.35468552429544e-03 8.70601707658772e-05
1.57883823529412e+01 6.29049280489395e-03 8.63715987622368e-05
1.58580882352941e+01 6.22694853690066e-03 8.56876376209983e-05
1.59277941176471e+01 6.16404616989728e-03 8.50082713771160e-05
1.59975000000000e+01 6.10177921963574e-03 8.43334836626561e-05
1.60672058823529e+01 6.04014126775070e-03 8.36632581037098e-05
1.61369117647059e+01 5.97912595994515e-03 8.29975780708162e-05
1.62066176470588e+01 5.91872700649721e-03 8.23364264242542e-05
1.62763235294118e+01 5.85893818122120e-03 8.16797859207984e-05
1.63460294117647e+01 5.79975332082618e-03 8.10276390889560e-05
1.64157352941176e+01 5.74116632428064e-03 8.03799681188194e-05
1.64854411764706e+01 5.68317115253319e-03 7.97367552301322e-05
1.65551470588235e+01 5.62576182683257e-03 7.90979824398366e-05
1.66248529411765e+01 5.56893242917706e-03 7.84636313248570e-05
1.66945588235294e+01 5.51267710134603e-03 7.78336833993453e-05
1.67642647058824e+01 5.45699004429684e-03 7.72081198864313e-05
1.68339705882353e+01 5.40186551789190e-03 7.65869220639708e-05
1.69036764705882e+01 5.34729783932349e-03 7.59700710455513e-05
1.69733823529412e+01 5.29328138351916e-03 7.53575475570250e-05
1.70430882352941e+01 5.23981058222870e-03 7.47493322908939e-05
1.71127941176471e+01 5.18687992345024e-03 7.41454057963545e-05
1.71825000000000e+01 5.13448395086231e-03 7.35457483820405e-05
1.72522058823529e+01 5.08261726355996e-03 7.29503404368537e-05
1.73219117647059e+01 5.03127451459475e-03 7.23591622259409e-05
1.73916176470588e+01 4.98045041133384e-03 7.17721936824913e-05
1.74613235294118e+01 4.93013971460841e-03 7.11894147366513e-05
1.75310294117647e+01 4.88033723817390e-03 7.06108052129307e-05
1.76007352941176e+01 4.83103784817537e-03 7.00363447393804e-05
1.76704411764706e+01 4.78223646289269e-03 6.94660130454225e-05
1.77401470588235e+01 4.73392805138680e-03 6.88997897717159e-05
1.78098529411765e+01 4.68610763381745e-03 6.83376542761627e-05
1.78795588235294e+01 4.63877028064860e-03 6.77795859392873e-05
1.79492647058824e+01 4.59191111214088e-03 6.72255639775145e-05
1.80189705882353e+01 4.54552529810390e-03 6.66755677231813e-05
1.80886764705882e+01 4.49960805662540e-03 6.61295764453278e-05
1.81583823529412e+01 4.45415465435724e-03 6.55875691668556e-05
1.82280882352941e+01 4.40916040576575e-03 6.50495249516387e-05
1.82977941176471e+01 4.36462067264872e-03 6.45154228140540e-05
1.83675000000000e+01 4.32053086365748e-03 6.39852416387756e-05
1.84372058823529e+01 4.27688643405870e-03 6.34589604408636e-05
1.85069117647059e+01 4.23368288455482e-03 6.29365581987113e-05
1.85766176470588e+01 4.19091576153679e-03 6.24180136836033e-05
1.86463235294118e+01 4.14858065638413e-03 6.19033057264547e-05
1.87160294117647e+01 4.10667320501068e-03 6.13924131333650e-05
1.87857352941176e+01 4.06518908741476e-03 6.08853146107021e-05
1.88554411764706e+01 4.02412402745018e-03 6.03819890067630e-05
1.89251470588235e+01 3.98347379173114e-03 5.98824151560288e-05
1.89948529411765e+01 3.94323418985520e-03 5.93865717202622e-05
1.90645588235294e+01 3.90340107374960e-03 5.88944374363764e-05
1.91342647058824e+01 3.86397033724411e-03 5.84059909634611e-05
1.92039705882353e+01 3.82493791584935e-03 5.79212111101512e-05
1.92736764705882e+01 3.78629978572763e-03 5.74400766877537e-05
1.93433823529412e+01 3.74805196389304e-03 5.69625663604227e-05
1.94130882352941e+01 3.71019050759428e-03 5.64886588783682e-05
1.94827941176471e+01 3.67271151390819e-03 5.60183330033468e-05
1.95525000000000e+01 3.63561111933763e-03 5.55515674424866e-05
1.96222058823529e+01 3.59888549959901e-03 5.50883410596553e-05
1.96919117647059e+01 3.56253086866603e-03 5.46286327384775e-05
1.97616176470588e+01 3.52654347894574e-03 5.41724212426084e-05
1.98313235294118e+01 3.49091962070188e-03 5.37196854325669e-05
1.99010294117647e+01 3.45565562167263e-03 5.32704041961667e-05
1.99707352941176e+01 3.42074784669209e-03 5.28245563866854e-05
2.00404411764706e+01 3.38619269748676e-03 5.23821210194109e-05
2.01101470588235e+01 3.35198661178676e-03 5.19430771438785e-05
2.01798529411765e+01 3.31812606348047e-03 5.15074037135345e-05
2.02495588235294e+01 3.28460756207558e-03 5.10750797873861e-05
2.03192647058824e+01 3.25142765233963e-03 5.06460844044901e-05
2.03889705882353e+01 3.21858291410360e-03 5.02203967689958e-05
2.04586764705882e+01 3.18606996142580e-03 4.97979961296132e-05
2.05283823529412e+01 3.15388544273007e-03 4.93788616566596e-05
2.05980882352941e+01 3.12202604029663e-03 4.89629726319060e-05
2.06677941176471e+01 3.09048846991999e-03 4.85503083871672e-05
2.07375000000000e+01 3.05926948057062e-03 4.81408482496472e-05
2.08072058823529e+01 3.02836585420721e-03 4.77345717140870e-05
2.08769117647059e+01 2.99777440499900e-03 4.73314583302992e-05
2.09466176470588e+01 2.96749197944675e-03 4.69314875884502e-05
2.10163235294118e+01 2.93751545590657e-03 4.65346390956987e-05
2.10860294117647e+01 2.90784174426836e-03 4.61408925188281e-05
2.11557352941176e+01 2.87846778563720e-03 4.57502275331820e-05
2.12254411764706e+01 2.84939055215409e-03 4.53626239828466e-05
2.12951470588235e+01 2.82060704627246e-03 4.49780617756999e-05
2.13648529411765e+01 2.79211430086365e-03 4.45965207763558e-05
2.14345588235294e+01 2.76390937877175e-03 4.42179809705521e-05
2.15042647058824e+01 2.73598937251101e-03 4.38424223620356e-05
2.15739705882353e+01 2.70835140409326e-03 4.34698251234473e-05
2.16436764705882e+01 2.68099262434671e-03 4.31001694972803e-05
2.17133823529412e+01 2.65391021300963e-03 4.27334356948519e-05
2.17830882352941e+01 2.62710137830953e-03 4.23696040511419e-05
2.18527941176471e+01 2.60056335667535e-03 4.20086549741293e-05
2.19225000000000e+01 2.57429341245265e-03 4.16505688996350e-05
2.19922058823529e+01 2.54828883773902e-03 4.12953264317733e-05
