Energy (eV)          EEDF (eV^-(3/2))     First Anisotropy
5.73333333333333e-02 1.00728229231912e-01 9.67902449392935e-05
1.72000000000000e-01 9.84296442465693e-02 1.58537563343910e-04
2.86666666666667e-01 9.61835122258301e-02 2.05896040691890e-04
4.01333333333333e-01 9.39886361947492e-02 2.39875213459322e-04
5.16000000000000e-01 9.18438465090067e-02 2.66605492270499e-04
6.30666666666667e-01 8.97480002195578e-02 2.88463631204363e-04
7.45333333333333e-01 8.76999804502539e-02 3.06708885163041e-04
8.60000000000000e-01 8.56986958158041e-02 3.22118914934111e-04
9.74666666666667e-01 8.37430798383158e-02 3.35220644887696e-04
1.08933333333333e+00 8.18320903719016e-02 3.46394181260625e-04
1.20400000000000e+00 7.99647090491587e-02 3.55926409659510e-04
1.31866666666667e+00 7.81399407626221e-02 3.64041396975327e-04
1.43333333333333e+00 7.63568130821985e-02 3.70918891248030e-04
1.54800000000000e+00 7.46143757833618e-02 3.76706211016625e-04
1.66266666666667e+00 7.29117003364597e-02 3.81526234722136e-04
1.77733333333333e+00 7.12478793784729e-02 3.85482956811994e-04
1.89200000000000e+00 6.96220262630294e-02 3.88665472257382e-04
2.00666666666667e+00 6.80332745851398e-02 3.91150912823078e-04
2.12133333333333e+00 6.64807776940663e-02 3.93006651275900e-04
2.23600000000000e+00 6.49637082677117e-02 3.94291990849181e-04
2.35066666666667e+00 6.34812578698106e-02 3.95059486386722e-04
2.46533333333333e+00 6.20326364990873e-02 3.95355986172385e-04
2.58000000000000e+00 6.06170721884353e-02 3.95223467184766e-04
2.69466666666667e+00 5.92338105921194e-02 3.94699716463131e-04
2.80933333333333e+00 5.78821145676157e-02 3.93818886890193e-04
2.92400000000000e+00 5.65612637990923e-02 3.92611957484728e-04
3.03866666666667e+00 5.52705544124739e-02 3.91107121233530e-04
3.15333333333333e+00 5.40092985870484e-02 3.89330109103679e-04
3.26800000000000e+00 5.27768242023485e-02 3.87304465054060e-04
3.38266666666667e+00 5.15724744791317e-02 3.85051783890077e-04
3.49733333333333e+00 5.03956076182895e-02 3.82591913404596e-04
3.61200000000000e+00 4.92455964700360e-02 3.79943129266083e-04
3.72666666666667e+00 4.81218281990206e-02 3.77122289649332e-04
3.84133333333333e+00 4.70237039483899e-02 3.74144968244801e-04
3.95600000000000e+00 4.59506385301135e-02 3.71025571108628e-04
4.07066666666667e+00 4.49020601125845e-02 3.67777441985027e-04
4.18533333333333e+00 4.38774099079211e-02 3.64412953650279e-04
4.30000000000000e+00 4.28761418822451e-02 3.60943589162366e-04
4.41466666666667e+00 4.18977224642439e-02 3.57380016369835e-04
4.52933333333333e+00 4.09416302539917e-02 3.53732152867974e-04
4.64400000000000e+00 4.00073557520115e-02 3.50009224370605e-04
4.75866666666667e+00 3.90944010873817e-02 3.46219819092436e-04
4.87333333333333e+00 3.82022797465136e-02 3.42371935288905e-04
4.98800000000000e+00 3.73305163198642e-02 3.38473024342041e-04
5.10266666666667e+00 3.64786462482684e-02 3.34530031497818e-04
5.21733333333333e+00 3.56462155702457e-02 3.30549431503482e-04
5.33200000000000e+00 3.48327806852755e-02 3.26537261137264e-04
5.44666666666667e+00 3.40379081171281e-02 3.22499150396609e-04
5.56133333333333e+00 3.32611742783892e-02 3.18440349755775e-04
5.67600000000000e+00 3.25021652492614e-02 3.14365755196719e-04
5.79066666666667e+00 3.17604765567516e-02 3.10279932529671e-04
5.90533333333333e+00 3.10357129552044e-02 3.06187138598236e-04
6.02000000000000e+00 3.03274882196481e-02 3.02091340851841e-04
6.13466666666667e+00 2.96354249397731e-02 2.97996236609004e-04
6.24933333333333e+00 2.89591543153587e-02 2.93905269792796e-04
6.36400000000000e+00 2.82983159632352e-02 2.89821646445098e-04
6.47866666666667e+00 2.76525577250597e-02 2.85748350188157e-04
6.59333333333333e+00 2.70215354766059e-02 2.81688155594957e-04
6.70800000000000e+00 2.64049129474651e-02 2.77643640630092e-04
6.82266666666667e+00 2.58023615416954e-02 2.73617199201490e-04
6.93733333333333e+00 2.52135601600169e-02 2.69611051954159e-04
7.05200000000000e+00 2.46381950314295e-02 2.65627256345487e-04
7.16666666666667e+00 2.40759595458706e-02 2.61667716934288e-04
7.28133333333333e+00 2.35265540884308e-02 2.57734194172129e-04
7.39600000000000e+00 2.29896858821126e-02 2.53828312631834e-04
7.51066666666667e+00 2.24650688316933e-02 2.49951569512391e-04
7.62533333333333e+00 2.19524233691363e-02 2.46105341853661e-04
7.74000000000000e+00 2.14514763067665e-02 2.42290893304928e-04
7.85466666666667e+00 2.09619606915851e-02 2.38509381205593e-04
7.96933333333333e+00 2.04836156611138e-02 2.34761862544167e-04
8.08400000000000e+00 2.00161863063036e-02 2.31049299559848e-04
8.19866666666667e+00 1.95594235356035e-02 2.27372565673924e-04
8.31333333333333e+00 1.91130839405246e-02 2.23732450438395e-04
8.42800000000000e+00 1.86769296676460e-02 2.20129664195651e-04
8.54266666666667e+00 1.82507282917818e-02 2.16564843073447e-04
8.65733333333333e+00 1.78342526906057e-02 2.13038553113248e-04
8.77200000000000e+00 1.74272809251550e-02 2.09551294163091e-04
8.88666666666667e+00 1.70295961214879e-02 2.06103504103024e-04
9.00133333333333e+00 1.66409863537519e-02 2.02695562302220e-04
9.11600000000000e+00 1.62612445326272e-02 1.99327792882740e-04
9.23066666666667e+00 1.58901682949053e-02 1.96000468307849e-04
9.34533333333333e+00 1.55275598944291e-02 1.92713812285947e-04
9.46000000000000e+00 1.51732260979516e-02 1.89468002514770e-04
9.57466666666667e+00 1.48269780821060e-02 1.86263173738614e-04
9.68933333333333e+00 1.44886313316834e-02 1.83099420193567e-04
9.80400000000000e+00 1.41580055424186e-02 1.79976797920048e-04
9.91866666666667e+00 1.38349245248548e-02 1.76895327374692e-04
1.00333333333333e+01 1.35192161094647e-02 1.73854995616562e-04
1.01480000000000e+01 1.32107120549935e-02 1.70855757644659e-04
1.02626666666667e+01 1.29092479632827e-02 1.67897539728692e-04
1.03773333333333e+01 1.26146631817724e-02 1.64980240690367e-04
1.04920000000000e+01 1.23268007269207e-02 1.62103732313467e-04
1.06066666666667e+01 1.20455072001408e-02 1.59267863421982e-04
1.07213333333333e+01 1.17706326980143e-02 1.56472460294485e-04
1.08360000000000e+01 1.15020307405590e-02 1.53717327047895e-04
1.09506666666667e+01 1.12395581928046e-02 1.51002249267892e-04
1.10653333333333e+01 1.09830751812522e-02 1.48326994282325e-04
1.11800000000000e+01 1.07324450266999e-02 1.45691311412272e-04
1.12946666666667e+01 1.04875341710791e-02 1.43094935209858e-04
1.14093333333333e+01 1.02482120997116e-02 1.40537585617945e-04
1.15240000000000e+01 1.00143512784192e-02 1.38018968114025e-04
1.16386666666667e+01 9.78582708526538e-03 1.35538776602639e-04
1.17533333333333e+01 9.56251773819807e-03 1.33096693483535e-04
1.18680000000000e+01 9.34430423618123e-03 1.30692389709251e-04
1.19826666666667e+01 9.13107029551343e-03 1.28325527372754e-04
1.20973333333333e+01 8.92270228247271e-03 1.25995759702212e-04
1.22120000000000e+01 8.71908915822414e-03 1.23702731049328e-04
1.23266666666667e+01 8.52012241940752e-03 1.21446079207334e-04
1.24413333333333e+01 8.32569603543061e-03 1.19225435347247e-04
1.25560000000000e+01 8.13570639691938e-03 1.17040423950970e-04
1.26706666666667e+01 7.95005226028813e-03 1.14890664890153e-04
1.27853333333333e+01 7.76863468935343e-03 1.12775773316160e-04
1.29000000000000e+01 7.59135700710681e-03 1.10695359549439e-04
1.30146666666667e+01 7.41812474400012e-03 1.08649030945883e-04
1.31293333333333e+01 7.24884558357629e-03 1.06636391750547e-04
1.32440000000000e+01 7.08342931735716e-03 1.04657042952787e-04
1.33586666666667e+01 6.92178779659446e-03 1.02710583963409e-04
1.34733333333333e+01 6.76383488163612e-03 1.00796612440408e-04
1.35880000000000e+01 6.60948639973352e-03 9.89147241177176e-05
1.37026666666667e+01 6.45866010002571e-03 9.70645143135686e-05
1.38173333333333e+01 6.31127560637998e-03 9.52455777350938e-05
1.39320000000000e+01 6.16725437793468e-03 9.34575082871290e-05
1.40466666666667e+01 6.02651966709958e-03 9.16999004297930e-05
1.41613333333333e+01 5.88899647562865e-03 8.99723489675690e-05
1.42760000000000e+01 5.75461151772510e-03 8.82744488434879e-05
1.43906666666667e+01 5.62329318085579e-03 8.66057963618179e-05
1.45053333333333e+01 5.49497148483117e-03 8.49659889662426e-05
1.46200000000000e+01 5.36957804730993e-03 8.33546250238147e-05
1.47346666666667e+01 5.24704604723865e-03 8.17713049268126e-05
1.48493333333333e+01 5.12731018673021e-03 8.02156308638195e-05
1.49640000000000e+01 5.01030665881514e-03 7.86872065970608e-05
1.50786666666667e+01 4.89597311333038e-03 7.71856384558867e-05
1.51933333333333e+01 4.78424862140233e-03 7.57105351038659e-05
1.53080000000000e+01 4.67507364530131e-03 7.42615073124694e-05
1.54226666666667e+01 4.56839000661522e-03 7.28381688572593e-05
1.55373333333333e+01 4.46414085315713e-03 7.14401362835403e-05
1.56520000000000e+01 4.36227063078796e-03 7.00670286787987e-05
1.57666666666667e+01 4.26272505372199e-03 6.87184684814656e-05
1.58813333333333e+01 4.16545107369148e-03 6.73940812471969e-05
1.59960000000000e+01 4.07039685361119e-03 6.60934954220338e-05
1.61106666666667e+01 3.97751173987285e-03 6.48163430725292e-05
1.62253333333333e+01 3.88674623361115e-03 6.35622596543220e-05
1.63400000000000e+01 3.79805196609158e-03 6.23308837876128e-05
1.64546666666667e+01 3.71138167286046e-03 6.11218579165069e-05
1.65693333333333e+01 3.62668916696773e-03 5.99348280812188e-05
1.66840000000000e+01 3.54392931596687e-03 5.87694436971371e-05
1.67986666666667e+01 3.46305801779616e-03 5.76253581504015e-05
1.69133333333333e+01 3.38403217582367e-03 5.65022285747982e-05
1.70280000000000e+01 3.30680967735514e-03 5.53997156354211e-05
1.71426666666667e+01 3.23134937113042e-03 5.43174840667745e-05
1.72573333333333e+01 3.15761104406556e-03 5.32552024551860e-05
1.73720000000000e+01 3.08555540117093e-03 5.22125430278478e-05
1.74866666666667e+01 3.01514404455464e-03 5.11891821390800e-05
1.76013333333333e+01 2.94633945174539e-03 5.01848000588950e-05
1.77160000000000e+01 2.87910495692931e-03 4.91990807680231e-05
1.78306666666667e+01 2.81340473135941e-03 4.82317123973954e-05
1.79453333333333e+01 2.74920376315081e-03 4.72823870233273e-05
1.80600000000000e+01 2.68646783975075e-03 4.63508004689727e-05
1.81746666666667e+01 2.62516352965978e-03 4.54366527015746e-05
1.82893333333333e+01 2.56525816359870e-03 4.45396476346035e-05
1.84040000000000e+01 2.50671981813138e-03 4.36594929359595e-05
1.85186666666667e+01 2.44951729860994e-03 4.27959003870741e-05
1.86333333333333e+01 2.39362012161953e-03 4.19485856922256e-05
1.87480000000000e+01 2.33899849967888e-03 4.11172682937000e-05
1.88626666666667e+01 2.28562332532752e-03 4.03016716964238e-05
1.89773333333333e+01 2.23346615476099e-03 3.95015232845842e-05
1.90920000000000e+01 2.18249919353903e-03 3.87165541438710e-05
1.92066666666667e+01 2.13269528173812e-03 3.79464993549533e-05
1.93213333333333e+01 2.08402787869606e-03 3.71910978174554e-05
1.94360000000000e+01 2.03647104966183e-03 3.64500920793299e-05
1.95506666666667e+01 1.98999945194223e-03 3.57232286021611e-05
1.96653333333333e+01 1.94458832068009e-03 3.50102575924878e-05
1.97800000000000e+01 1.90021345638430e-03 3.43109328382938e-05
1.98946666666667e+01 1.85685121200391e-03 3.36250119488318e-05
2.00093333333333e+01 1.81447847966961e-03 3.29522561932304e-05
2.01240000000000e+01 1.77307267904621e-03 3.22924303440390e-05
2.02386666666667e+01 1.73261174527226e-03 3.16453028940039e-05
2.03533333333333e+01 1.69307411659901e-03 3.10106459018544e-05
2.04680000000000e+01 1.65443872351165e-03 3.03882348428003e-05
2.05826666666667e+01 1.61668497747633e-03 2.97778488044520e-05
2.06973333333333e+01 1.57979275941564e-03 2.91792703396501e-05
2.08120000000000e+01 1.54374240954818e-03 2.85922853237826e-05
2.09266666666667e+01 1.50851471688885e-03 2.80166831318309e-05
2.10413333333333e+01 1.47409090850406e-03 2.74522564980761e-05
2.11560000000000e+01 1.44045264002238e-03 2.68988013800761e-05
2.12706666666667e+01 1.40758198583781e-03 2.63561171186309e-05
2.13853333333333e+01 1.37546142909157e-03 2.58240063041806e-05
2.15000000000000e+01 1.34407385280988e-03 2.53022746472646e-05
2.16146666666667e+01 1.31340253076306e-03 2.47907311230219e-05
2.17293333333333e+01 1.28343111812459e-03 2.42891878440830e-05
2.18440000000000e+01 1.25414364319477e-03 2.37974599373165e-05
2.19586666666667e+01 1.22552449887179e-03 2.33153656743298e-05
2.20733333333333e+01 1.19755843394202e-03 2.28427263506422e-05
2.21880000000000e+01 1.17023054535109e-03 2.23793661685134e-05
2.23026666666667e+01 1.14352627024588e-03 2.19251123547709e-05
2.24173333333333e+01 1.11743137785324e-03 2.14797950460452e-05
2.25320000000000e+01 1.09193196226250e-03 2.10432471774679e-05
2.26466666666667e+01 1.06701443500009e-03 2.06153045890231e-05
2.27613333333333e+01 1.04266551745688e-03 2.01958059166198e-05
2.28760000000000e+01 1.01887223414828e-03 1.97845924864437e-05
2.29906666666667e+01 9.95621905786022e-04 1.93815084109201e-05
2.31053333333333e+01 9.72902142216749e-04 1.89864004853949e-05
2.32200000000000e+01 9.50700836128417e-04 1.85991180879194e-05
2.33346666666667e+01 9.29006156585796e-04 1.82195132658080e-05
2.34493333333333e+01 9.07806542445763e-04 1.78474406377013e-05
2.35640000000000e+01 8.87090696480528e-04 1.74827572985638e-05
2.36786666666667e+01 8.66847579345857e-04 1.71253228977268e-05
2.37933333333333e+01 8.47066403440746e-04 1.67749995461072e-05
2.39080000000000e+01 8.27736627419996e-04 1.64316517261985e-05
2.40226666666667e+01 8.08847950566174e-04 1.60951463624061e-05
2.41373333333333e+01 7.90390307063595e-04 1.57653527331969e-05
2.42520000000000e+01 7.72353860874546e-04 1.54421423858703e-05
2.43666666666667e+01 7.54729000487959e-04 1.51253891999148e-05
2.44813333333333e+01 7.37506333579658e-04 1.48149693038694e-05
2.45960000000000e+01 7.20676682228217e-04 1.45107609946584e-05
2.47106666666667e+01 7.04231078015149e-04 1.42126447946348e-05
2.48253333333333e+01 6.88160757045255e-04 1.39205033729364e-05
2.49400000000000e+01 6.72457155479711e-04 1.36342214691781e-05
2.50546666666667e+01 6.57111904964218e-04 1.33536859447809e-05
2.51693333333333e+01 6.42116827985115e-04 1.30787857086140e-05
2.52840000000000e+01 6.27463933698724e-04 1.28094116448388e-05
2.53986666666667e+01 6.13145413665511e-04 1.25454566590689e-05
2.55133333333333e+01 5.99153637519256e-04 1.22868156080932e-05
2.56280000000000e+01 5.85481149073081e-04 1.20333852316760e-05
2.57426666666667e+01 5.72120662339128e-04 1.17850641940393e-05
2.58573333333333e+01 5.59065057489635e-04 1.15417530174694e-05
2.59720000000000e+01 5.46307377221341e-04 1.13033540178806e-05
2.60866666666667e+01 5.33840823041579e-04 1.10697713420685e-05
2.62013333333333e+01 5.21658751501525e-04 1.08409109050075e-05
2.63160000000000e+01 5.09754670801889e-04 1.06166803289938e-05
2.64306666666667e+01 4.98122237327597e-04 1.03969889770732e-05
2.65453333333333e+01 4.86755252134814e-04 1.01817478938467e-05
2.66600000000000e+01 4.75647657781969e-04 9.97086974801253e-06
2.67746666666667e+01 4.64793535096373e-04 9.76426886233761e-06
2.68893333333333e+01 4.54187099897882e-04 9.56186115779152e-06
2.70040000000000e+01 4.43822700040347e-04 9.36356409931662e-06
2.71186666666667e+01 4.33694812394628e-04 9.16929672267563e-06
2.72333333333333e+01 4.23798039792937e-04 8.97897958174344e-06
2.73480000000000e+01 4.14127108266759e-04 8.79253469733962e-06
2.74626666666667e+01 4.04676864231800e-04 8.60988558125450e-06
2.75773333333333e+01 3.95442271638096e-04 8.43095718653449e-06
2.76920000000000e+01 3.86418409391400e-04 8.25567585921826e-06
2.78066666666667e+01 3.77600468726548e-04 8.08396935981492e-06
2.79213333333333e+01 3.68983750549439e-04 7.91576681642635e-06
2.80360000000000e+01 3.60563663029748e-04 7.75099867923476e-06
2.81506666666667e+01 3.52335719150078e-04 7.58959673968062e-06
2.82653333333333e+01 3.44295534226886e-04 7.43149408627206e-06
2.83800000000000e+01 3.36438823663153e-04 7.27662506167784e-06
2.84946666666667e+01 3.28761400661565e-04 7.12492527983053e-06
2.86093333333333e+01 3.21259173912308e-04 6.97633158427920e-06
2.87240000000000e+01 3.13928145495093e-04 6.83078200774875e-06
2.88386666666667e+01 3.06764408745389e-04 6.68821578737192e-06
2.89533333333333e+01 2.99764146097832e-04 6.54857332544810e-06
2.90680000000000e+01 2.92923627127702e-04 6.41179615133688e-06
2.91826666666667e+01 2.86239206559963e-04 6.27782693500312e-06
2.92973333333333e+01 2.79707322257795e-04 6.14660945005121e-06
2.94120000000000e+01 2.73324493394269e-04 6.01808853782639e-06
2.95266666666667e+01 2.67087318594645e-04 5.89221011944000e-06
2.96413333333333e+01 2.60992474060233e-04 5.76892116095488e-06
2.97560000000000e+01 2.55036711861638e-04 5.64816963957362e-06
2.98706666666667e+01 2.49216858205391e-04 5.52990455429564e-06
2.99853333333333e+01 2.43529811684018e-04 5.41407589313546e-06
3.01000000000000e+01 2.37972541682795e-04 5.30063460128316e-06
3.02146666666667e+01 2.32542086762377e-04 5.18953259053023e-06
3.03293333333333e+01 2.27235553026585e-04 5.08072270840779e-06
3.04440000000000e+01 2.22050112635128e-04 4.97415870821056e-06
3.05586666666667e+01 2.16983002294470e-04 4.86979525731565e-06
3.06733333333333e+01 2.12031521735402e-04 4.76758790813405e-06
3.07880000000000e+01 2.07193032324694e-04 4.66749306989371e-06
3.09026666666667e+01 2.02464955656962e-04 4.56946801596394e-06
3.10173333333333e+01 1.97844772134626e-04 4.47347085651834e-06
3.11320000000000e+01 1.93330019671921e-04 4.37946051197912e-06
3.12466666666667e+01 1.88918292381010e-04 4.28739671944830e-06
3.13613333333333e+01 1.84607239247422e-04 4.19724000698585e-06
3.14760000000000e+01 1.80394562920303e-04 4.10895166862162e-06
3.15906666666667e+01 1.76278018486453e-04 4.02249376998546e-06
3.17053333333333e+01 1.72255412234825e-04 3.93782912410930e-06
3.18200000000000e+01 1.68324600527279e-04 3.85492126791788e-06
3.19346666666667e+01 1.64483488654664e-04 3.77373446714096e-06
3.20493333333333e+01 1.60730029684381e-04 3.69423369355245e-06
3.21640000000000e+01 1.57062223406287e-04 3.61638460285623e-06
3.22786666666667e+01 1.53478115265338e-04 3.54015353895572e-06
3.23933333333333e+01 1.49975795286617e-04 3.46550751254795e-06
3.25080000000000e+01 1.46553397091404e-04 3.39241418032456e-06
3.26226666666667e+01 1.43209096901244e-04 3.32084184866681e-06
3.27373333333333e+01 1.39941112535234e-04 3.25075945351685e-06
3.28520000000000e+01 1.36747702491591e-04 3.18213654081875e-06
3.29666666666667e+01 1.33627165018371e-04 3.11494326970018e-06
3.30813333333333e+01 1.30577837178147e-04 3.04915039354718e-06
3.31960000000000e+01 1.27598093990722e-04 2.98472924161408e-06
3.33106666666667e+01 1.24686347566039e-04 2.92165172174695e-06
3.34253333333333e+01 1.21841046231714e-04 2.85989030259261e-06
3.35400000000000e+01 1.19060673732829e-04 2.79941799630994e-06
3.36546666666667e+01 1.16343748422874e-04 2.74020836088490e-06
3.37693333333333e+01 1.13688822449902e-04 2.68223548340817e-06
3.38840000000000e+01 1.11094481009613e-04 2.62547396382367e-06
3.39986666666667e+01 1.08559341590432e-04 2.56989891688070e-06
3.41133333333333e+01 1.06082053214356e-04 2.51548595641771e-06
3.42280000000000e+01 1.03661295739772e-04 2.46221118008792e-06
3.43426666666667e+01 1.01295779157062e-04 2.41005117098897e-06
3.44573333333333e+01 9.89842428804500e-05 2.35898298289415e-06
3.45720000000000e+01 9.67254550972571e-05 2.30898412589830e-06
3.46866666666667e+01 9.45182121106436e-05 2.26003256776136e-06
3.48013333333333e+01 9.23613376790299e-05 2.21210672003158e-06
3.49160000000000e+01 9.02536824086981e-05 2.16518542455781e-06
3.50306666666667e+01 8.81941231405180e-05 2.11924795458007e-06
3.51453333333333e+01 8.61815623337426e-05 2.07427400169238e-06
3.52600000000000e+01 8.42149274990708e-05 2.03024366317033e-06
3.53746666666667e+01 8.22931706264152e-05 1.98713744283845e-06
3.54893333333333e+01 8.04152676100870e-05 1.94493623882314e-06
3.56040000000000e+01 7.85802177196292e-05 1.90362133164769e-06
3.57186666666667e+01 7.67870430658781e-05 1.86317438490283e-06
3.58333333333333e+01 7.50347880647559e-05 1.82357743374328e-06
3.59480000000000e+01 7.33225189433602e-05 1.78481287370493e-06
3.60626666666667e+01 7.16493232417565e-05 1.74686346120251e-06
3.61773333333333e+01 7.00143093127832e-05 1.70971230272556e-06
