Energy (eV)          EEDF (eV^-(3/2))     First Anisotropy
2.72500000000000e-02 7.79271894159691e-01 1.00658797746734e-03
8.17500000000000e-02 7.46311653953738e-01 1.63249941001638e-03
1.36250000000000e-01 7.14745506672954e-01 2.07790335367601e-03
1.90750000000000e-01 6.84514487483595e-01 2.37257099547569e-03
2.45250000000000e-01 6.55562125540339e-01 2.58439819419254e-03
2.99750000000000e-01 6.27834338500056e-01 2.74055105661531e-03
3.54250000000000e-01 6.01279331497236e-01 2.85581245132746e-03
4.08750000000000e-01 5.75847500392384e-01 2.93951748032061e-03
4.63250000000000e-01 5.51491339112628e-01 2.99810660469608e-03
5.17750000000000e-01 5.28165350911476e-01 3.03629102528568e-03
5.72250000000000e-01 5.05825963381942e-01 3.05766228206158e-03
6.26750000000000e-01 4.84431447064299e-01 3.06504298166273e-03
6.81250000000000e-01 4.63941837496412e-01 3.06070338220422e-03
7.35750000000000e-01 4.44318860561044e-01 3.04650268864695e-03
7.90250000000000e-01 4.25525860990693e-01 3.02398537165287e-03
8.44750000000000e-01 4.07527733896394e-01 2.99444923440599e-03
8.99250000000000e-01 3.90290859192604e-01 2.95899498237025e-03
9.53750000000000e-01 3.73783038795655e-01 2.91856325369334e-03
1.00825000000000e+00 3.57973436478477e-01 2.87396289269241e-03
1.06275000000000e+00 3.42832520269242e-01 2.82589294882151e-03
1.11725000000000e+00 3.28332007286320e-01 2.77496007782591e-03
1.17175000000000e+00 3.14444810906510e-01 2.72169250646778e-03
1.22625000000000e+00 3.01144990167855e-01 2.66655138336906e-03
1.28075000000000e+00 2.88407701312522e-01 2.60994011020330e-03
1.33525000000000e+00 2.76209151379241e-01 2.55221209023081e-03
1.38975000000000e+00 2.64526553758598e-01 2.49367722074179e-03
1.44425000000000e+00 2.53338085628177e-01 2.43460737702936e-03
1.49875000000000e+00 2.42622847188034e-01 2.37524107816576e-03
1.55325000000000e+00 2.32360822620351e-01 2.31578748257661e-03
1.60775000000000e+00 2.22532842700352e-01 2.25642982981738e-03
1.66225000000000e+00 2.13120548988633e-01 2.19732842105660e-03
1.71675000000000e+00 2.04106359538022e-01 2.13862321248078e-03
1.77125000000000e+00 1.95473436050911e-01 2.08043608169122e-03
1.82575000000000e+00 1.87205652425697e-01 2.02287281611316e-03
1.88025000000000e+00 1.79287564633608e-01 1.96602486372753e-03
1.93475000000000e+00 1.71704381869603e-01 1.90997087950971e-03
1.98925000000000e+00 1.64441938923498e-01 1.85477809540803e-03
2.04375000000000e+00 1.57486669719677e-01 1.80050353721041e-03
2.09825000000000e+00 1.50825581975976e-01 1.74719510800085e-03
2.15275000000000e+00 1.44446232934404e-01 1.69489255491990e-03
2.20725000000000e+00 1.38336706118352e-01 1.64362833348248e-03
2.26175000000000e+00 1.32485589072897e-01 1.59342838166548e-03
2.31625000000000e+00 1.26881952046593e-01 1.54431281427639e-03
2.37075000000000e+00 1.21515327574956e-01 1.49629654668842e-03
2.42525000000000e+00 1.16375690927473e-01 1.44938985582631e-03
2.47975000000000e+00 1.11453441381645e-01 1.40359888527009e-03
2.53425000000000e+00 1.06739384289055e-01 1.35892610047938e-03
2.58875000000000e+00 1.02224713899977e-01 1.31537069940276e-03
2.64325000000000e+00 9.79009969144416e-02 1.27292898310307e-03
2.69775000000000e+00 9.37601567290242e-02 1.23159469048464e-03
2.75225000000000e+00 8.97944583499375e-02 1.19135930073730e-03
2.80675000000000e+00 8.59964939442415e-02 1.15221230670377e-03
2.86125000000000e+00 8.23591690021827e-02 1.11414146202130e-03
2.91575000000000e+00 7.88756890848142e-02 1.07713300457871e-03
2.97025000000000e+00 7.55395471321401e-02 1.04117185855801e-03
3.02475000000000e+00 7.23445113080784e-02 1.00624181709166e-03
3.07925000000000e+00 6.92846133595348e-02 9.72325707356446e-04
3.13375000000000e+00 6.63541374678440e-02 9.39405539739724e-04
3.18825000000000e+00 6.35476095717524e-02 9.07462642549751e-04
3.24275000000000e+00 6.08597871419983e-02 8.76477783596500e-04
3.29725000000000e+00 5.82856493883881e-02 8.46431279839869e-04
3.35175000000000e+00 5.58203878810768e-02 8.17303096187090e-04
3.40625000000000e+00 5.34593975685313e-02 7.89072934418345e-04
3.46075000000000e+00 5.11982681754012e-02 7.61720313127442e-04
3.51525000000000e+00 4.90327759642264e-02 7.35224639482138e-04
3.56975000000000e+00 4.69588758455926e-02 7.09565273534573e-04
3.62425000000000e+00 4.49726938219980e-02 6.84721585745769e-04
3.67875000000000e+00 4.30705197513156e-02 6.60673008328204e-04
3.73325000000000e+00 4.12488004163335e-02 6.37399080956473e-04
3.78775000000000e+00 3.95041328874269e-02 6.14879491347129e-04
3.84225000000000e+00 3.78332581659643e-02 5.93094111164675e-04
3.89675000000000e+00 3.62330550965737e-02 5.72023027670772e-04
3.95125000000000e+00 3.47005345368959e-02 5.51646571497267e-04
4.00575000000000e+00 3.32328337739362e-02 5.31945340890939e-04
4.06025000000000e+00 3.18272111765823e-02 5.12900222747837e-04
4.11475000000000e+00 3.04810410743009e-02 4.94492410727851e-04
4.16925000000000e+00 2.91918088524459e-02 4.76703420715452e-04
4.22375000000000e+00 2.79571062550161e-02 4.59515103869895e-04
4.27825000000000e+00 2.67746268860886e-02 4.42909657487635e-04
4.33275000000000e+00 2.56421619015250e-02 4.26869633880835e-04
4.38725000000000e+00 2.45575958829011e-02 4.11377947458726e-04
4.44175000000000e+00 2.35189028859541e-02 3.96417880182832e-04
4.49625000000000e+00 2.25241426561660e-02 3.81973085552691e-04
4.55075000000000e+00 2.15714570044128e-02 3.68027591265627e-04
4.60525000000000e+00 2.06590663359097e-02 3.54565800681946e-04
4.65975000000000e+00 1.97852663259701e-02 3.41572493216027e-04
4.71425000000000e+00 1.89484247363654e-02 3.29032823763542e-04
4.76875000000000e+00 1.81469783663425e-02 3.16932321265799e-04
4.82325000000000e+00 1.73794301326005e-02 3.05256886503675e-04
4.87775000000000e+00 1.66443462727741e-02 2.93992789205772e-04
4.93225000000000e+00 1.59403536671978e-02 2.83126664548236e-04
4.98675000000000e+00 1.52661372739512e-02 2.72645509117076e-04
5.04125000000000e+00 1.46204376723902e-02 2.62536676397770e-04
5.09575000000000e+00 1.40020487105788e-02 2.52787871851327e-04
5.15025000000000e+00 1.34098152522248e-02 2.43387147630880e-04
5.20475000000000e+00 1.28426310189124e-02 2.34322896988158e-04
5.25925000000000e+00 1.22994365235992e-02 2.25583848414844e-04
5.31375000000000e+00 1.17792170915190e-02 2.17159059559843e-04
5.36825000000000e+00 1.12810009647931e-02 2.09037910959805e-04
5.42275000000000e+00 1.08038574872086e-02 2.01210099616883e-04
5.47725000000000e+00 1.03468953657743e-02 1.93665632454607e-04
5.53175000000000e+00 9.90926100580597e-03 1.86394819679862e-04
5.58625000000000e+00 9.49013691643137e-03 1.79388268076408e-04
5.64075000000000e+00 9.08874018353583e-03 1.72636874252872e-04
5.69525000000000e+00 8.70432100729706e-03 1.66131817865977e-04
5.74975000000000e+00 8.33616130157630e-03 1.59864554837752e-04
5.80425000000000e+00 7.98357335255004e-03 1.53826810583518e-04
5.85875000000000e+00 7.64589853407645e-03 1.48010573265784e-04
5.91325000000000e+00 7.32250607739701e-03 1.42408087087573e-04
5.96775000000000e+00 7.01279189287499e-03 1.37011845637273e-04
6.02225000000000e+00 6.71617744157002e-03 1.31814585295722e-04
6.07675000000000e+00 6.43210865454070e-03 1.26809278715063e-04
6.13125000000000e+00 6.16005489785659e-03 1.21989128377756e-04
6.18575000000000e+00 5.89950798138633e-03 1.17347560243118e-04
6.24025000000000e+00 5.64998120951020e-03 1.12878217487797e-04
6.29475000000000e+00 5.41100847198394e-03 1.08574954345747e-04
6.34925000000000e+00 5.18214337325561e-03 1.04431830052484e-04
6.40375000000000e+00 4.96295839860898e-03 1.00443102897656e-04
6.45825000000000e+00 4.75304411557593e-03 9.66032243893298e-05
6.51275000000000e+00 4.55200840912609e-03 9.29068335327753e-05
6.56725000000000e+00 4.35947574920496e-03 8.93487512260112e-05
6.62175000000000e+00 4.17508648925251e-03 8.59239747738434e-05
6.67625000000000e+00 3.99849619439168e-03 8.26276725217003e-05
6.73075000000000e+00 3.82937499803200e-03 7.94551786101506e-05
6.78525000000000e+00 3.66740698568641e-03 7.64019878506230e-05
6.83975000000000e+00 3.51228960485031e-03 7.34637507225063e-05
6.89425000000000e+00 3.36373309984048e-03 7.06362684915048e-05
6.94875000000000e+00 3.22145997053812e-03 6.79154884488639e-05
7.00325000000000e+00 3.08520445402509e-03 6.52974992708208e-05
7.05775000000000e+00 2.95471202814488e-03 6.27785264974264e-05
7.11225000000000e+00 2.82973893606114e-03 6.03549281296895e-05
7.16675000000000e+00 2.71005173092550e-03 5.80231903438106e-05
7.22125000000000e+00 2.59542683980428e-03 5.57799233211353e-05
7.27575000000000e+00 2.48565014604941e-03 5.36218571923081e-05
7.33025000000000e+00 2.38051658933349e-03 5.15458380939967e-05
7.38475000000000e+00 2.27982978260179e-03 4.95488243364523e-05
7.43925000000000e+00 2.18340164522583e-03 4.76278826800790e-05
7.49375000000000e+00 2.09105205167308e-03 4.57801847191167e-05
7.54825000000000e+00 2.00260849503662e-03 4.40030033704723e-05
7.60275000000000e+00 1.91790576479627e-03 4.22937094656804e-05
7.65725000000000e+00 1.83678563820907e-03 4.06497684439359e-05
7.71175000000000e+00 1.75909658475295e-03 3.90687371441034e-05
7.76625000000000e+00 1.68469348307114e-03 3.75482606935804e-05
7.82075000000000e+00 1.61343734988888e-03 3.60860694918778e-05
7.87525000000000e+00 1.54519508039583e-03 3.46799762867641e-05
7.92975000000000e+00 1.47983919960940e-03 3.33278733408177e-05
7.98425000000000e+00 1.41724762425442e-03 3.20277296862284e-05
8.03875000000000e+00 1.35730343471436e-03 3.07775884656955e-05
8.09325000000000e+00 1.29989465662824e-03 2.95755643572800e-05
8.14775000000000e+00 1.24491405172511e-03 2.84198410810794e-05
8.20225000000000e+00 1.19225891750539e-03 2.73086689856122e-05
8.25675000000000e+00 1.14183089539502e-03 2.62403627118185e-05
8.31125000000000e+00 1.09353578701390e-03 2.52132989326062e-05
8.36575000000000e+00 1.04728337821549e-03 2.42259141658991e-05
8.42025000000000e+00 1.00298727056886e-03 2.32767026591683e-05
8.47475000000000e+00 9.60564719968444e-04 2.23642143434610e-05
8.52925000000000e+00 9.19936482069951e-04 2.14870528549683e-05
8.58375000000000e+00 8.81026664263745e-04 2.06438736222112e-05
8.63825000000000e+00 8.43762583909222e-04 1.98333820169549e-05
8.69275000000000e+00 8.08074632565311e-04 1.90543315669972e-05
8.74725000000000e+00 7.73896145963513e-04 1.83055222290129e-05
8.80175000000000e+00 7.41163279480590e-04 1.75857987196727e-05
8.85625000000000e+00 7.09814888878284e-04 1.68940489032935e-05
8.91075000000000e+00 6.79792416087292e-04 1.62292022343129e-05
8.96525000000000e+00 6.51039779822144e-04 1.55902282529185e-05
9.01975000000000e+00 6.23503270822661e-04 1.49761351322040e-05
9.07425000000000e+00 5.97131451526295e-04 1.43859682752570e-05
9.12875000000000e+00 5.71875059983953e-04 1.38188089606258e-05
9.18325000000000e+00 5.47686917839812e-04 1.32737730346502e-05
9.23775000000000e+00 5.24521842203242e-04 1.27500096491746e-05
9.29225000000000e+00 5.02336561248212e-04 1.22467000432067e-05
9.34675000000000e+00 4.81089633382515e-04 1.17630563671143e-05
9.40125000000000e+00 4.60741369835831e-04 1.12983205479983e-05
9.45575000000000e+00 4.41253760522028e-04 1.08517631949068e-05
9.51025000000000e+00 4.22590403037190e-04 1.04226825425998e-05
9.56475000000000e+00 4.04716434660776e-04 1.00104034326051e-05
9.61925000000000e+00 3.87598467232856e-04 9.61427633034077e-06
9.67375000000000e+00 3.71204524785808e-04 9.23367637711601e-06
9.72825000000000e+00 3.55503983813940e-04 8.86800247585528e-06
9.78275000000000e+00 3.40467516069497e-04 8.51667640942289e-06
9.83725000000000e+00 3.26067033778168e-04 8.17914199045900e-06
9.89175000000000e+00 3.12275637171773e-04 7.85486424166990e-06
9.94625000000000e+00 2.99067564240118e-04 7.54332860554587e-06
1.00007500000000e+01 2.86418142608153e-04 7.24404018251143e-06
1.00552500000000e+01 2.74303743448551e-04 6.95652299654254e-06
1.01097500000000e+01 2.62701737343599e-04 6.68031928731490e-06
1.01642500000000e+01 2.51590452013971e-04 6.41498882797567e-06
1.02187500000000e+01 2.40949131835411e-04 6.16010826765919e-06
1.02732500000000e+01 2.30757899067704e-04 5.91527049789466e-06
1.03277500000000e+01 2.20997716723523e-04 5.68008404208051e-06
1.03822500000000e+01 2.11650353007768e-04 5.45417246722611e-06
1.04367500000000e+01 2.02698347261000e-04 5.23717381718629e-06
1.04912500000000e+01 1.94124977343331e-04 5.02874006663982e-06
1.05457500000000e+01 1.85914228397852e-04 4.82853659508636e-06
1.06002500000000e+01 1.78050762935253e-04 4.63624168015959e-06
1.06547500000000e+01 1.70519892183744e-04 4.45154600957769e-06
1.07092500000000e+01 1.63307548650770e-04 4.27415221107411e-06
1.07637500000000e+01 1.56400259845263e-04 4.10377439967283e-06
1.08182500000000e+01 1.49785123111333e-04 3.94013774169368e-06
1.08727500000000e+01 1.43449781526414e-04 3.78297803489330e-06
1.09272500000000e+01 1.37382400818809e-04 3.63204130416747e-06
1.09817500000000e+01 1.31571647261551e-04 3.48708341225917e-06
1.10362500000000e+01 1.26006666501260e-04 3.34786968493544e-06
1.10907500000000e+01 1.20677063282460e-04 3.21417455011479e-06
1.11452500000000e+01 1.15572882029486e-04 3.08578119044360e-06
1.11997500000000e+01 1.10684588249694e-04 2.96248120883725e-06
1.12542500000000e+01 1.06003050723256e-04 2.84407430651855e-06
1.13087500000000e+01 1.01519524446242e-04 2.73036797310137e-06
1.13632500000000e+01 9.72256342951657e-05 2.62117718828341e-06
1.14177500000000e+01 9.31133593824396e-05 2.51632413472664e-06
1.14722500000000e+01 8.91750180735458e-05 2.41563792171882e-06
1.15267500000000e+01 8.54032536379192e-05 2.31895431922321e-06
1.15812500000000e+01 8.17910205067452e-05 2.22611550193760e-06
1.16357500000000e+01 7.83315711119998e-05 2.13696980299668e-06
1.16902500000000e+01 7.50184432821481e-05 2.05137147696464e-06
1.17447500000000e+01 7.18454481709577e-05 1.96918047177731e-06
1.17992500000000e+01 6.88066586968768e-05 1.89026220930515e-06
1.18537500000000e+01 6.58963984713825e-05 1.81448737421970e-06
1.19082500000000e+01 6.31092311956186e-05 1.74173171085766e-06
1.19627500000000e+01 6.04399505055149e-05 1.67187582778732e-06
1.20172500000000e+01 5.78835702464190e-05 1.60480500979263e-06
1.20717500000000e+01 5.54353151590752e-05 1.54040903700042e-06
1.21262500000000e+01 5.30906119595501e-05 1.47858201088583e-06
1.21807500000000e+01 5.08450807964442e-05 1.41922218690074e-06
1.22352500000000e+01 4.86945270694304e-05 1.36223181347890e-06
1.22897500000000e+01 4.66349335938377e-05 1.30751697718037e-06
1.23442500000000e+01 4.46624530966431e-05 1.25498745374657e-06
1.23987500000000e+01 4.27734010298544e-05 1.20455656484523e-06
1.24532500000000e+01 4.09642486878594e-05 1.15614104029258e-06
1.25077500000000e+01 3.92316166158860e-05 1.10966088554792e-06
1.25622500000000e+01 3.75722682972583e-05 1.06503925428311e-06
1.26167500000000e+01 3.59831041076582e-05 1.02220232583645e-06
1.26712500000000e+01 3.44611555250991e-05 9.81079187367634e-07
1.27257500000000e+01 3.30035795847952e-05 9.41601720537191e-07
1.27802500000000e+01 3.16076535685690e-05 9.03704492539788e-07
1.28347500000000e+01 3.02707699188768e-05 8.67324651327667e-07
1.28892500000000e+01 2.89904313679511e-05 8.32401824865984e-07
1.29437500000000e+01 2.77642462729627e-05 7.98878024267824e-07
1.29982500000000e+01 2.65899241484864e-05 7.66697550662310e-07
1.30527500000000e+01 2.54652713879279e-05 7.35806905654452e-07
1.31072500000000e+01 2.43881871659169e-05 7.06154705240737e-07
1.31617500000000e+01 2.33566595140140e-05 6.77691597049431e-07
1.32162500000000e+01 2.23687615624000e-05 6.50370180779379e-07
1.32707500000000e+01 2.14226479405280e-05 6.24144931715827e-07
1.33252500000000e+01 2.05165513300133e-05 5.98972127206216e-07
1.33797500000000e+01 1.96487791633239e-05 5.74809775983329e-07
1.34342500000000e+01 1.88177104621033e-05 5.51617550227280e-07
1.34887500000000e+01 1.80217928092205e-05 5.29356720261919e-07
1.35432500000000e+01 1.72595394488905e-05 5.07990091785128e-07
1.35977500000000e+01 1.65295265094490e-05 4.87481945536189e-07
1.36522500000000e+01 1.58303903435930e-05 4.67797979307075e-07
1.37067500000000e+01 1.51608249811189e-05 4.48905252207947e-07
1.37612500000000e+01 1.45195796894007e-05 4.30772131100571e-07
1.38157500000000e+01 1.39054566370503e-05 4.13368239116527e-07
1.38702500000000e+01 1.33173086563960e-05 3.96664406180272e-07
1.39247500000000e+01 1.27540371005996e-05 3.80632621460074e-07
1.39792500000000e+01 1.22145897914101e-05 3.65245987672750e-07
1.40337500000000e+01 1.16979590537184e-05 3.50478677170951e-07
1.40882500000000e+01 1.12031798332438e-05 3.36305889744400e-07
1.41427500000000e+01 1.07293278938351e-05 3.22703812069084e-07
1.41972500000000e+01 1.02755180910183e-05 3.09649578740882e-07
1.42517500000000e+01 9.84090271856751e-06 2.97121234832569e-07
1.43062500000000e+01 9.42466992500933e-06 2.85097699915371e-07
1.43607500000000e+01 9.02604219710294e-06 2.73558733488543e-07
1.44152500000000e+01 8.64427490746338e-06 2.62484901762535e-07
1.44697500000000e+01 8.27865492361478e-06 2.51857545743439e-07
1.45242500000000e+01 7.92849927587539e-06 2.41658750568318e-07
1.45787500000000e+01 7.59315388158600e-06 2.31871316043024e-07
1.46332500000000e+01 7.27199232329862e-06 2.22478728335895e-07
1.46877500000000e+01 6.96441467864320e-06 2.13465132782495e-07
1.47422500000000e+01 6.66984639968646e-06 2.04815307758348e-07
1.47967500000000e+01 6.38773723968965e-06 1.96514639578144e-07
1.48512500000000e+01 6.11756022526037e-06 1.88549098381590e-07
1.49057500000000e+01 5.85881067197842e-06 1.80905214967544e-07
1.49602500000000e+01 5.61100524165698e-06 1.73570058539541e-07
1.50147500000000e+01 5.37368103947806e-06 1.66531215327258e-07
1.50692500000000e+01 5.14639474931563e-06 1.59776768049815e-07
1.51237500000000e+01 4.92872180563140e-06 1.53295276188103e-07
1.51782500000000e+01 4.72025560039614e-06 1.47075757034610e-07
1.52327500000000e+01 4.52060672355535e-06 1.41107667490420e-07
1.52872500000000e+01 4.32940223562020e-06 1.35380886580221e-07
1.53417500000000e+01 4.14628497102524e-06 1.29885698657303e-07
1.53962500000000e+01 3.97091287095134e-06 1.24612777271567e-07
1.54507500000000e+01 3.80295834436776e-06 1.19553169674647e-07
1.55052500000000e+01 3.64210765609960e-06 1.14698281937223e-07
1.55597500000000e+01 3.48806034077784e-06 1.10039864654571e-07
1.56142500000000e+01 3.34052864157690e-06 1.05569999217326e-07
1.56687500000000e+01 3.19923697269157e-06 1.01281084625312e-07
1.57232500000000e+01 3.06392140454907e-06 9.71658248231604e-08
1.57777500000000e+01 2.93432917079475e-06 9.32172165372627e-08
1.58322500000000e+01 2.81021819613033e-06 8.94285375943910e-08
1.58867500000000e+01 2.69135664412288e-06 8.57933357030807e-08
1.59412500000000e+01 2.57752248413967e-06 8.23054176796082e-08
1.59957500000000e+01 2.46850307660013e-06 7.89588391010958e-08
1.60502500000000e+01 2.36409477577000e-06 7.57478943689629e-08
1.61047500000000e+01 2.26410254935581e-06 7.26671071665872e-08
1.61592500000000e+01 2.16833961418905e-06 6.97112212956690e-08
1.62137500000000e+01 2.07662708731955e-06 6.68751918763960e-08
1.62682500000000e+01 1.98879365186624e-06 6.41541768970837e-08
1.63227500000000e+01 1.90467523700120e-06 6.15435290995310e-08
1.63772500000000e+01 1.82411471146910e-06 5.90387881868590e-08
1.64317500000000e+01 1.74696159006970e-06 5.66356733411179e-08
1.64862500000000e+01 1.67307175255494e-06 5.43300760384510e-08
1.65407500000000e+01 1.60230717441565e-06 5.21180531500748e-08
1.65952500000000e+01 1.53453566905497e-06 4.99958203177882e-08
1.66497500000000e+01 1.46963064086683e-06 4.79597455931782e-08
1.67042500000000e+01 1.40747084875827e-06 4.60063433301010e-08
1.67587500000000e+01 1.34794017967392e-06 4.41322683204298e-08
1.68132500000000e+01 1.29092743169945e-06 4.23343101634552e-08
1.68677500000000e+01 1.23632610633899e-06 4.06093878596930e-08
1.69222500000000e+01 1.18403420957839e-06 3.89545446202255e-08
1.69767500000000e+01 1.13395406136278e-06 3.73669428830420e-08
1.70312500000000e+01 1.08599211313245e-06 3.58438595281831e-08
1.70857500000000e+01 1.04005877307632e-06 3.43826812838190e-08
1.71402500000000e+01 9.96068238776510e-07 3.29809003156894e-08
1.71947500000000e+01 9.53938336931401e-07 3.16361099926423e-08
