Energy (eV)          EEDF (eV^-(3/2))     First Anisotropy
1.78070175438596e-02 7.89351541702083e-02 3.92050393382742e-05
5.34210526315790e-02 7.84583499832461e-02 6.47608510087736e-05
8.90350877192982e-02 7.79844259102530e-02 8.55504614168790e-05
1.24649122807018e-01 7.75133645551534e-02 1.01380336251807e-04
1.60263157894737e-01 7.70451486246636e-02 1.14612355406343e-04
1.95877192982456e-01 7.65797609311053e-02 1.26138425400318e-04
2.31491228070175e-01 7.61171843884590e-02 1.36419574182713e-04
2.67105263157895e-01 7.56574020186254e-02 1.45733888265005e-04
3.02719298245614e-01 7.52003969434257e-02 1.54265593614122e-04
3.38333333333333e-01 7.47461523866717e-02 1.62144752380176e-04
3.73947368421053e-01 7.42946516735325e-02 1.69467536534003e-04
4.09561403508772e-01 7.38458782299145e-02 1.76307613913508e-04
4.45175438596491e-01 7.33998155818407e-02 1.82723009966701e-04
4.80789473684211e-01 7.29564473548551e-02 1.88760474958011e-04
5.16403508771930e-01 7.25157572734194e-02 1.94458387489613e-04
5.52017543859649e-01 7.20777291603090e-02 1.99848755156990e-04
5.87631578947368e-01 7.16423469360185e-02 2.04958634885342e-04
6.23245614035088e-01 7.12095946181717e-02 2.09811167250649e-04
6.58859649122807e-01 7.07794563202709e-02 2.14426345935763e-04
6.94473684210526e-01 7.03519162531498e-02 2.18821601698201e-04
7.30087719298246e-01 6.99269587223057e-02 2.23012252770871e-04
7.65701754385965e-01 6.95045681280393e-02 2.27011857000802e-04
8.01315789473684e-01 6.90847289648815e-02 2.30832491401099e-04
8.36929824561404e-01 6.86674258210234e-02 2.34484976418103e-04
8.72543859649123e-01 6.82526433777499e-02 2.37979057833005e-04
9.08157894736842e-01 6.78403664088808e-02 2.41323555738720e-04
9.43771929824561e-01 6.74305797802093e-02 2.44526487634251e-04
9.79385964912281e-01 6.70232684489467e-02 2.47595170958670e-04
1.01500000000000e+00 6.66184174631697e-02 2.50536309320321e-04
1.05061403508772e+00 6.62160119600913e-02 2.53356064357137e-04
1.08622807017544e+00 6.58160371709687e-02 2.56060119111076e-04
1.12184210526316e+00 6.54184784094667e-02 2.58653729542245e-04
1.15745614035088e+00 6.50233210852500e-02 2.61141770558441e-04
1.19307017543860e+00 6.46305506891085e-02 2.63528775352075e-04
1.22868421052632e+00 6.42401528062196e-02 2.65818969431499e-04
1.26429824561404e+00 6.38521131023337e-02 2.68016300551606e-04
1.29991228070175e+00 6.34664173360548e-02 2.70124464714267e-04
1.33552631578947e+00 6.30830513459611e-02 2.72146929260955e-04
1.37114035087719e+00 6.27020010620178e-02 2.74086953053995e-04
1.40675438596491e+00 6.23232524935278e-02 2.75947604564724e-04
1.44236842105263e+00 6.19467917397727e-02 2.77731777759656e-04
1.47798245614035e+00 6.15726049787060e-02 2.79442206461511e-04
1.51359649122807e+00 6.12006784769031e-02 2.81081477012989e-04
1.54921052631579e+00 6.08309985789214e-02 2.82652039818272e-04
1.58482456140351e+00 6.04635517166290e-02 2.84156219553001e-04
1.62043859649123e+00 6.00983243991678e-02 2.85596224542634e-04
1.65605263157895e+00 5.97353032217198e-02 2.86974155079065e-04
1.69166666666667e+00 5.93744748560175e-02 2.88292011117959e-04
1.72728070175439e+00 5.90158260586001e-02 2.89551699116553e-04
1.76289473684211e+00 5.86593436618233e-02 2.90755038409639e-04
1.79850877192982e+00 5.83050145816488e-02 2.91903766879515e-04
1.83412280701754e+00 5.79528258091122e-02 2.92999546282031e-04
1.86973684210526e+00 5.76027644176857e-02 2.94043966984965e-04
1.90535087719298e+00 5.72548175551659e-02 2.95038552451684e-04
1.94096491228070e+00 5.69089724506454e-02 2.95984763229536e-04
1.97657894736842e+00 5.65652164067874e-02 2.96884000751586e-04
2.01219298245614e+00 5.62235368064367e-02 2.97737610715950e-04
2.04780701754386e+00 5.58839211052517e-02 2.98546886686214e-04
2.08342105263158e+00 5.55463568363610e-02 2.99313071548757e-04
2.11903508771930e+00 5.52108316098237e-02 3.00037362423347e-04
2.15464912280702e+00 5.48773331072925e-02 3.00720911764876e-04
2.19026315789474e+00 5.45458490879999e-02 3.01364830025098e-04
2.22587719298246e+00 5.42163673820202e-02 3.01970187897549e-04
2.26149122807018e+00 5.38888758959670e-02 3.02538018295083e-04
2.29710526315789e+00 5.35633626065442e-02 3.03069318304831e-04
2.33271929824561e+00 5.32398155659754e-02 3.03565050904828e-04
2.36833333333333e+00 5.29182228958245e-02 3.04026146674936e-04
2.40394736842105e+00 5.25985727921746e-02 3.04453505293535e-04
2.43956140350877e+00 5.22808535197014e-02 3.04847997041790e-04
2.47517543859649e+00 5.19650534166183e-02 3.05210464114169e-04
2.51078947368421e+00 5.16511608889858e-02 3.05541721946682e-04
2.54640350877193e+00 5.13391644154386e-02 3.05842560368767e-04
2.58201754385965e+00 5.10290525417166e-02 3.06113744781113e-04
2.61763157894737e+00 5.07208138851869e-02 3.06356017171819e-04
2.65324561403509e+00 5.04144371295839e-02 3.06570097164791e-04
2.68885964912281e+00 5.01099110293387e-02 3.06756682919291e-04
2.72447368421053e+00 4.98072244045157e-02 3.06916452066612e-04
2.76008771929825e+00 4.95063661449614e-02 3.07050062508971e-04
2.79570175438597e+00 4.92073252054262e-02 3.07158153259327e-04
2.83131578947368e+00 4.89100906095427e-02 3.07241345153075e-04
2.86692982456140e+00 4.86146514451233e-02 3.07300241603443e-04
2.90254385964912e+00 4.83209968679774e-02 3.07335429237282e-04
2.93815789473684e+00 4.80291160973747e-02 3.07347478576894e-04
2.97377192982456e+00 4.77389984197111e-02 3.07336944609497e-04
3.00938596491228e+00 4.74506331841288e-02 3.07304367404365e-04
3.04500000000000e+00 4.71640098060388e-02 3.07250272624329e-04
3.08061403508772e+00 4.68791177628902e-02 3.07175172085964e-04
3.11622807017544e+00 4.65959465975564e-02 3.07079564220100e-04
3.15184210526316e+00 4.63144859142467e-02 3.06963934581733e-04
3.18745614035088e+00 4.60347253817632e-02 3.06828756265620e-04
3.22307017543860e+00 4.57566547295471e-02 3.06674490371631e-04
3.25868421052632e+00 4.54802637508140e-02 3.06501586380631e-04
3.29429824561404e+00 4.52055422987273e-02 3.06310482580220e-04
3.32991228070175e+00 4.49324802894186e-02 3.06101606405371e-04
3.36552631578947e+00 4.46610676982825e-02 3.05875374828941e-04
3.40114035087719e+00 4.43912945628869e-02 3.05632194670949e-04
3.43675438596491e+00 4.41231509793847e-02 3.05372462957584e-04
3.47236842105263e+00 4.38566271053185e-02 3.05096567202582e-04
3.50798245614035e+00 4.35917131561437e-02 3.04804885737956e-04
3.54359649122807e+00 4.33283994079335e-02 3.04497787970434e-04
3.57921052631579e+00 4.30666761940084e-02 3.04175634686759e-04
3.61482456140351e+00 4.28065339075453e-02 3.03838778287903e-04
3.65043859649123e+00 4.25479629983091e-02 3.03487563071517e-04
3.68605263157895e+00 4.22909539751710e-02 3.03122325445955e-04
3.72166666666667e+00 4.20354974029368e-02 3.02743394192136e-04
3.75728070175439e+00 4.17815839047792e-02 3.02351090659651e-04
3.79289473684211e+00 4.15292041591591e-02 3.01945729009871e-04
3.82850877192982e+00 4.12783489021745e-02 3.01527616395760e-04
3.86412280701754e+00 4.10290089245715e-02 3.01097053188099e-04
3.89973684210526e+00 4.07811750740141e-02 3.00654333140698e-04
3.93535087719298e+00 4.05348382521805e-02 3.00199743601094e-04
3.97096491228070e+00 4.02899894169576e-02 2.99733565662527e-04
4.00657894736842e+00 4.00466195796193e-02 2.99256074360709e-04
4.04219298245614e+00 3.98047198069482e-02 2.98767538813681e-04
4.07780701754386e+00 3.95642812184929e-02 2.98268222584476e-04
4.11342105263158e+00 3.93252949880420e-02 2.97758383094371e-04
4.14903508771930e+00 3.90877523432759e-02 2.97238272864342e-04
4.18464912280702e+00 3.88516445637071e-02 2.96708138940140e-04
4.22026315789474e+00 3.86169629826635e-02 2.96168223192003e-04
4.25587719298246e+00 3.83836989847006e-02 2.95618762471648e-04
4.29149122807018e+00 3.81518440075218e-02 2.95059988717696e-04
4.32710526315790e+00 3.79213895394600e-02 2.94492129103108e-04
4.36271929824561e+00 3.76923271213373e-02 2.93915406132714e-04
4.39833333333333e+00 3.74646483440139e-02 2.93330037782095e-04
4.43394736842105e+00 3.72383448501889e-02 2.92736237587839e-04
4.46956140350877e+00 3.70134083320143e-02 2.92134214778386e-04
4.50517543859649e+00 3.67898305328395e-02 2.91524174357700e-04
4.54078947368421e+00 3.65676032448882e-02 2.90906317228777e-04
4.57640350877193e+00 3.63467183109484e-02 2.90280840271334e-04
4.61201754385965e+00 3.61271676221094e-02 2.89647936458328e-04
4.64763157894737e+00 3.59089431194003e-02 2.89007794928197e-04
4.68324561403509e+00 3.56920367915854e-02 2.88360601095101e-04
4.71885964912281e+00 3.54764406767519e-02 2.87706536715937e-04
4.75447368421053e+00 3.52621468601621e-02 2.87045779994857e-04
4.79008771929825e+00 3.50491474757926e-02 2.86378505645544e-04
4.82570175438596e+00 3.48374347042411e-02 2.85704884990189e-04
4.86131578947368e+00 3.46270007742193e-02 2.85025086017562e-04
4.89692982456140e+00 3.44178379605117e-02 2.84339273476962e-04
4.93254385964912e+00 3.42099385854240e-02 2.83647608932233e-04
4.96815789473684e+00 3.40032950167929e-02 2.82950250850959e-04
5.00377192982456e+00 3.37978996693914e-02 2.82247354654860e-04
5.03938596491228e+00 3.35937450029870e-02 2.81539072804592e-04
5.07500000000000e+00 3.33908235237067e-02 2.80825554846734e-04
5.11061403508772e+00 3.31891277821415e-02 2.80106947494507e-04
5.14622807017544e+00 3.29886503746719e-02 2.79383394671601e-04
5.18184210526316e+00 3.27893839416185e-02 2.78655037589058e-04
5.21745614035088e+00 3.25913211685286e-02 2.77922014786178e-04
5.25307017543860e+00 3.23944547843712e-02 2.77184462203801e-04
5.28868421052632e+00 3.21987775627867e-02 2.76442513222552e-04
5.32429824561404e+00 3.20042823203247e-02 2.75696298732766e-04
5.35991228070175e+00 3.18109619176577e-02 2.74945947170193e-04
5.39552631578947e+00 3.16188092578610e-02 2.74191584582781e-04
5.43114035087719e+00 3.14278172875911e-02 2.73433334664026e-04
5.46675438596491e+00 3.12379789954065e-02 2.72671318816882e-04
5.50236842105263e+00 3.10492874129126e-02 2.71905656184903e-04
5.53798245614035e+00 3.08617356131211e-02 2.71136463713308e-04
5.57359649122807e+00 3.06753167115632e-02 2.70363856178201e-04
5.60921052631579e+00 3.04900238646865e-02 2.69587946244991e-04
5.64482456140351e+00 3.03058502709375e-02 2.68808844495710e-04
5.68043859649123e+00 3.01227891691946e-02 2.68026659485012e-04
5.71605263157895e+00 2.99408338398208e-02 2.67241497765701e-04
5.75166666666667e+00 2.97599776031326e-02 2.66453463942444e-04
5.78728070175439e+00 2.95802138204231e-02 2.65662660695703e-04
5.82289473684211e+00 2.94015358924654e-02 2.64869188833133e-04
5.85850877192982e+00 2.92239372605083e-02 2.64073147312083e-04
5.89412280701754e+00 2.90474114048127e-02 2.63274633288973e-04
5.92973684210526e+00 2.88719518456198e-02 2.62473742140270e-04
5.96535087719298e+00 2.86975521417209e-02 2.61670567509972e-04
6.00096491228070e+00 2.85242058913983e-02 2.60865201329231e-04
6.03657894736842e+00 2.83519067310275e-02 2.60057733861984e-04
6.07219298245614e+00 2.81806483359926e-02 2.59248253723391e-04
6.10780701754386e+00 2.80104244193184e-02 2.58436848027096e-04
6.14342105263158e+00 2.78412287322879e-02 2.57623601988134e-04
6.17903508771930e+00 2.76730550642022e-02 2.56808599584435e-04
6.21464912280702e+00 2.75058972413305e-02 2.55991923169984e-04
6.25026315789474e+00 2.73397491277750e-02 2.55173653597554e-04
6.28587719298246e+00 2.71746046241671e-02 2.54353870258740e-04
6.32149122807018e+00 2.70104576685093e-02 2.53532651098453e-04
6.35710526315790e+00 2.68473022348994e-02 2.52710072653509e-04
6.39271929824561e+00 2.66851323343501e-02 2.51886210066210e-04
6.42833333333333e+00 2.65239420135407e-02 2.51061137121470e-04
6.46394736842105e+00 2.63637253556149e-02 2.50234926259580e-04
6.49956140350877e+00 2.62044764789591e-02 2.49407648612065e-04
6.53517543859649e+00 2.60461895379792e-02 2.48579374013572e-04
6.57078947368421e+00 2.58888587219053e-02 2.47750171036493e-04
6.60640350877193e+00 2.57324782555472e-02 2.46920107002092e-04
6.64201754385965e+00 2.55770423981250e-02 2.46089248013908e-04
6.67763157894737e+00 2.54225454440048e-02 2.45257658968191e-04
6.71324561403509e+00 2.52689817215535e-02 2.44425403586147e-04
6.74885964912281e+00 2.51163455938560e-02 2.43592544423723e-04
6.78447368421053e+00 2.49646314575930e-02 2.42759142902758e-04
6.82008771929825e+00 2.48138337437403e-02 2.41925259320135e-04
6.85570175438597e+00 2.46639469164699e-02 2.41090952877889e-04
6.89131578947368e+00 2.45149654738309e-02 2.40256281691733e-04
6.92692982456140e+00 2.43668839466734e-02 2.39421302820212e-04
6.96254385964912e+00 2.42196968993120e-02 2.38586072272691e-04
6.99815789473684e+00 2.40733989284720e-02 2.37750645037540e-04
7.03377192982456e+00 2.39279846639353e-02 2.36915075089544e-04
7.06938596491228e+00 2.37834487675085e-02 2.36079415417206e-04
7.10500000000000e+00 2.36397859336529e-02 2.35243718029732e-04
7.14061403508772e+00 2.34969908884727e-02 2.34408033983415e-04
7.17622807017544e+00 2.33550583903289e-02 2.33572413388136e-04
7.21184210526316e+00 2.32139832288489e-02 2.32736905432910e-04
7.24745614035088e+00 2.30737602255243e-02 2.31901558391955e-04
7.28307017543860e+00 2.29343842327404e-02 2.31066419649504e-04
7.31868421052632e+00 2.27958501343590e-02 2.30231535705394e-04
7.35429824561403e+00 2.26581528447673e-02 2.29396952199132e-04
7.38991228070175e+00 2.25212873094460e-02 2.28562713915096e-04
7.42552631578947e+00 2.23852485040376e-02 2.27728864805830e-04
7.46114035087719e+00 2.22500314348999e-02 2.26895447996942e-04
7.49675438596491e+00 2.21156311381924e-02 2.26062505809668e-04
7.53236842105263e+00 2.19820426804166e-02 2.25230079765411e-04
7.56798245614035e+00 2.18492611575206e-02 2.24398210607641e-04
7.60359649122807e+00 2.17172816954252e-02 2.23566938306094e-04
7.63921052631579e+00 2.15860994491465e-02 2.22736302078052e-04
7.67482456140351e+00 2.14557096033094e-02 2.21906340392197e-04
7.71043859649123e+00 2.13261073712865e-02 2.21077090989294e-04
7.74605263157895e+00 2.11972879956995e-02 2.20248590885760e-04
7.78166666666667e+00 2.10692467475748e-02 2.19420876393709e-04
7.81728070175439e+00 2.09419789268324e-02 2.18593983124255e-04
7.85289473684211e+00 2.08154798614578e-02 2.17767946007027e-04
7.88850877192982e+00 2.06897449079795e-02 2.16942799293191e-04
7.92412280701754e+00 2.05647694506561e-02 2.16118576574358e-04
7.95973684210526e+00 2.04405489019425e-02 2.15295310785419e-04
7.99535087719298e+00 2.03170787016928e-02 2.14473034222905e-04
8.03096491228070e+00 2.01943543176147e-02 2.13651778547568e-04
8.06657894736842e+00 2.00723712444881e-02 2.12831574802267e-04
8.10219298245614e+00 1.99511250046081e-02 2.12012453414293e-04
8.13780701754386e+00 1.98306111470187e-02 2.11194444276226e-04
8.17342105263158e+00 1.97108252477994e-02 2.10377576493860e-04
8.20903508771930e+00 1.95917629098970e-02 2.09561878783171e-04
8.24464912280702e+00 1.94734197625278e-02 2.08747379224594e-04
8.28026315789474e+00 1.93557914615975e-02 2.07934105330526e-04
8.31587719298246e+00 1.92388736889671e-02 2.07122084061604e-04
8.35149122807018e+00 1.91226621528632e-02 2.06311341828296e-04
8.38710526315790e+00 1.90071525871575e-02 2.05501904506797e-04
8.42271929824561e+00 1.88923407517673e-02 2.04693797440435e-04
8.45833333333333e+00 1.87782224319486e-02 2.03887045455082e-04
8.49394736842105e+00 1.86647934386868e-02 2.03081672860440e-04
8.52956140350877e+00 1.85520496080032e-02 2.02277703465053e-04
8.56517543859649e+00 1.84399868013364e-02 2.01475160577442e-04
8.60078947368421e+00 1.83286009048616e-02 2.00674067020732e-04
8.63640350877193e+00 1.82178878298626e-02 1.99874445133614e-04
8.67201754385965e+00 1.81078435120645e-02 1.99076316784587e-04
8.70763157894737e+00 1.79984639119963e-02 1.98279703372811e-04
8.74324561403509e+00 1.78897450143360e-02 1.97484625841986e-04
8.77885964912281e+00 1.77816828282645e-02 1.96691104681061e-04
8.81447368421053e+00 1.76742733868231e-02 1.95899159937760e-04
8.85008771929825e+00 1.75675127472590e-02 1.95108811219164e-04
8.88570175438596e+00 1.74613969903940e-02 1.94320077704911e-04
8.92131578947368e+00 1.73559222209625e-02 1.93532978147663e-04
8.95692982456140e+00 1.72510845669916e-02 1.92747530885923e-04
8.99254385964912e+00 1.71468801801310e-02 1.91963753844422e-04
9.02815789473684e+00 1.70433052350442e-02 1.91181664546672e-04
9.06377192982456e+00 1.69403559297314e-02 1.90401280115208e-04
9.09938596491228e+00 1.68380284849308e-02 1.89622617283797e-04
9.13500000000000e+00 1.67363191444346e-02 1.88845692397597e-04
9.17061403508772e+00 1.66352241745011e-02 1.88070521425096e-04
9.20622807017544e+00 1.65347398641626e-02 1.87297119958181e-04
9.24184210526316e+00 1.64348625246494e-02 1.86525503223726e-04
9.27745614035088e+00 1.63355884896892e-02 1.85755686083620e-04
9.31307017543860e+00 1.62369141149423e-02 1.84987683046083e-04
9.34868421052632e+00 1.61388357782937e-02 1.84221508265588e-04
9.38429824561404e+00 1.60413498792984e-02 1.83457175553915e-04
9.41991228070176e+00 1.59444528394671e-02 1.82694698379961e-04
9.45552631578947e+00 1.58481411017206e-02 1.81934089880569e-04
9.49114035087719e+00 1.57524111306698e-02 1.81175362860251e-04
9.52675438596491e+00 1.56572594120792e-02 1.80418529801767e-04
9.56236842105263e+00 1.55626824531406e-02 1.79663602865790e-04
9.59798245614035e+00 1.54686767819463e-02 1.78910593901177e-04
9.63359649122807e+00 1.53752389477562e-02 1.78159514444612e-04
9.66921052631579e+00 1.52823655204803e-02 1.77410375730650e-04
9.70482456140351e+00 1.51900530909401e-02 1.76663188691274e-04
9.74043859649123e+00 1.50982982703598e-02 1.75917963965687e-04
9.77605263157895e+00 1.50070976906215e-02 1.75174711899841e-04
9.81166666666667e+00 1.49164480037663e-02 1.74433442556013e-04
9.84728070175439e+00 1.48263458822424e-02 1.73694165712237e-04
9.88289473684211e+00 1.47367880184159e-02 1.72956890871678e-04
9.91850877192982e+00 1.46477711248128e-02 1.72221627262014e-04
9.95412280701754e+00 1.45592919336383e-02 1.71488383844584e-04
9.98973684210526e+00 1.44713471970135e-02 1.70757169481426e-04
1.00253508771930e+01 1.43839336861553e-02 1.70027992313957e-04
1.00609649122807e+01 1.42970481929146e-02 1.69300860312306e-04
1.00965789473684e+01 1.42106875278181e-02 1.68575782154928e-04
1.01321929824561e+01 1.41248485198177e-02 1.67852765104478e-04
1.01678070175439e+01 1.40395280187134e-02 1.67131816181828e-04
1.02034210526316e+01 1.39547228924808e-02 1.66412943397548e-04
1.02390350877193e+01 1.38704300271984e-02 1.65696153301797e-04
1.02746491228070e+01 1.37866463293986e-02 1.64981452214193e-04
1.03102631578947e+01 1.37033687234720e-02 1.64268847426260e-04
1.03458771929825e+01 1.36205941515939e-02 1.63558344809032e-04
1.03814912280702e+01 1.35383195760079e-02 1.62849950013410e-04
1.04171052631579e+01 1.34565419765032e-02 1.62143669644807e-04
1.04527192982456e+01 1.33752583503412e-02 1.61439508926835e-04
1.04883333333333e+01 1.32944657144736e-02 1.60737473247733e-04
1.05239473684211e+01 1.32141611023314e-02 1.60037567806339e-04
1.05595614035088e+01 1.31343415667919e-02 1.59339797206800e-04
1.05951754385965e+01 1.30550041777662e-02 1.58644166982180e-04
1.06307894736842e+01 1.29761460221277e-02 1.57950681342527e-04
1.06664035087719e+01 1.28977642058296e-02 1.57259344303872e-04
1.07020175438597e+01 1.28198558515603e-02 1.56570160794033e-04
1.07376315789474e+01 1.27424180986722e-02 1.55883134453208e-04
1.07732456140351e+01 1.26654481052392e-02 1.55198268736996e-04
1.08088596491228e+01 1.25889430457759e-02 1.54515567995954e-04
1.08444736842105e+01 1.25129001111687e-02 1.53835035327385e-04
1.08800877192982e+01 1.24373165106731e-02 1.53156673652882e-04
1.09157017543860e+01 1.23621894696969e-02 1.52480486772506e-04
1.09513157894737e+01 1.22875162297314e-02 1.51806477266504e-04
1.09869298245614e+01 1.22132940502926e-02 1.51134647547681e-04
1.10225438596491e+01 1.21395202067646e-02 1.50465000891217e-04
1.10581578947368e+01 1.20661919903322e-02 1.49797539385058e-04
1.10937719298246e+01 1.19933067098663e-02 1.49132264957412e-04
1.11293859649123e+01 1.19208616898274e-02 1.48469180383120e-04
1.11650000000000e+01 1.18488542701983e-02 1.47808287281369e-04
1.12006140350877e+01 1.17772818083162e-02 1.47149587440312e-04
1.12362280701754e+01 1.17061416762048e-02 1.46493082513346e-04
