Energy (eV)          EEDF (eV^-(3/2))     First Anisotropy
4.45833333333333e-02 7.25834623735303e-02 5.53246113312932e-05
1.33750000000000e-01 7.15468286330647e-02 9.10102409178842e-05
2.22916666666667e-01 7.05250000510383e-02 1.19229595786842e-04
3.12083333333333e-01 6.95177651774106e-02 1.40119778244737e-04
4.01250000000000e-01 6.85249155857410e-02 1.57094561329682e-04
4.90416666666667e-01 6.75462458289802e-02 1.71459327047439e-04
5.79583333333333e-01 6.65815533889677e-02 1.83896895204832e-04
6.68750000000000e-01 6.56306386423622e-02 1.94823911220783e-04
7.57916666666667e-01 6.46933048182897e-02 2.04519526409746e-04
8.47083333333333e-01 6.37693579532703e-02 2.13183014889297e-04
9.36250000000000e-01 6.28586068553899e-02 2.20963335216880e-04
1.02541666666667e+00 6.19608630643075e-02 2.27975809319487e-04
1.11458333333333e+00 6.10759408093242e-02 2.34312219278070e-04
1.20375000000000e+00 6.02036569714885e-02 2.40047261629143e-04
1.29291666666667e+00 5.93438310569171e-02 2.45242860207987e-04
1.38208333333333e+00 5.84962851351679e-02 2.49951149584240e-04
1.47125000000000e+00 5.76608438240663e-02 2.54216601654280e-04
1.56041666666667e+00 5.68373342518743e-02 2.58077585299952e-04
1.64958333333333e+00 5.60255860045785e-02 2.61567529134694e-04
1.73875000000000e+00 5.52254311075611e-02 2.64715807306120e-04
1.82791666666667e+00 5.44367039897624e-02 2.67548429326762e-04
1.91708333333333e+00 5.36592414357233e-02 2.70088579534087e-04
2.00625000000000e+00 5.28928825655235e-02 2.72357046806174e-04
2.09541666666667e+00 5.21374688006929e-02 2.74372574169615e-04
2.18458333333333e+00 5.13928438200449e-02 2.76152141005698e-04
2.27375000000000e+00 5.06588535387068e-02 2.77711195199670e-04
2.36291666666667e+00 4.99353460756196e-02 2.79063848701374e-04
2.45208333333333e+00 4.92221717125268e-02 2.80223038734644e-04
2.54125000000000e+00 4.85191828726059e-02 2.81200663680239e-04
2.63041666666667e+00 4.78262340894422e-02 2.82007701007699e-04
2.71958333333333e+00 4.71431819687217e-02 2.82654305778740e-04
2.80875000000000e+00 4.64698851667955e-02 2.83149895273285e-04
2.89791666666667e+00 4.58062043610346e-02 2.83503224458881e-04
2.98708333333333e+00 4.51520022138940e-02 2.83722449464632e-04
3.07625000000000e+00 4.45071433516306e-02 2.83815182954642e-04
3.16541666666667e+00 4.38714943359617e-02 2.83788544809742e-04
3.25458333333333e+00 4.32449236302416e-02 2.83649204825678e-04
3.34375000000000e+00 4.26273015784842e-02 2.83403420433308e-04
3.43291666666667e+00 4.20185003782570e-02 2.83057072122749e-04
3.52208333333333e+00 4.14183940487646e-02 2.82615693201967e-04
3.61125000000000e+00 4.08268584102784e-02 2.82084496362976e-04
3.70041666666667e+00 4.02437710582061e-02 2.81468399290838e-04
3.78958333333333e+00 3.96690113329121e-02 2.80772046028142e-04
3.87875000000000e+00 3.91024602996264e-02 2.79999826217383e-04
3.96791666666667e+00 3.85440007236323e-02 2.79155894155465e-04
4.05708333333333e+00 3.79935170416830e-02 2.78244184521988e-04
4.14625000000000e+00 3.74508953424370e-02 2.77268426653014e-04
4.23541666666667e+00 3.69160233427122e-02 2.76232159075587e-04
4.32458333333333e+00 3.63887903603777e-02 2.75138741338293e-04
4.41375000000000e+00 3.58690872953473e-02 2.73991364818182e-04
4.50291666666667e+00 3.53568066068505e-02 2.72793064049982e-04
4.59208333333333e+00 3.48518422876958e-02 2.71546725791409e-04
4.68125000000000e+00 3.43540898458399e-02 2.70255097351366e-04
4.77041666666667e+00 3.38634462826315e-02 2.68920795589543e-04
4.85958333333333e+00 3.33798100683523e-02 2.67546313975669e-04
4.94875000000000e+00 3.29030811243730e-02 2.66134029107161e-04
5.03791666666667e+00 3.24331608023261e-02 2.64686207978279e-04
5.12708333333333e+00 3.19699518608430e-02 2.63205013555187e-04
5.21625000000000e+00 3.15133584483001e-02 2.61692509945894e-04
5.30541666666667e+00 3.10632860828791e-02 2.60150668358804e-04
5.39458333333333e+00 3.06196416304271e-02 2.58581371560356e-04
5.48375000000000e+00 3.01823332877907e-02 2.56986418024867e-04
5.57291666666667e+00 2.97512705637257e-02 2.55367526882940e-04
5.66208333333333e+00 2.93263642578127e-02 2.53726341524658e-04
5.75125000000000e+00 2.89075264443742e-02 2.52064432965612e-04
5.84041666666667e+00 2.84946704541956e-02 2.50383304004359e-04
5.92958333333333e+00 2.80877108544378e-02 2.48684392163133e-04
6.01875000000000e+00 2.76865634331266e-02 2.46969072443499e-04
6.10791666666667e+00 2.72911451816514e-02 2.45238660855546e-04
6.19708333333333e+00 2.69013742756179e-02 2.43494416838447e-04
6.28625000000000e+00 2.65171700599003e-02 2.41737545535002e-04
6.37541666666667e+00 2.61384530318836e-02 2.39969200815293e-04
6.46458333333333e+00 2.57651448232049e-02 2.38190487284208e-04
6.55375000000000e+00 2.53971681853570e-02 2.36402462172556e-04
6.64291666666667e+00 2.50344469736412e-02 2.34606137949087e-04
6.73208333333333e+00 2.46769061297515e-02 2.32802483996672e-04
6.82125000000000e+00 2.43244716679141e-02 2.30992428194832e-04
6.91041666666667e+00 2.39770706595219e-02 2.29176859192862e-04
6.99958333333333e+00 2.36346312165162e-02 2.27356627817720e-04
7.08875000000000e+00 2.32970824780494e-02 2.25532548405946e-04
7.17791666666667e+00 2.29643545957707e-02 2.23705400795037e-04
7.26708333333333e+00 2.26363787179652e-02 2.21875931512243e-04
7.35625000000000e+00 2.23130869767244e-02 2.20044854901293e-04
7.44541666666667e+00 2.19944124738555e-02 2.18212854877342e-04
7.53458333333333e+00 2.16802892657399e-02 2.16380585935482e-04
7.62375000000000e+00 2.13706523509957e-02 2.14548674108170e-04
7.71291666666667e+00 2.10654376569848e-02 2.12717718520165e-04
7.80208333333333e+00 2.07645820253539e-02 2.10888292247601e-04
7.89125000000000e+00 2.04680232001750e-02 2.09060943134790e-04
7.98041666666667e+00 2.01756998150235e-02 2.07236195178638e-04
8.06958333333333e+00 1.98875513791694e-02 2.05414549263057e-04
8.15875000000000e+00 1.96035182661788e-02 2.03596483858236e-04
8.24791666666667e+00 1.93235417015404e-02 2.01782456258593e-04
8.33708333333333e+00 1.90475637494738e-02 1.99972903212635e-04
8.42625000000000e+00 1.87755273019781e-02 1.98168241523400e-04
8.51541666666667e+00 1.85073760669818e-02 1.96368869159825e-04
8.60458333333333e+00 1.82430545557401e-02 1.94575165798387e-04
8.69375000000000e+00 1.79825080723144e-02 1.92787493340039e-04
8.78291666666667e+00 1.77256827022237e-02 1.91006196911516e-04
8.87208333333333e+00 1.74725253004026e-02 1.89231605332187e-04
8.96125000000000e+00 1.72229834810969e-02 1.87464031560053e-04
9.05041666666667e+00 1.69770056069950e-02 1.85703773596843e-04
9.13958333333333e+00 1.67345407777206e-02 1.83951114891164e-04
9.22875000000000e+00 1.64955388201285e-02 1.82206324723979e-04
9.31791666666667e+00 1.62599502778974e-02 1.80469659029187e-04
9.40708333333333e+00 1.60277264005302e-02 1.78741360742283e-04
9.49625000000000e+00 1.57988191340376e-02 1.77021660134008e-04
9.58541666666667e+00 1.55731811109707e-02 1.75310775556263e-04
9.67458333333333e+00 1.53507656399069e-02 1.73608913744019e-04
9.76375000000000e+00 1.51315266965064e-02 1.71916270104437e-04
9.85291666666667e+00 1.49154189139659e-02 1.70233029396568e-04
9.94208333333333e+00 1.47023975729679e-02 1.68559365992972e-04
1.00312500000000e+01 1.44924185930959e-02 1.66895444011278e-04
1.01204166666667e+01 1.42854385242972e-02 1.65241418413249e-04
1.02095833333333e+01 1.40814145348443e-02 1.63597434750451e-04
1.02987500000000e+01 1.38803044061669e-02 1.61963628791720e-04
1.03879166666667e+01 1.36820665245656e-02 1.60340128746777e-04
1.04770833333333e+01 1.34866598668313e-02 1.58727054522379e-04
1.05662500000000e+01 1.32940439975725e-02 1.57124516872201e-04
1.06554166666667e+01 1.31041790606745e-02 1.55532619966961e-04
1.07445833333333e+01 1.29170257656660e-02 1.53951460554065e-04
1.08337500000000e+01 1.27325453850185e-02 1.52381127138969e-04
1.09229166666667e+01 1.25506997459713e-02 1.50821702401548e-04
1.10120833333333e+01 1.23714512176014e-02 1.49273262387633e-04
1.11012500000000e+01 1.21947627081087e-02 1.47735875721685e-04
1.11904166666667e+01 1.20205976569907e-02 1.46209605880190e-04
1.12795833333333e+01 1.18489200227748e-02 1.44694510414744e-04
1.13687500000000e+01 1.16796942803014e-02 1.43190640195651e-04
1.14579166666667e+01 1.15128854132327e-02 1.41698041552162e-04
1.15470833333333e+01 1.13484589024100e-02 1.40216755526612e-04
1.16362500000000e+01 1.11863807231441e-02 1.38746817148373e-04
1.17254166666667e+01 1.10266173380446e-02 1.37288257449933e-04
1.18145833333333e+01 1.08691356859656e-02 1.35841102751402e-04
1.19037500000000e+01 1.07139031793133e-02 1.34405373964162e-04
1.19929166666667e+01 1.05608876971815e-02 1.32981088491016e-04
1.20820833333333e+01 1.04100575748525e-02 1.31568259540299e-04
1.21712500000000e+01 1.02613816011294e-02 1.30166895458459e-04
1.22604166666667e+01 1.01148290117649e-02 1.28777001521845e-04
1.23495833333333e+01 9.97036947948626e-03 1.27398579279593e-04
1.24387500000000e+01 9.82797311135914e-03 1.26031625914287e-04
1.25279166666667e+01 9.68761044249603e-03 1.24676135932361e-04
1.26170833333333e+01 9.54925242657777e-03 1.23332100534877e-04
1.27062500000000e+01 9.41287043325303e-03 1.21999507005383e-04
1.27954166666667e+01 9.27843624211556e-03 1.20678340305370e-04
1.28845833333333e+01 9.14592203369407e-03 1.19368582472020e-04
1.29737500000000e+01 9.01530038689286e-03 1.18070212032327e-04
1.30629166666667e+01 8.88654427322582e-03 1.16783205509582e-04
1.31520833333333e+01 8.75962704824949e-03 1.15507536847138e-04
1.32412500000000e+01 8.63452244904869e-03 1.14243176847892e-04
1.33304166666667e+01 8.51120458871619e-03 1.12990094597292e-04
1.34195833333333e+01 8.38964794820518e-03 1.11748256912163e-04
1.35087500000000e+01 8.26982737386312e-03 1.10517627804625e-04
1.35979166666667e+01 8.15171807214652e-03 1.09298169826726e-04
1.36870833333333e+01 8.03529560187048e-03 1.08089843543408e-04
1.37762500000000e+01 7.92053587179337e-03 1.06892607019913e-04
1.38654166666667e+01 7.80741513555660e-03 1.05706417092800e-04
1.39545833333333e+01 7.69590998431028e-03 1.04531228866102e-04
1.40437500000000e+01 7.58599734435081e-03 1.03366995221314e-04
1.41329166666667e+01 7.47765447227600e-03 1.02213668019200e-04
1.42220833333333e+01 7.37085894796711e-03 1.01071197618226e-04
1.43112500000000e+01 7.26558867228100e-03 9.99395324062206e-05
1.44004166666667e+01 7.16182186241132e-03 9.88186199371006e-05
1.44895833333333e+01 7.05953704520844e-03 9.77084064706557e-05
1.45787500000000e+01 6.95871305492730e-03 9.66088365250120e-05
1.46679166666667e+01 6.85932902878594e-03 9.55198539520955e-05
1.47570833333333e+01 6.76136440060577e-03 9.44414014979086e-05
1.48462500000000e+01 6.66479889861603e-03 9.33734203749150e-05
1.49354166666667e+01 6.56961254120121e-03 9.23158512798286e-05
1.50245833333333e+01 6.47578563084516e-03 9.12686339735102e-05
1.51137500000000e+01 6.38329875199278e-03 9.02317068724515e-05
1.52029166666667e+01 6.29213276697822e-03 8.92050080122271e-05
1.52920833333333e+01 6.20226881025732e-03 8.81884746461863e-05
1.53812500000000e+01 6.11368828632679e-03 8.71820428552127e-05
1.54704166666667e+01 6.02637286582547e-03 8.61856484599606e-05
1.55595833333333e+01 5.94030448004049e-03 8.51992266375413e-05
1.56487500000000e+01 5.85546531888401e-03 8.42227115487836e-05
1.57379166666667e+01 5.77183782716004e-03 8.32560372021665e-05
1.58270833333333e+01 5.68940469933062e-03 8.22991370877226e-05
1.59162500000000e+01 5.60814887754985e-03 8.13519438210391e-05
1.60054166666667e+01 5.52805354808936e-03 8.04143899616372e-05
1.60945833333333e+01 5.44910213635129e-03 7.94864076633335e-05
1.61837500000000e+01 5.37127830495935e-03 7.85679283342475e-05
1.62729166666667e+01 5.29456595033617e-03 7.76588834121975e-05
1.63620833333333e+01 5.21894919795072e-03 7.67592040307997e-05
1.64512500000000e+01 5.14441240046600e-03 7.58688206947779e-05
1.65404166666667e+01 5.07094013446166e-03 7.49876640147763e-05
1.66295833333333e+01 4.99851719590431e-03 7.41156643885094e-05
1.67187500000000e+01 4.92712859835116e-03 7.32527516906950e-05
1.68079166666667e+01 4.85675956981171e-03 7.23988559695442e-05
1.68970833333333e+01 4.78739554842997e-03 7.15539071422889e-05
1.69862500000000e+01 4.71902218074326e-03 7.07178346990947e-05
1.70754166666667e+01 4.65162531867713e-03 6.98905683633469e-05
1.71645833333333e+01 4.58519101542891e-03 6.90720378009127e-05
1.72537500000000e+01 4.51970552378096e-03 6.82621723374142e-05
1.73429166666667e+01 4.45515529322305e-03 6.74609015842990e-05
1.74320833333333e+01 4.39152696602751e-03 6.66681551612299e-05
1.75212500000000e+01 4.32880737561582e-03 6.58838624261135e-05
1.76104166666667e+01 4.26698354380319e-03 6.51079530688309e-05
1.76995833333333e+01 4.20604267705582e-03 6.43403568461668e-05
1.77887500000000e+01 4.14597216491000e-03 6.35810033240225e-05
1.78779166666667e+01 4.08675957733351e-03 6.28298224405693e-05
1.79670833333333e+01 4.02839266115628e-03 6.20867442531453e-05
1.80562500000000e+01 3.97085933854083e-03 6.13516986921097e-05
1.81454166666667e+01 3.91414770445567e-03 6.06246160950833e-05
1.82345833333333e+01 3.85824602327081e-03 5.99054269652687e-05
1.83237500000000e+01 3.80314272727857e-03 5.91940617364181e-05
1.84129166666667e+01 3.74882641427415e-03 5.84904512797197e-05
1.85020833333333e+01 3.69528584430803e-03 5.77945266730335e-05
1.85912500000000e+01 3.64250993825607e-03 5.71062189764656e-05
1.86804166666667e+01 3.59048777550261e-03 5.64254597133714e-05
1.87695833333333e+01 3.53920859084235e-03 5.57521806500139e-05
1.88587500000000e+01 3.48866177309846e-03 5.50863135812684e-05
1.89479166666667e+01 3.43883686290390e-03 5.44277907871228e-05
1.90370833333333e+01 3.38972354974560e-03 5.37765448222830e-05
1.91262500000000e+01 3.34131167062938e-03 5.31325083115525e-05
1.92154166666667e+01 3.29359120795543e-03 5.24956143831372e-05
1.93045833333333e+01 3.24655228669786e-03 5.18657964677503e-05
1.93937500000000e+01 3.20018517311537e-03 5.12429881032235e-05
1.94829166666667e+01 3.15448027271672e-03 5.06271233458501e-05
1.95720833333333e+01 3.10942812756935e-03 5.00181365785545e-05
1.96612500000000e+01 3.06501941505455e-03 4.94159623243176e-05
1.97504166666667e+01 3.02124494591912e-03 4.88205356367201e-05
1.98395833333333e+01 2.97809566170690e-03 4.82317919167669e-05
1.99287500000000e+01 2.93556263355722e-03 4.76496667347272e-05
2.00179166666667e+01 2.89363706033917e-03 4.70740962009710e-05
2.01070833333333e+01 2.85231026620014e-03 4.65050167910554e-05
2.01962500000000e+01 2.81157369940642e-03 4.59423651755971e-05
2.02854166666667e+01 2.77141893055649e-03 4.53860785724382e-05
2.03745833333333e+01 2.73183765024117e-03 4.48360945796214e-05
2.04637500000000e+01 2.69282166792501e-03 4.42923510129254e-05
2.05529166666667e+01 2.65436291023543e-03 4.37547862403411e-05
2.06420833333333e+01 2.61645341872902e-03 4.32233390225717e-05
2.07312500000000e+01 2.57908534881278e-03 4.26979483578867e-05
2.08204166666667e+01 2.54225096810564e-03 4.21785537998324e-05
2.09095833333333e+01 2.50594265430615e-03 4.16650953049149e-05
2.09987500000000e+01 2.47015289415220e-03 4.11575130844376e-05
2.10879166666667e+01 2.43487428185201e-03 4.06557479063139e-05
2.11770833333333e+01 2.40009951704833e-03 4.01597409496126e-05
2.12662500000000e+01 2.36582140381560e-03 3.96694336630624e-05
2.13554166666667e+01 2.33203284915733e-03 3.91847680517922e-05
2.14445833333333e+01 2.29872686106245e-03 3.87056865384204e-05
2.15337500000000e+01 2.26589654753862e-03 3.82321318279243e-05
2.16229166666667e+01 2.23353511517333e-03 3.77640471800897e-05
2.17120833333333e+01 2.20163586727794e-03 3.73013762768469e-05
2.18012500000000e+01 2.17019220295617e-03 3.68440630932159e-05
2.18904166666667e+01 2.13919761572611e-03 3.63920521562028e-05
2.19795833333333e+01 2.10864569174798e-03 3.59452884180960e-05
2.20687500000000e+01 2.07853010892654e-03 3.55037171332127e-05
2.21579166666667e+01 2.04884463559159e-03 3.50672841039377e-05
2.22470833333333e+01 2.01958312880538e-03 3.46359355597099e-05
2.23362500000000e+01 1.99073953349811e-03 3.42096180393060e-05
2.24254166666667e+01 1.96230788120414e-03 3.37882786246789e-05
2.25145833333333e+01 1.93428228844566e-03 3.33718648253823e-05
2.26037500000000e+01 1.90665695589994e-03 3.29603244661359e-05
2.26929166666667e+01 1.87942616718912e-03 3.25536059090885e-05
2.27820833333333e+01 1.85258428733643e-03 3.21516579434325e-05
2.28712500000000e+01 1.82612576196427e-03 3.17544296780100e-05
2.29604166666667e+01 1.80004511613525e-03 3.13618707525940e-05
2.30495833333333e+01 1.77433695287763e-03 3.09739312324544e-05
2.31387500000000e+01 1.74899595241326e-03 3.05905615057781e-05
2.32279166666667e+01 1.72401687104760e-03 3.02117124845281e-05
2.33170833333333e+01 1.69939453976129e-03 2.98373355037351e-05
2.34062500000000e+01 1.67512386346686e-03 2.94673822235127e-05
2.34954166666667e+01 1.65119981994575e-03 2.91018048200244e-05
2.35845833333333e+01 1.62761745850292e-03 2.87405558892864e-05
2.36737500000000e+01 1.60437189925132e-03 2.83835883535696e-05
2.37629166666667e+01 1.58145833209402e-03 2.80308556429749e-05
2.38520833333333e+01 1.55887201543887e-03 2.76823116035427e-05
2.39412500000000e+01 1.53660827550990e-03 2.73379104078446e-05
2.40304166666667e+01 1.51466250537248e-03 2.69976067276415e-05
2.41195833333333e+01 1.49303016370546e-03 2.66613556461035e-05
2.42087500000000e+01 1.47170677413843e-03 2.63291125724011e-05
2.42979166666667e+01 1.45068792431824e-03 2.60008334058971e-05
2.43870833333333e+01 1.42996926473581e-03 2.56764744522917e-05
2.44762500000000e+01 1.40954650808854e-03 2.53559923420307e-05
2.45654166666667e+01 1.38941542838629e-03 2.50393441864568e-05
2.46545833333333e+01 1.36957185983047e-03 2.47264874977023e-05
2.47437500000000e+01 1.35001169620065e-03 2.44173801107447e-05
2.48329166666667e+01 1.33073088999835e-03 2.41119803319184e-05
2.49220833333333e+01 1.31172545137608e-03 2.38102468623878e-05
2.50112500000000e+01 1.29299144754723e-03 2.35121387236800e-05
2.51004166666667e+01 1.27452500196613e-03 2.32176153989464e-05
2.51895833333333e+01 1.25632229330469e-03 2.29266367598514e-05
2.52787500000000e+01 1.23837955488483e-03 2.26391629954275e-05
2.53679166666667e+01 1.22069307389323e-03 2.23551547464452e-05
2.54570833333333e+01 1.20325919040343e-03 2.20745730355648e-05
2.55462500000000e+01 1.18607429682998e-03 2.17973791993640e-05
2.56354166666667e+01 1.16913483717640e-03 2.15235350161633e-05
2.57245833333333e+01 1.15243730610072e-03 2.12530026392904e-05
2.58137500000000e+01 1.13597824839054e-03 2.09857445321381e-05
2.59029166666667e+01 1.11975425824284e-03 2.07217235897710e-05
2.59920833333333e+01 1.10376197837092e-03 2.04609030751625e-05
2.60812500000000e+01 1.08799809949968e-03 2.02032465571460e-05
2.61704166666667e+01 1.07245935967589e-03 1.99487180261113e-05
2.62595833333333e+01 1.05714254341469e-03 1.96972818330837e-05
2.63487500000000e+01 1.04204448121436e-03 1.94489026304345e-05
2.64379166666667e+01 1.02716204889572e-03 1.92035454819627e-05
2.65270833333333e+01 1.01249216678647e-03 1.89611758046869e-05
2.66162500000000e+01 9.98031799254647e-04 1.87217593121921e-05
2.67054166666667e+01 9.83777954076044e-04 1.84852621193757e-05
2.67945833333333e+01 9.69727681654578e-04 1.82516506868286e-05
2.68837500000000e+01 9.55878074573830e-04 1.80208917666998e-05
2.69729166666667e+01 9.42226266991208e-04 1.77929525023707e-05
2.70620833333333e+01 9.28769433892807e-04 1.75678003753085e-05
2.71512500000000e+01 9.15504790662327e-04 1.73454031533370e-05
2.72404166666667e+01 9.02429592500874e-04 1.71257289854896e-05
2.73295833333333e+01 8.89541133714727e-04 1.69087463512239e-05
2.74187500000000e+01 8.76836747301012e-04 1.66944240109902e-05
2.75079166666667e+01 8.64313804392057e-04 1.64827310965006e-05
2.75970833333333e+01 8.51969713574584e-04 1.62736370621979e-05
2.76862500000000e+01 8.39801920491530e-04 1.60671116380207e-05
2.77754166666667e+01 8.27807907309898e-04 1.58631249153142e-05
2.78645833333333e+01 8.15985192069983e-04 1.56616473004532e-05
2.79537500000000e+01 8.04331328302723e-04 1.54626494697009e-05
2.80429166666667e+01 7.92843904520072e-04 1.52661024509792e-05
2.81320833333333e+01 7.81520543592893e-04 1.50719775795486e-05
