Energy (eV)          EEDF (eV^-(3/2))     First Anisotropy
1.81967213114754e-04 6.89667806665785e+01 2.56609612870878e-02
5.45901639344262e-04 6.85776884566552e+01 4.23965394480604e-02
9.09836065573771e-04 6.81907914014350e+01 5.60291970284882e-02
1.27377049180328e-03 6.78060771159002e+01 6.64232237007068e-02
1.63770491803279e-03 6.74235332869390e+01 7.51228125606952e-02
2.00163934426230e-03 6.70431476678619e+01 8.27107551476474e-02
2.36557377049180e-03 6.66649080827135e+01 8.94881333833897e-02
2.72950819672131e-03 6.62888024251740e+01 9.56364598706969e-02
3.09344262295082e-03 6.59148186552931e+01 1.01275919233131e-01
3.45737704918033e-03 6.55429448019695e+01 1.06491316613709e-01
3.82131147540984e-03 6.51731689623132e+01 1.11345326897923e-01
4.18524590163934e-03 6.48054792992531e+01 1.15885934094382e-01
4.54918032786885e-03 6.44398640436628e+01 1.20150913787545e-01
4.91311475409836e-03 6.40763114917967e+01 1.24170685430946e-01
5.27704918032787e-03 6.37148100064431e+01 1.27970208252191e-01
5.64098360655738e-03 6.33553480164518e+01 1.31570287456208e-01
6.00491803278689e-03 6.29979140151382e+01 1.34988501263507e-01
6.36885245901639e-03 6.26424965611373e+01 1.38239875813081e-01
6.73278688524590e-03 6.22890842779732e+01 1.41337387425826e-01
7.09672131147541e-03 6.19376658526758e+01 1.44292343381961e-01
7.46065573770492e-03 6.15882300367258e+01 1.47114675574485e-01
7.82459016393443e-03 6.12407656444858e+01 1.49813170294998e-01
8.18852459016394e-03 6.08952615537133e+01 1.52395650387736e-01
8.55245901639344e-03 6.05517067051658e+01 1.54869121480015e-01
8.91639344262295e-03 6.02100901014920e+01 1.57239890487920e-01
9.28032786885246e-03 5.98704008076340e+01 1.59513662652278e-01
9.64426229508197e-03 5.95326279504476e+01 1.61695621771505e-01
1.00081967213115e-02 5.91967607176904e+01 1.63790496915800e-01
1.03721311475410e-02 5.88627883591087e+01 1.65802618588385e-01
1.07360655737705e-02 5.85307001822203e+01 1.67735965814604e-01
1.11000000000000e-02 5.82004855589026e+01 1.69594206492335e-01
1.14639344262295e-02 5.78721339190150e+01 1.71380731984445e-01
1.18278688524590e-02 5.75456347520566e+01 1.73098686541235e-01
1.21918032786885e-02 5.72209776052372e+01 1.74750992738102e-01
1.25557377049180e-02 5.68981520880180e+01 1.76340373848645e-01
1.29196721311475e-02 5.65771478667909e+01 1.77869373346575e-01
1.32836065573771e-02 5.62579546662577e+01 1.79340371734375e-01
1.36475409836066e-02 5.59405622677040e+01 1.80755601347824e-01
1.40114754098361e-02 5.56249605129157e+01 1.82117159683473e-01
1.43754098360656e-02 5.53111392995224e+01 1.83427021194845e-01
1.47393442622951e-02 5.49990885821613e+01 1.84687047538494e-01
1.51032786885246e-02 5.46887983709173e+01 1.85898996715753e-01
1.54672131147541e-02 5.43802587347416e+01 1.87064531486624e-01
1.58311475409836e-02 5.40734597973267e+01 1.88185226966159e-01
1.61950819672131e-02 5.37683917369619e+01 1.89262576947653e-01
1.65590163934426e-02 5.34650447896604e+01 1.90298000117487e-01
1.69229508196721e-02 5.31634092453413e+01 1.91292845609868e-01
1.72868852459016e-02 5.28634754487028e+01 1.92248397821057e-01
1.76508196721312e-02 5.25652337979078e+01 1.93165880788228e-01
1.80147540983607e-02 5.22686747473570e+01 1.94046462386886e-01
1.83786885245902e-02 5.19737888042504e+01 1.94891258153957e-01
1.87426229508197e-02 5.16805665293444e+01 1.95701334574865e-01
1.91065573770492e-02 5.13889985357388e+01 1.96477712100264e-01
1.94704918032787e-02 5.10990754913523e+01 1.97221368111079e-01
1.98344262295082e-02 5.08107881158036e+01 1.97933239639380e-01
2.01983606557377e-02 5.05241271810713e+01 1.98614225677454e-01
2.05622950819672e-02 5.02390835103694e+01 1.99265189314017e-01
2.09262295081967e-02 4.99556479803702e+01 1.99886959892266e-01
2.12901639344262e-02 4.96738115183574e+01 2.00480335003065e-01
2.16540983606557e-02 4.93935651028051e+01 2.01046082145876e-01
2.20180327868852e-02 4.91148997623292e+01 2.01584940276820e-01
2.23819672131148e-02 4.88378065776948e+01 2.02097621420766e-01
2.27459016393443e-02 4.85622766792040e+01 2.02584812211428e-01
2.31098360655738e-02 4.82883012464922e+01 2.03047174937664e-01
2.34737704918033e-02 4.80158715104017e+01 2.03485348906306e-01
2.38377049180328e-02 4.77449787505149e+01 2.03899951669483e-01
2.42016393442623e-02 4.74756142956105e+01 2.04291580000641e-01
2.45655737704918e-02 4.72077695227376e+01 2.04660810815409e-01
2.49295081967213e-02 4.69414358589193e+01 2.05008202193456e-01
2.52934426229508e-02 4.66766047788725e+01 2.05334294335830e-01
2.56573770491803e-02 4.64132678054106e+01 2.05639610300987e-01
2.60213114754098e-02 4.61514165085733e+01 2.05924656703980e-01
2.63852459016393e-02 4.58910425071805e+01 2.06189924524695e-01
2.67491803278689e-02 4.56321374667167e+01 2.06435889868480e-01
2.71131147540984e-02 4.53746930996885e+01 2.06663014528062e-01
2.74770491803279e-02 4.51187011648023e+01 2.06871746520979e-01
2.78409836065574e-02 4.48641534683883e+01 2.07062520739789e-01
2.82049180327869e-02 4.46110418624300e+01 2.07235759566489e-01
2.85688524590164e-02 4.43593582448815e+01 2.07391873305807e-01
2.89327868852459e-02 4.41090945588908e+01 2.07531260602751e-01
2.92967213114754e-02 4.38602427941062e+01 2.07654308973672e-01
2.96606557377049e-02 4.36127949848370e+01 2.07761395343554e-01
3.00245901639344e-02 4.33667432098437e+01 2.07852886247910e-01
3.03885245901639e-02 4.31220795935708e+01 2.07929138330388e-01
3.07524590163934e-02 4.28787963043917e+01 2.07990498781477e-01
3.11163934426230e-02 4.26368855548623e+01 2.08037305618095e-01
3.14803278688525e-02 4.23963396010171e+01 2.08069887956839e-01
3.18442622950820e-02 4.21571507435063e+01 2.08088566399592e-01
3.22081967213115e-02 4.19193113259490e+01 2.08093653401675e-01
3.25721311475410e-02 4.16828137351591e+01 2.08085453491419e-01
3.29360655737705e-02 4.14476504004760e+01 2.08064263486706e-01
3.33000000000000e-02 4.12138137948148e+01 2.08030372821252e-01
3.36639344262295e-02 4.09812964331191e+01 2.07984063857167e-01
3.40278688524590e-02 4.07500908725614e+01 2.07925612058032e-01
3.43918032786885e-02 4.05201897119057e+01 2.07855286161280e-01
3.47557377049180e-02 4.02915855924798e+01 2.07773348457252e-01
3.51196721311475e-02 4.00642711967180e+01 2.07680055057442e-01
3.54836065573771e-02 3.98382392483391e+01 2.07575656031101e-01
3.58475409836066e-02 3.96134825117387e+01 2.07460395542912e-01
3.62114754098361e-02 3.93899937928907e+01 2.07334512094009e-01
3.65754098360656e-02 3.91677659379721e+01 2.07198238754487e-01
3.69393442622951e-02 3.89467918335214e+01 2.07051803271182e-01
3.73032786885246e-02 3.87270644058577e+01 2.06895428177814e-01
3.76672131147541e-02 3.85085766219183e+01 2.06729331005019e-01
3.80311475409836e-02 3.82913214879592e+01 2.06553724509610e-01
3.83950819672131e-02 3.80752920493580e+01 2.06368816655145e-01
3.87590163934426e-02 3.78604813914085e+01 2.06174810831048e-01
3.91229508196721e-02 3.76468826380719e+01 2.05971906037841e-01
3.94868852459016e-02 3.74344889521016e+01 2.05760296957469e-01
3.98508196721312e-02 3.72232935345088e+01 2.05540174027384e-01
4.02147540983607e-02 3.70132896253030e+01 2.05311723609367e-01
4.05786885245902e-02 3.68044705023084e+01 2.05075128153763e-01
4.09426229508197e-02 3.65968294812735e+01 2.04830566254132e-01
4.13065573770492e-02 3.63903599153597e+01 2.04578212706312e-01
4.16704918032787e-02 3.61850551958313e+01 2.04318238658676e-01
4.20344262295082e-02 3.59809087509322e+01 2.04050811758766e-01
4.23983606557377e-02 3.57779140459830e+01 2.03776096195390e-01
4.27622950819672e-02 3.55760645828893e+01 2.03494252745310e-01
4.31262295081967e-02 3.53753539007865e+01 2.03205438907910e-01
4.34901639344262e-02 3.51757755749728e+01 2.02909809037006e-01
4.38540983606557e-02 3.49773232169933e+01 2.02607514372607e-01
4.42180327868852e-02 3.47799904741689e+01 2.02298703077614e-01
4.45819672131148e-02 3.45837710301983e+01 2.01983520359197e-01
4.49459016393443e-02 3.43886586041430e+01 2.01662108609336e-01
4.53098360655738e-02 3.41946469502445e+01 2.01334607342170e-01
4.56737704918033e-02 3.40017298584984e+01 2.01001153330275e-01
4.60377049180328e-02 3.38099011536744e+01 2.00661880715821e-01
4.64016393442623e-02 3.36191546953810e+01 2.00316921028388e-01
4.67655737704918e-02 3.34294843776271e+01 1.99966403207908e-01
4.71295081967213e-02 3.32408841293594e+01 1.99610453707461e-01
4.74934426229508e-02 3.30533479135288e+01 1.99249196594682e-01
4.78573770491803e-02 3.28668697271455e+01 1.98882753563665e-01
4.82213114754098e-02 3.26814436008577e+01 1.98511243952028e-01
4.85852459016394e-02 3.24970635994546e+01 1.98134784834868e-01
4.89491803278689e-02 3.23137238209761e+01 1.97753491117732e-01
4.93131147540984e-02 3.21314183967597e+01 1.97367475543644e-01
4.96770491803279e-02 3.19501414910347e+01 1.96976848705292e-01
5.00409836065574e-02 3.17698873013935e+01 1.96581719131280e-01
5.04049180327869e-02 3.15906500579426e+01 1.96182193371734e-01
5.07688524590164e-02 3.14124240233407e+01 1.95778376001299e-01
5.11327868852459e-02 3.12352034924084e+01 1.95370369627247e-01
5.14967213114754e-02 3.10589827925707e+01 1.94958274969038e-01
5.18606557377049e-02 3.08837562830449e+01 1.94542190955285e-01
5.22245901639344e-02 3.07095183546729e+01 1.94122214651573e-01
5.25885245901639e-02 3.05362634303446e+01 1.93698441355135e-01
5.29524590163934e-02 3.03639859642115e+01 1.93270964669802e-01
5.33163934426230e-02 3.01926804417132e+01 1.92839876503354e-01
5.36803278688525e-02 3.00223413792113e+01 1.92405267069954e-01
5.40442622950820e-02 2.98529633243874e+01 1.91967224959907e-01
5.44081967213115e-02 2.96845408554908e+01 1.91525837209312e-01
5.47721311475410e-02 2.95170685813585e+01 1.91081189295110e-01
5.51360655737705e-02 2.93505411410631e+01 1.90633365135055e-01
5.55000000000000e-02 2.91849532042857e+01 1.90182447152582e-01
5.58639344262295e-02 2.90202994705964e+01 1.89728516341834e-01
5.62278688524590e-02 2.88565746694686e+01 1.89271652260740e-01
5.65918032786885e-02 2.86937735599394e+01 1.88811933028931e-01
5.69557377049180e-02 2.85318909309600e+01 1.88349435388328e-01
5.73196721311475e-02 2.83709216007063e+01 1.87884234763932e-01
5.76836065573771e-02 2.82108604165891e+01 1.87416405255301e-01
5.80475409836066e-02 2.80517022549249e+01 1.86946019632812e-01
5.84114754098361e-02 2.78934420212666e+01 1.86473149394333e-01
5.87754098360656e-02 2.77360746497421e+01 1.85997864822206e-01
5.91393442622951e-02 2.75795951030601e+01 1.85520234973459e-01
5.95032786885246e-02 2.74239983721920e+01 1.85040327674657e-01
5.98672131147541e-02 2.72692794766837e+01 1.84558209575020e-01
6.02311475409836e-02 2.71154334640203e+01 1.84073946214596e-01
6.05950819672131e-02 2.69624554094776e+01 1.83587601954948e-01
6.09590163934426e-02 2.68103404164190e+01 1.83099240045859e-01
6.13229508196721e-02 2.66590836156805e+01 1.82608922676693e-01
6.16868852459016e-02 2.65086801655685e+01 1.82116710964757e-01
6.20508196721312e-02 2.63591252515610e+01 1.81622664948144e-01
6.24147540983607e-02 2.62104140865884e+01 1.81126843633579e-01
6.27786885245902e-02 2.60625419104425e+01 1.80629305044927e-01
6.31426229508197e-02 2.59155039897707e+01 1.80130106210807e-01
6.35065573770492e-02 2.57692956177873e+01 1.79629303156605e-01
6.38704918032787e-02 2.56239121145382e+01 1.79126950949665e-01
6.42344262295082e-02 2.54793488263327e+01 1.78623103745069e-01
6.45983606557377e-02 2.53356011257351e+01 1.78117814772760e-01
6.49622950819672e-02 2.51926644112850e+01 1.77611136328857e-01
6.53262295081967e-02 2.50505341077470e+01 1.77103119818367e-01
6.56901639344262e-02 2.49092056655644e+01 1.76593815798547e-01
6.60540983606557e-02 2.47686745608483e+01 1.76083273965578e-01
6.64180327868853e-02 2.46289362951067e+01 1.75571543145371e-01
6.67819672131148e-02 2.44899863954797e+01 1.75058671333977e-01
6.71459016393443e-02 2.43518204142148e+01 1.74544705751084e-01
6.75098360655738e-02 2.42144339285308e+01 1.74029692776695e-01
6.78737704918033e-02 2.40778225408438e+01 1.73513678003554e-01
6.82377049180328e-02 2.39419818782567e+01 1.72996706276803e-01
6.86016393442623e-02 2.38069075925428e+01 1.72478821680038e-01
6.89655737704918e-02 2.36725953598908e+01 1.71960067525359e-01
6.93295081967213e-02 2.35390408811175e+01 1.71440486390322e-01
6.96934426229508e-02 2.34062398811766e+01 1.70920120155623e-01
7.00573770491803e-02 2.32741881091403e+01 1.70399009991057e-01
7.04213114754098e-02 2.31428813379524e+01 1.69877196345272e-01
7.07852459016394e-02 2.30123153646286e+01 1.69354718980829e-01
7.11491803278689e-02 2.28824860097839e+01 1.68831617010156e-01
7.15131147540984e-02 2.27533891176123e+01 1.68307928881389e-01
7.18770491803279e-02 2.26250205556473e+01 1.67783692367898e-01
7.22409836065574e-02 2.24973762149511e+01 1.67258944601721e-01
7.26049180327869e-02 2.23704520096596e+01 1.66733722107784e-01
7.29688524590164e-02 2.22442438769598e+01 1.66208060789686e-01
7.33327868852459e-02 2.21187477768582e+01 1.65681995919157e-01
7.36967213114754e-02 2.19939596923594e+01 1.65155562167840e-01
7.40606557377049e-02 2.18698756290271e+01 1.64628793650543e-01
7.44245901639344e-02 2.17464916148617e+01 1.64101723868618e-01
7.47885245901639e-02 2.16238037004722e+01 1.63574385752254e-01
7.51524590163934e-02 2.15018079586482e+01 1.63046811692103e-01
7.55163934426230e-02 2.13805004843359e+01 1.62519033525066e-01
7.58803278688525e-02 2.12598773944178e+01 1.61991082523530e-01
7.62442622950820e-02 2.11399348278749e+01 1.61462989424759e-01
7.66081967213115e-02 2.10206689453751e+01 1.60934784461104e-01
7.69721311475410e-02 2.09020759292466e+01 1.60406497345882e-01
7.73360655737705e-02 2.07841519832649e+01 1.59878157262623e-01
7.77000000000000e-02 2.06668933328061e+01 1.59349792893134e-01
7.80639344262295e-02 2.05502962244495e+01 1.58821432446402e-01
7.84278688524590e-02 2.04343569259502e+01 1.58293103644595e-01
7.87918032786885e-02 2.03190717260323e+01 1.57764833712322e-01
7.91557377049180e-02 2.02044369345338e+01 1.57236649403483e-01
7.95196721311476e-02 2.00904488820229e+01 1.56708577028929e-01
7.98836065573771e-02 1.99771039197700e+01 1.56180642442619e-01
8.02475409836066e-02 1.98643984195470e+01 1.55652871030935e-01
8.06114754098361e-02 1.97523287737636e+01 1.55125287738361e-01
8.09754098360656e-02 1.96408913950980e+01 1.54597917094015e-01
8.13393442622951e-02 1.95300827164669e+01 1.54070783197951e-01
8.17032786885246e-02 1.94198991908313e+01 1.53543909710541e-01
8.20672131147541e-02 1.93103372913255e+01 1.53017319877085e-01
8.24311475409836e-02 1.92013935108998e+01 1.52491036562043e-01
8.27950819672131e-02 1.90930643622124e+01 1.51965082200239e-01
8.31590163934426e-02 1.89853463777535e+01 1.51439478830323e-01
8.35229508196721e-02 1.88782361094967e+01 1.50914248119498e-01
8.38868852459017e-02 1.87717301288685e+01 1.50389411350102e-01
8.42508196721312e-02 1.86658250265637e+01 1.49864989409126e-01
8.46147540983607e-02 1.85605174126623e+01 1.49341002811111e-01
8.49786885245902e-02 1.84558039162934e+01 1.48817471721880e-01
8.53426229508197e-02 1.83516811856038e+01 1.48294415945353e-01
8.57065573770492e-02 1.82481458875781e+01 1.47771854913147e-01
8.60704918032787e-02 1.81451947081504e+01 1.47249807706568e-01
8.64344262295082e-02 1.80428243518786e+01 1.46728293079421e-01
8.67983606557377e-02 1.79410315419128e+01 1.46207329445021e-01
8.71622950819672e-02 1.78398130198209e+01 1.45686934865970e-01
8.75262295081967e-02 1.77391655456933e+01 1.45167127075246e-01
8.78901639344262e-02 1.76390858978291e+01 1.44647923498114e-01
8.82540983606557e-02 1.75395708727033e+01 1.44129341239386e-01
8.86180327868853e-02 1.74406172847979e+01 1.43611397073355e-01
8.89819672131148e-02 1.73422219667006e+01 1.43094107464027e-01
8.93459016393443e-02 1.72443817688014e+01 1.42577488593804e-01
8.97098360655738e-02 1.71470935591948e+01 1.42061556320539e-01
9.00737704918033e-02 1.70503542237751e+01 1.41546326205500e-01
9.04377049180328e-02 1.69541606659399e+01 1.41031813533922e-01
9.08016393442623e-02 1.68585098065572e+01 1.40518033302612e-01
9.11655737704918e-02 1.67633985838040e+01 1.40005000210088e-01
9.15295081967213e-02 1.66688239532569e+01 1.39492728675541e-01
9.18934426229508e-02 1.65747828876053e+01 1.38981232858622e-01
9.22573770491803e-02 1.64812723766178e+01 1.38470526647275e-01
9.26213114754098e-02 1.63882894269859e+01 1.37960623648038e-01
9.29852459016394e-02 1.62958310624093e+01 1.37451537204320e-01
9.33491803278689e-02 1.62038943233185e+01 1.36943280415419e-01
9.37131147540984e-02 1.61124762668411e+01 1.36435866124621e-01
9.40770491803279e-02 1.60215739666500e+01 1.35929306909698e-01
9.44409836065574e-02 1.59311845130435e+01 1.35423615100440e-01
9.48049180327869e-02 1.58413050126774e+01 1.34918802797008e-01
9.51688524590164e-02 1.57519325885310e+01 1.34414881858282e-01
9.55327868852459e-02 1.56630643797597e+01 1.33911863892524e-01
9.58967213114754e-02 1.55746975417703e+01 1.33409760274283e-01
9.62606557377049e-02 1.54868292459621e+01 1.32908582168649e-01
9.66245901639344e-02 1.53994566796386e+01 1.32408340493473e-01
9.69885245901639e-02 1.53125770460803e+01 1.31909045943012e-01
9.73524590163935e-02 1.52261875642917e+01 1.31410709005183e-01
9.77163934426230e-02 1.51402854689665e+01 1.30913339950274e-01
9.80803278688525e-02 1.50548680103480e+01 1.30416948821903e-01
9.84442622950820e-02 1.49699324542972e+01 1.29921545452887e-01
9.88081967213115e-02 1.48854760820479e+01 1.29427139481869e-01
9.91721311475410e-02 1.48014961901724e+01 1.28933740342284e-01
9.95360655737705e-02 1.47179900904450e+01 1.28441357253495e-01
9.99000000000000e-02 1.46349551099069e+01 1.27949999223972e-01
1.00263934426230e-01 1.45523885907270e+01 1.27459675140224e-01
1.00627868852459e-01 1.44702878895790e+01 1.26970393592251e-01
1.00991803278689e-01 1.43886503789306e+01 1.26482162978373e-01
1.01355737704918e-01 1.43074734455794e+01 1.25994991682852e-01
1.01719672131148e-01 1.42267544905942e+01 1.25508887721714e-01
1.02083606557377e-01 1.41464909306569e+01 1.25023858985999e-01
1.02447540983607e-01 1.40666801960814e+01 1.24539913194307e-01
1.02811475409836e-01 1.39873197326135e+01 1.24057057881801e-01
1.03175409836066e-01 1.39084069994827e+01 1.23575300416318e-01
1.03539344262295e-01 1.38299394711719e+01 1.23094647930953e-01
1.03903278688525e-01 1.37519146359496e+01 1.22615107566583e-01
1.04267213114754e-01 1.36743299958122e+01 1.22136686123179e-01
1.04631147540984e-01 1.35971830677407e+01 1.21659390290547e-01
1.04995081967213e-01 1.35204713818407e+01 1.21183226603206e-01
1.05359016393443e-01 1.34441924830288e+01 1.20708201429763e-01
1.05722950819672e-01 1.33683439292032e+01 1.20234320988139e-01
1.06086885245902e-01 1.32929232929020e+01 1.19761591281392e-01
1.06450819672131e-01 1.32179281599243e+01 1.19290018327966e-01
1.06814754098361e-01 1.31433561292742e+01 1.18819607830408e-01
1.07178688524590e-01 1.30692048143380e+01 1.18350365394351e-01
1.07542622950820e-01 1.29954718411373e+01 1.17882296485614e-01
1.07906557377049e-01 1.29221548499097e+01 1.17415406419948e-01
1.08270491803279e-01 1.28492514933897e+01 1.16949700377443e-01
1.08634426229508e-01 1.27767594383641e+01 1.16485183341411e-01
1.08998360655738e-01 1.27046763643755e+01 1.16021860317042e-01
1.09362295081967e-01 1.26329999636679e+01 1.15559736016580e-01
1.09726229508197e-01 1.25617279422906e+01 1.15098815067236e-01
1.10090163934426e-01 1.24908580184557e+01 1.14639101970384e-01
1.10454098360656e-01 1.24203879240213e+01 1.14180601091658e-01
1.10818032786885e-01 1.23503154028751e+01 1.13723316674614e-01
1.11181967213115e-01 1.22806382123937e+01 1.13267252782509e-01
1.11545901639344e-01 1.22113541222229e+01 1.12812413505989e-01
1.11909836065574e-01 1.21424609142256e+01 1.12358802663878e-01
1.12273770491803e-01 1.20739563835165e+01 1.11906424000619e-01
1.12637704918033e-01 1.20058383369180e+01 1.11455281147449e-01
1.13001639344262e-01 1.19381045943516e+01 1.11005377612856e-01
1.13365573770492e-01 1.18707529873182e+01 1.10556716795527e-01
1.13729508196721e-01 1.18037813602669e+01 1.10109301928878e-01
1.14093442622951e-01 1.17371875694485e+01 1.09663136278424e-01
1.14457377049180e-01 1.16709694828639e+01 1.09218222857289e-01
1.14821311475410e-01 1.16051249812357e+01 1.08774564613763e-01
