Energy (eV)          EEDF (eV^-(3/2))     First Anisotropy
8.74193548387097e-03 5.70878174880802e-01 3.81216023385241e-04
2.62258064516129e-02 5.64552226529850e-01 6.28119873653932e-04
4.37096774193548e-02 5.58296376559808e-01 8.25551782877709e-04
6.11935483870968e-02 5.52109848177066e-01 9.73346937686702e-04
7.86774193548387e-02 5.45991873224275e-01 1.09480646434168e-03
9.61612903225807e-02 5.39941692063938e-01 1.19879602976478e-03
1.13645161290323e-01 5.33958553447421e-01 1.28993122517933e-03
1.31129032258065e-01 5.28041714485785e-01 1.37101559346121e-03
1.48612903225806e-01 5.22190440506986e-01 1.44391920409117e-03
1.66096774193548e-01 5.16404004979973e-01 1.50997129562605e-03
1.83580645161290e-01 5.10681689424458e-01 1.57016136070182e-03
2.01064516129032e-01 5.05022783321703e-01 1.62525238900638e-03
2.18548387096774e-01 4.99426584026294e-01 1.67584929745726e-03
2.36032258064516e-01 4.93892396678891e-01 1.72244260038253e-03
2.53516129032258e-01 4.88419534119954e-01 1.76543752152960e-03
2.71000000000000e-01 4.83007316804412e-01 1.80517410601169e-03
2.88483870967742e-01 4.77655072736083e-01 1.84194154296102e-03
3.05967741935484e-01 4.72362137326397e-01 1.87598861643713e-03
3.23451612903226e-01 4.67127853371326e-01 1.90753150372373e-03
3.40935483870968e-01 4.61951570949356e-01 1.93675971385056e-03
3.58419354838710e-01 4.56832647340791e-01 1.96384067476231e-03
3.75903225806452e-01 4.51770446947950e-01 1.98892333504260e-03
3.93387096774194e-01 4.46764341216254e-01 2.01214102840600e-03
4.10870967741936e-01 4.41813708556178e-01 2.03361377902166e-03
4.28354838709677e-01 4.36917934266077e-01 2.05345017679323e-03
4.45838709677419e-01 4.32076410455857e-01 2.07174891772149e-03
4.63322580645161e-01 4.27288535971500e-01 2.08860008043754e-03
4.80806451612903e-01 4.22553716320420e-01 2.10408619272693e-03
4.98290322580645e-01 4.17871363597651e-01 2.11828312927980e-03
5.15774193548387e-01 4.13240896412843e-01 2.13126087260557e-03
5.33258064516129e-01 4.08661739818083e-01 2.14308416210153e-03
5.50741935483871e-01 4.04133325236495e-01 2.15381305101095e-03
5.68225806451613e-01 3.99655090391641e-01 2.16350338698364e-03
5.85709677419355e-01 3.95226479237724e-01 2.17220722886836e-03
6.03193548387097e-01 3.90846941890533e-01 2.17997320994852e-03
6.20677419354839e-01 3.86515934559172e-01 2.18684685593202e-03
6.38161290322581e-01 3.82232919478531e-01 2.19287086452274e-03
6.55645161290323e-01 3.77997364842520e-01 2.19808535219985e-03
6.73129032258065e-01 3.73808744738037e-01 2.20252807287667e-03
6.90612903225806e-01 3.69666539079662e-01 2.20623461233519e-03
7.08096774193548e-01 3.65570233545086e-01 2.20923856170536e-03
7.25580645161290e-01 3.61519319511247e-01 2.21157167274367e-03
7.43064516129032e-01 3.57513293991175e-01 2.21326399724320e-03
7.60548387096774e-01 3.53551659571540e-01 2.21434401255945e-03
7.78032258064516e-01 3.49633924350892e-01 2.21483873494473e-03
7.95516129032258e-01 3.45759601878577e-01 2.21477382214352e-03
8.13000000000000e-01 3.41928211094344e-01 2.21417366585787e-03
8.30483870967742e-01 3.38139276273122e-01 2.21306147838668e-03
8.47967741935484e-01 3.34392326952222e-01 2.21145936853801e-03
8.65451612903226e-01 3.30686897886850e-01 2.20938841086344e-03
8.82935483870968e-01 3.27022528987626e-01 2.20686871227384e-03
9.00419354838710e-01 3.23398765263460e-01 2.20391947063742e-03
9.17903225806452e-01 3.19815156765054e-01 2.20055902926735e-03
9.35387096774194e-01 3.16271258529034e-01 2.19680492710036e-03
9.52870967741936e-01 3.12766630522703e-01 2.19267394498877e-03
9.70354838709678e-01 3.09300837589401e-01 2.18818214847980e-03
9.87838709677419e-01 3.05873449394476e-01 2.18334492741307e-03
1.00532258064516e+00 3.02484040371849e-01 2.17817703469561e-03
1.02280645161290e+00 2.99132189658081e-01 2.17269261362120e-03
1.04029032258065e+00 2.95817481083087e-01 2.16690523481444e-03
1.05777419354839e+00 2.92539503071566e-01 2.16082792999662e-03
1.07525806451613e+00 2.89297848608930e-01 2.15447321197145e-03
1.09274193548387e+00 2.86092115190759e-01 2.14785310304945e-03
1.11022580645161e+00 2.82921904772764e-01 2.14097915904001e-03
1.12770967741935e+00 2.79786823721497e-01 2.13386249172812e-03
1.14519354838710e+00 2.76686482765402e-01 2.12651378995826e-03
1.16267741935484e+00 2.73620496946480e-01 2.11894333937995e-03
1.18016129032258e+00 2.70588485572489e-01 2.11116104520871e-03
1.19764516129032e+00 2.67590072145051e-01 2.10317643691912e-03
1.21512903225806e+00 2.64624884387730e-01 2.09499869324885e-03
1.23261290322581e+00 2.61692554123997e-01 2.08663666636320e-03
1.25009677419355e+00 2.58792717257122e-01 2.07809888325688e-03
1.26758064516129e+00 2.55925013724967e-01 2.06939356396548e-03
1.28506451612903e+00 2.53089087455250e-01 2.06052863456083e-03
1.30254838709677e+00 2.50284586321378e-01 2.05151173944135e-03
1.32003225806452e+00 2.47511162098722e-01 2.04235025297818e-03
1.33751612903226e+00 2.44768470421361e-01 2.03305129053488e-03
1.35500000000000e+00 2.42056170739328e-01 2.02362172242568e-03
1.37248387096774e+00 2.39373926257101e-01 2.01406817316982e-03
1.38996774193548e+00 2.36721403950150e-01 2.00439703806701e-03
1.40745161290323e+00 2.34098274464498e-01 1.99461449940619e-03
1.42493548387097e+00 2.31504212095768e-01 1.98472652395082e-03
1.44241935483871e+00 2.28938894748747e-01 1.97473887473230e-03
1.45990322580645e+00 2.26402003897376e-01 1.96465711874436e-03
1.47738709677419e+00 2.23893224545209e-01 1.95448663426586e-03
1.49487096774194e+00 2.21412245186321e-01 1.94423261785213e-03
1.51235483870968e+00 2.18958757766616e-01 1.93390009100513e-03
1.52983870967742e+00 2.16532457645573e-01 1.92349390949243e-03
1.54732258064516e+00 2.14133043543172e-01 1.91301876044530e-03
1.56480645161290e+00 2.11760217548764e-01 1.90247917419721e-03
1.58229032258065e+00 2.09413685037254e-01 1.89187953596075e-03
1.59977419354839e+00 2.07093154648315e-01 1.88122408186113e-03
1.61725806451613e+00 2.04798338250210e-01 1.87051690713721e-03
1.63474193548387e+00 2.02528950904014e-01 1.85976197100842e-03
1.65222580645161e+00 2.00284710828220e-01 1.84896310132445e-03
1.66970967741935e+00 1.98065339363786e-01 1.83812399903033e-03
1.68719354838710e+00 1.95870560939518e-01 1.82724824245628e-03
1.70467741935484e+00 1.93700103037850e-01 1.81633929142010e-03
1.72216129032258e+00 1.91553696161009e-01 1.80540049363727e-03
1.73964516129032e+00 1.89431073785569e-01 1.79443508102853e-03
1.75712903225806e+00 1.87331972365705e-01 1.78344617837953e-03
1.77461290322581e+00 1.85256131263709e-01 1.77243681194130e-03
1.79209677419355e+00 1.83203292730024e-01 1.76140990506565e-03
1.80958064516129e+00 1.81173201871239e-01 1.75036828403647e-03
1.82706451612903e+00 1.79165606618428e-01 1.73931468117335e-03
1.84454838709677e+00 1.77180257695872e-01 1.72825173781996e-03
1.86203225806452e+00 1.75216908590101e-01 1.71718200722748e-03
1.87951612903226e+00 1.73275315519284e-01 1.70610795732742e-03
1.89700000000000e+00 1.71355237402959e-01 1.69503197550744e-03
1.91448387096774e+00 1.69456435822357e-01 1.68395636480917e-03
1.93196774193548e+00 1.67578675020336e-01 1.67288335069357e-03
1.94945161290323e+00 1.65721721842245e-01 1.66181508779119e-03
1.96693548387097e+00 1.63885345717044e-01 1.65075365562610e-03
1.98441935483871e+00 1.62069318628669e-01 1.63970106306080e-03
2.00190322580645e+00 1.60273415087717e-01 1.62865925044686e-03
2.01938709677419e+00 1.58497412103452e-01 1.61763009169830e-03
2.03687096774194e+00 1.56741089156126e-01 1.60661539629849e-03
2.05435483870968e+00 1.55004228169587e-01 1.59561691124015e-03
2.07183870967742e+00 1.53286613484207e-01 1.58463632469922e-03
2.08932258064516e+00 1.51588031822116e-01 1.57367526238345e-03
2.10680645161290e+00 1.49908272284926e-01 1.56273529294848e-03
2.12429032258065e+00 1.48247126303081e-01 1.55181793342104e-03
2.14177419354839e+00 1.46604387618202e-01 1.54092464519685e-03
2.15925806451613e+00 1.44979852257479e-01 1.53005683752094e-03
2.17674193548387e+00 1.43373318508340e-01 1.51921586902135e-03
2.19422580645161e+00 1.41784586893403e-01 1.50840304918804e-03
2.21170967741936e+00 1.40213460145716e-01 1.49761963980833e-03
2.22919354838710e+00 1.38659743184265e-01 1.48686685636117e-03
2.24667741935484e+00 1.37123243089740e-01 1.47614586936131e-03
2.26416129032258e+00 1.35603769080592e-01 1.46545780718877e-03
2.28164516129032e+00 1.34101132482875e-01 1.45480375273481e-03
2.29912903225806e+00 1.32615146726404e-01 1.44418474772606e-03
2.31661290322581e+00 1.31145627301804e-01 1.43360179706788e-03
2.33409677419355e+00 1.29692391744265e-01 1.42305586522765e-03
2.35158064516129e+00 1.28255259610886e-01 1.41254787895534e-03
2.36906451612903e+00 1.26834052458262e-01 1.40207872836402e-03
2.38654838709677e+00 1.25428593820342e-01 1.39164926797847e-03
2.40403225806452e+00 1.24038709186508e-01 1.38126031775528e-03
2.42151612903226e+00 1.22664225979913e-01 1.37091266407085e-03
2.43900000000000e+00 1.21304973536046e-01 1.36060706199501e-03
2.45648387096774e+00 1.19960783076178e-01 1.35034423223974e-03
2.47396774193548e+00 1.18631487702671e-01 1.34012486473424e-03
2.49145161290323e+00 1.17316922361818e-01 1.32994962222381e-03
2.50893548387097e+00 1.16016923828890e-01 1.31981913701094e-03
2.52641935483871e+00 1.14731330687864e-01 1.30973401316516e-03
2.54390322580645e+00 1.13459983311379e-01 1.29969482732612e-03
2.56138709677419e+00 1.12202723840918e-01 1.28970212948196e-03
2.57887096774194e+00 1.10959396167212e-01 1.27975644372793e-03
2.59635483870968e+00 1.09729845910851e-01 1.26985826900400e-03
2.61383870967742e+00 1.08513920403117e-01 1.26000808094679e-03
2.63132258064516e+00 1.07311468662544e-01 1.25020632914287e-03
2.64880645161290e+00 1.06122341389754e-01 1.24045344011378e-03
2.66629032258065e+00 1.04946390935200e-01 1.23074982032636e-03
2.68377419354839e+00 1.03783471285454e-01 1.22109585327860e-03
2.70125806451613e+00 1.02633438045073e-01 1.21149190131543e-03
2.71874193548387e+00 1.01496148418672e-01 1.20193830623350e-03
2.73622580645161e+00 1.00371461193193e-01 1.19243538986636e-03
2.75370967741936e+00 9.92592367203738e-02 1.18298345465550e-03
2.77119354838710e+00 9.81593368994067e-02 1.17358278420775e-03
2.78867741935484e+00 9.70716251597914e-02 1.16423364383450e-03
2.80616129032258e+00 9.59959664443768e-02 1.15493628204765e-03
2.82364516129032e+00 9.49322271888981e-02 1.14569092813409e-03
2.84112903225806e+00 9.38802753165812e-02 1.13649779462307e-03
2.85861290322581e+00 9.28399802104444e-02 1.12735707977857e-03
2.87609677419355e+00 9.18112127008841e-02 1.11826896503916e-03
2.89358064516129e+00 9.07938450496361e-02 1.10923361649626e-03
2.91106451612903e+00 8.97877509339127e-02 1.10025118533958e-03
2.92854838709677e+00 8.87928054307211e-02 1.09132180829084e-03
2.94603225806452e+00 8.78088850013518e-02 1.08244560802760e-03
2.96351612903226e+00 8.68358674760382e-02 1.07362269359472e-03
2.98100000000000e+00 8.58736320387874e-02 1.06485316164732e-03
2.99848387096774e+00 8.49220592092670e-02 1.05613709429092e-03
3.01596774193548e+00 8.39810308373947e-02 1.04747456117117e-03
3.03345161290323e+00 8.30504300791517e-02 1.03886562158745e-03
3.05093548387097e+00 8.21301413852777e-02 1.03031032222133e-03
3.06841935483871e+00 8.12200504869235e-02 1.02180869837219e-03
3.08590322580645e+00 8.03200443814621e-02 1.01336077429862e-03
3.10338709677419e+00 7.94300113184574e-02 1.00496656355019e-03
3.12087096774194e+00 7.85498407857911e-02 9.96626069291585e-04
3.13835483870968e+00 7.76794234959390e-02 9.88339284618644e-04
3.15583870967742e+00 7.68186513724014e-02 9.80106193598062e-04
3.17332258064516e+00 7.59674175336525e-02 9.71926769348930e-04
3.19080645161290e+00 7.51256162878370e-02 9.63800975821266e-04
3.20829032258065e+00 7.42931431116027e-02 9.55728769596624e-04
3.22577419354839e+00 7.34698946398296e-02 9.47710097876023e-04
3.24325806451613e+00 7.26557686527954e-02 9.39744899518916e-04
3.26074193548387e+00 7.18506640634832e-02 9.31833105306297e-04
3.27822580645161e+00 7.10544809050283e-02 9.23974638195212e-04
3.29570967741936e+00 7.02671203183090e-02 9.16169413567934e-04
3.31319354838710e+00 6.94884845396698e-02 9.08417339475755e-04
3.33067741935484e+00 6.87184768887829e-02 9.00718316874796e-04
3.34816129032258e+00 6.79570017566433e-02 8.93072240485753e-04
3.36564516129032e+00 6.72039645915045e-02 8.85478997114641e-04
3.38312903225806e+00 6.64592718937790e-02 8.77938467147740e-04
3.40061290322581e+00 6.57228311977251e-02 8.70450526066876e-04
3.41809677419355e+00 6.49945510622221e-02 8.63015042692577e-04
3.43558064516129e+00 6.42743410594160e-02 8.55631880047146e-04
3.45306451612903e+00 6.35621117634906e-02 8.48300895551415e-04
3.47054838709677e+00 6.28577747395652e-02 8.41021941216471e-04
3.48803225806452e+00 6.21612425327141e-02 8.33794863831433e-04
3.50551612903226e+00 6.14724286571071e-02 8.26619505145832e-04
3.52300000000000e+00 6.07912475852705e-02 8.19495702595929e-04
3.54048387096774e+00 6.01176147356032e-02 8.12423287817364e-04
3.55796774193548e+00 5.94514464675207e-02 8.05402087927064e-04
3.57545161290323e+00 5.87926600653704e-02 7.98431926823434e-04
3.59293548387097e+00 5.81411737300788e-02 7.91512623633036e-04
3.61041935483871e+00 5.74969065689948e-02 7.84643993442893e-04
3.62790322580645e+00 5.68597785858454e-02 7.77825847452464e-04
3.64538709677419e+00 5.62297106708025e-02 7.71057993121326e-04
3.66287096774194e+00 5.56066245906617e-02 7.64340234313780e-04
3.68035483870968e+00 5.49904429791271e-02 7.57672371439827e-04
3.69783870967742e+00 5.43810893272055e-02 7.51054202071233e-04
3.71532258064516e+00 5.37784879721163e-02 7.44485519624790e-04
3.73280645161290e+00 5.31825640927104e-02 7.37966114464436e-04
3.75029032258065e+00 5.25932436953219e-02 7.31495775020098e-04
3.76777419354839e+00 5.20104536062147e-02 7.25074286414576e-04
3.78525806451613e+00 5.14341214624973e-02 7.18701431086800e-04
3.80274193548387e+00 5.08641757031374e-02 7.12376988909352e-04
3.82022580645161e+00 5.03005455600757e-02 7.06100737301826e-04
3.83770967741936e+00 4.97431610494405e-02 6.99872451341936e-04
3.85519354838710e+00 4.91919529628574e-02 6.93691903874333e-04
3.87267741935484e+00 4.86468528588559e-02 6.87558865615615e-04
3.89016129032258e+00 4.81077930543711e-02 6.81473105670377e-04
3.90764516129032e+00 4.75747066150035e-02 6.75434390380783e-04
3.92512903225806e+00 4.70475273507539e-02 6.69442484261899e-04
3.94261290322581e+00 4.65261898037213e-02 6.63497150951842e-04
3.96009677419355e+00 4.60106292413495e-02 6.57598152013966e-04
3.97758064516129e+00 4.55007816483893e-02 6.51745247460602e-04
3.99506451612903e+00 4.49965837189491e-02 6.45938195840245e-04
4.01254838709677e+00 4.44979728486356e-02 6.40176754322574e-04
4.03003225806452e+00 4.40048871267804e-02 6.34460678781662e-04
4.04751612903226e+00 4.35172653287523e-02 6.28789723876678e-04
4.06500000000000e+00 4.30350469083555e-02 6.23163643492139e-04
4.08248387096774e+00 4.25581719891672e-02 6.17582189719894e-04
4.09996774193548e+00 4.20865813605673e-02 6.12045113666985e-04
4.11745161290323e+00 4.16202164668910e-02 6.06552166276772e-04
4.13493548387097e+00 4.11590194013332e-02 6.01103097270195e-04
4.15241935483871e+00 4.07029328987594e-02 5.95697655593962e-04
4.16990322580645e+00 4.02519003285945e-02 5.90335589487191e-04
4.18738709677419e+00 3.98058656877913e-02 5.85016646545938e-04
4.20487096774194e+00 3.93647735938776e-02 5.79740573786488e-04
4.22235483870968e+00 3.89285692780791e-02 5.74507117706882e-04
4.23983870967742e+00 3.84971985785188e-02 5.69316024663330e-04
4.25732258064516e+00 3.80706079325100e-02 5.64167039969453e-04
4.27480645161290e+00 3.76487443728782e-02 5.59059908595189e-04
4.29229032258065e+00 3.72315555183848e-02 5.53994375877629e-04
4.30977419354839e+00 3.68189895682321e-02 5.48970186585021e-04
4.32725806451613e+00 3.64109952956315e-02 5.43987085301154e-04
4.34474193548387e+00 3.60075220414427e-02 5.39044816475814e-04
4.36222580645161e+00 3.56085197078830e-02 5.34143124473274e-04
4.37970967741936e+00 3.52139387523081e-02 5.29281753619867e-04
4.39719354838710e+00 3.48237301810599e-02 5.24460448250430e-04
4.41467741935484e+00 3.44378455433831e-02 5.19678952752994e-04
4.43216129032258e+00 3.40562369254092e-02 5.14937011886414e-04
4.44964516129032e+00 3.36788569433767e-02 5.10234369993274e-04
4.46712903225806e+00 3.33056587402620e-02 5.05570771596691e-04
4.48461290322581e+00 3.29365959774240e-02 5.00945962007464e-04
4.50209677419355e+00 3.25716228297042e-02 4.96359686507108e-04
4.51958064516129e+00 3.22106939797364e-02 4.91811690673097e-04
4.53706451612903e+00 3.18537646123198e-02 4.87301720414993e-04
4.55454838709677e+00 3.15007904088546e-02 4.82829522009596e-04
4.57203225806452e+00 3.11517275418394e-02 4.78394842135388e-04
4.58951612903226e+00 3.08065326694289e-02 4.73997427905621e-04
4.60700000000000e+00 3.04651629300525e-02 4.69637027141005e-04
4.62448387096774e+00 3.01275759363772e-02 4.65313387673048e-04
4.64196774193548e+00 2.97937297722087e-02 4.61026257861851e-04
4.65945161290323e+00 2.94635829851034e-02 4.56775387123312e-04
4.67693548387097e+00 2.91370945819556e-02 4.52560525206507e-04
4.69441935483871e+00 2.88142240239078e-02 4.48381422473537e-04
4.71190322580645e+00 2.84949312213166e-02 4.44237829925994e-04
4.72938709677419e+00 2.81791765287755e-02 4.40129499230395e-04
4.74687096774194e+00 2.78669207401922e-02 4.36056182743101e-04
4.76435483870968e+00 2.75581250839202e-02 4.32017633534367e-04
4.78183870967742e+00 2.72527512179452e-02 4.28013605622753e-04
4.79932258064516e+00 2.69507612245073e-02 4.24043853358334e-04
4.81680645161290e+00 2.66521176072588e-02 4.20108131872531e-04
4.83429032258065e+00 2.63567832847263e-02 4.16206197536374e-04
4.85177419354839e+00 2.60647215863392e-02 4.12337807321250e-04
4.86925806451613e+00 2.57758962478766e-02 4.08502719039960e-04
4.88674193548387e+00 2.54902714069646e-02 4.04700691365552e-04
4.90422580645161e+00 2.52078115986226e-02 4.00931483849188e-04
4.92170967741936e+00 2.49284817508613e-02 3.97194856937562e-04
4.93919354838710e+00 2.46522471803266e-02 3.93490571989846e-04
4.95667741935484e+00 2.43790735879937e-02 3.89818391293715e-04
4.97416129032258e+00 2.41089270549082e-02 3.86178078264143e-04
4.99164516129032e+00 2.38417740374503e-02 3.82569396904068e-04
5.00912903225807e+00 2.35775813647560e-02 3.78992112190021e-04
5.02661290322581e+00 2.33163162329984e-02 3.75445990465181e-04
5.04409677419355e+00 2.30579462018524e-02 3.71930798880815e-04
5.06158064516129e+00 2.28024391904670e-02 3.68446305601184e-04
5.07906451612903e+00 2.25497634734814e-02 3.64992279815607e-04
5.09654838709677e+00 2.22998876770867e-02 3.61568491749999e-04
5.11403225806452e+00 2.20527807751294e-02 3.58174712678136e-04
5.13151612903226e+00 2.18084120852598e-02 3.54810714932286e-04
5.14900000000000e+00 2.15667512651216e-02 3.51476272074462e-04
5.16648387096774e+00 2.13277683081318e-02 3.48171158418749e-04
5.18396774193548e+00 2.10914335411257e-02 3.44895149367019e-04
5.20145161290323e+00 2.08577176192894e-02 3.41648021751248e-04
5.21893548387097e+00 2.06265915229816e-02 3.38429553339114e-04
5.23641935483871e+00 2.03980265541298e-02 3.35239523010898e-04
5.25390322580645e+00 2.01719943326673e-02 3.32077710767035e-04
5.27138709677419e+00 1.99484667930092e-02 3.28943897735139e-04
5.28887096774194e+00 1.97274161805679e-02 3.25837866176749e-04
5.30635483870968e+00 1.95088150483067e-02 3.22759399493793e-04
5.32383870967742e+00 1.92926362533317e-02 3.19708282376292e-04
5.34132258064516e+00 1.90788529531297e-02 3.16684300379128e-04
5.35880645161290e+00 1.88674386034215e-02 3.13687240214590e-04
5.37629032258065e+00 1.86583669536696e-02 3.10716890050751e-04
5.39377419354839e+00 1.84516120442204e-02 3.07773039073688e-04
5.41125806451613e+00 1.82471482030820e-02 3.04855477640414e-04
5.42874193548387e+00 1.80449500427354e-02 3.01963997282881e-04
5.44622580645161e+00 1.78449924569830e-02 2.99098390711492e-04
5.46370967741935e+00 1.76472506178313e-02 2.96258451818405e-04
5.48119354838710e+00 1.74516999724077e-02 2.93443975680717e-04
5.49867741935484e+00 1.72583162399120e-02 2.90654758563165e-04
5.51616129032258e+00 1.70670754086018e-02 2.87890598043754e-04
