Energy (eV)          EEDF (eV^-(3/2))     First Anisotropy
2.63333333333333e-02 6.24819475288120e-02 3.49021337767475e-05
7.90000000000000e-02 6.20044741057901e-02 5.76067950673033e-05
1.31666666666667e-01 6.15306494321189e-02 7.59772001467033e-05
1.84333333333333e-01 6.10604456222097e-02 8.98906288530808e-05
2.37000000000000e-01 6.05938350064039e-02 1.01459306775259e-04
2.89666666666667e-01 6.01307901286186e-02 1.11482736126183e-04
3.42333333333333e-01 5.96712837383418e-02 1.20375101075021e-04
3.95000000000000e-01 5.92152887952719e-02 1.28386774821655e-04
4.47666666666667e-01 5.87627784669380e-02 1.35683979683493e-04
5.00333333333333e-01 5.83137261235651e-02 1.42384317612121e-04
5.53000000000000e-01 5.78681053400083e-02 1.48574931390587e-04
6.05666666666667e-01 5.74258898938778e-02 1.54322713664522e-04
6.58333333333333e-01 5.69870537615515e-02 1.59680464055520e-04
7.11000000000000e-01 5.65515711190631e-02 1.64690811093345e-04
7.63666666666667e-01 5.61194163404053e-02 1.69388822367422e-04
8.16333333333333e-01 5.56905639941765e-02 1.73803804090952e-04
8.69000000000000e-01 5.52649888439168e-02 1.77960579685630e-04
9.21666666666667e-01 5.48426658465093e-02 1.81880422028314e-04
9.74333333333333e-01 5.44235701492363e-02 1.85581747571062e-04
1.02700000000000e+00 5.40076770884917e-02 1.89080642406758e-04
1.07966666666667e+00 5.35949621945381e-02 1.92391270507496e-04
1.13233333333333e+00 5.31854011765870e-02 1.95526191675854e-04
1.18500000000000e+00 5.27789699334536e-02 1.98496612913793e-04
1.23766666666667e+00 5.23756445515506e-02 2.01312594156809e-04
1.29033333333333e+00 5.19754012932287e-02 2.03983211894377e-04
1.34300000000000e+00 5.15782166056091e-02 2.06516693084282e-04
1.39566666666667e+00 5.11840671187446e-02 2.08920529324314e-04
1.44833333333333e+00 5.07929296354126e-02 2.11201568882269e-04
1.50100000000000e+00 5.04047811385696e-02 2.13366093829908e-04
1.55366666666667e+00 5.00195987896353e-02 2.15419888449981e-04
1.60633333333333e+00 4.96373599194324e-02 2.17368294511632e-04
1.65900000000000e+00 4.92580420345639e-02 2.19216258459272e-04
1.71166666666667e+00 4.88816228157939e-02 2.20968374989553e-04
1.76433333333333e+00 4.85080801099163e-02 2.22628921996063e-04
1.81700000000000e+00 4.81373919352683e-02 2.24201890839476e-04
1.86966666666667e+00 4.77695364801914e-02 2.25691015545690e-04
1.92233333333333e+00 4.74044920956673e-02 2.27099795817425e-04
1.97500000000000e+00 4.70422373001261e-02 2.28431517202475e-04
2.02766666666667e+00 4.66827507779751e-02 2.29689271510290e-04
2.08033333333333e+00 4.63260113728794e-02 2.30875972472998e-04
2.13300000000000e+00 4.59719980919854e-02 2.31994369602672e-04
2.18566666666667e+00 4.56206901045080e-02 2.33047063001166e-04
2.23833333333333e+00 4.52720667355608e-02 2.34036514308492e-04
2.29100000000000e+00 4.49261074698885e-02 2.34965056465836e-04
2.34366666666667e+00 4.45827919505053e-02 2.35834904807844e-04
2.39633333333333e+00 4.42420999730000e-02 2.36648164886162e-04
2.44900000000000e+00 4.39040114888503e-02 2.37406839490413e-04
2.50166666666667e+00 4.35685066041074e-02 2.38112837193622e-04
2.55433333333333e+00 4.32355655741158e-02 2.38767978043635e-04
2.60700000000000e+00 4.29051688064676e-02 2.39373998697057e-04
2.65966666666667e+00 4.25772968597306e-02 2.39932559169150e-04
2.71233333333333e+00 4.22519304385322e-02 2.40445247034275e-04
2.76500000000000e+00 4.19290503962023e-02 2.40913581230405e-04
2.81766666666667e+00 4.16086377335417e-02 2.41339017510685e-04
2.87033333333333e+00 4.12906735942280e-02 2.41722951578773e-04
2.92300000000000e+00 4.09751392671889e-02 2.42066721937659e-04
2.97566666666667e+00 4.06620161854056e-02 2.42371614380649e-04
3.02833333333333e+00 4.03512859216093e-02 2.42638864351717e-04
3.08100000000000e+00 4.00429301904146e-02 2.42869659095025e-04
3.13366666666667e+00 3.97369308471594e-02 2.43065141420484e-04
3.18633333333333e+00 3.94332698838590e-02 2.43226411490993e-04
3.23900000000000e+00 3.91319294311311e-02 2.43354528452267e-04
3.29166666666667e+00 3.88328917570674e-02 2.43450513640245e-04
3.34433333333333e+00 3.85361392634224e-02 2.43515351938415e-04
3.39700000000000e+00 3.82416544873525e-02 2.43549993016242e-04
3.44966666666667e+00 3.79494201003184e-02 2.43555354099603e-04
3.50233333333333e+00 3.76594189044868e-02 2.43532321001648e-04
3.55500000000000e+00 3.73716338343036e-02 2.43481749062887e-04
3.60766666666667e+00 3.70860479554265e-02 2.43404465574057e-04
3.66033333333333e+00 3.68026444613200e-02 2.43301270556433e-04
3.71300000000000e+00 3.65214066746815e-02 2.43172937472122e-04
3.76566666666667e+00 3.62423180464009e-02 2.43020215366392e-04
3.81833333333333e+00 3.59653621523350e-02 2.42843829453849e-04
3.87100000000000e+00 3.56905226945992e-02 2.42644481650111e-04
3.92366666666667e+00 3.54177835005553e-02 2.42422852484701e-04
3.97633333333333e+00 3.51471285197489e-02 2.42179601535453e-04
4.02900000000000e+00 3.48785418250816e-02 2.41915367820333e-04
4.08166666666667e+00 3.46120076118255e-02 2.41630771520291e-04
4.13433333333333e+00 3.43475101947101e-02 2.41326414294179e-04
4.18700000000000e+00 3.40850340089879e-02 2.41002879560337e-04
4.23966666666667e+00 3.38245636094732e-02 2.40660734060131e-04
4.29233333333333e+00 3.35660836677693e-02 2.40300528078353e-04
4.34500000000000e+00 3.33095789732356e-02 2.39922795637335e-04
4.39766666666667e+00 3.30550344320514e-02 2.39528055925474e-04
4.45033333333333e+00 3.28024350645720e-02 2.39116813442471e-04
4.50300000000000e+00 3.25517660062080e-02 2.38689558123815e-04
4.55566666666667e+00 3.23030125065118e-02 2.38246766653747e-04
4.60833333333333e+00 3.20561599266545e-02 2.37788902550483e-04
4.66100000000000e+00 3.18111937402249e-02 2.37316416234971e-04
4.71366666666667e+00 3.15680995323383e-02 2.36829746244057e-04
4.76633333333333e+00 3.13268629972264e-02 2.36329319267636e-04
4.81900000000000e+00 3.10874699389621e-02 2.35815550172783e-04
4.87166666666667e+00 3.08499062705914e-02 2.35288843129917e-04
4.92433333333333e+00 3.06141580118271e-02 2.34749591611404e-04
4.97700000000000e+00 3.03802112897080e-02 2.34198178379912e-04
5.02966666666667e+00 3.01480523377514e-02 2.33634976538122e-04
5.08233333333333e+00 2.99176674937451e-02 2.33060349496362e-04
5.13500000000000e+00 2.96890432003460e-02 2.32474650932194e-04
5.18766666666667e+00 2.94621660042529e-02 2.31878225772558e-04
5.24033333333333e+00 2.92370225540912e-02 2.31271410136576e-04
5.29300000000000e+00 2.90135996009553e-02 2.30654531272063e-04
5.34566666666667e+00 2.87918839976017e-02 2.30027908477431e-04
5.39833333333333e+00 2.85718626964204e-02 2.29391853024610e-04
5.45100000000000e+00 2.83535227499262e-02 2.28746668077118e-04
5.50366666666667e+00 2.81368513099714e-02 2.28092649557903e-04
5.55633333333333e+00 2.79218356257988e-02 2.27430086056461e-04
5.60900000000000e+00 2.77084630444860e-02 2.26759258732268e-04
5.66166666666667e+00 2.74967210101775e-02 2.26080442133831e-04
5.71433333333333e+00 2.72865970622141e-02 2.25393904093230e-04
5.76700000000000e+00 2.70780788355353e-02 2.24699905617984e-04
5.81966666666667e+00 2.68711540599283e-02 2.23998701665910e-04
5.87233333333333e+00 2.66658105582317e-02 2.23290541029801e-04
5.92500000000000e+00 2.64620362466973e-02 2.22575666220222e-04
5.97766666666667e+00 2.62598191342577e-02 2.21854314200062e-04
6.03033333333333e+00 2.60591473207985e-02 2.21126716261543e-04
6.08300000000000e+00 2.58600089974839e-02 2.20393097902087e-04
6.13566666666667e+00 2.56623924460419e-02 2.19653679521939e-04
6.18833333333333e+00 2.54662860371013e-02 2.18908676295388e-04
6.24100000000000e+00 2.52716782304844e-02 2.18158298041318e-04
6.29366666666667e+00 2.50785575745088e-02 2.17402749886913e-04
6.34633333333333e+00 2.48869127043866e-02 2.16642232134604e-04
6.39900000000000e+00 2.46967323424859e-02 2.15876940128728e-04
6.45166666666667e+00 2.45080052976495e-02 2.15107064887955e-04
6.50433333333333e+00 2.43207204636526e-02 2.14332792969129e-04
6.55700000000000e+00 2.41348668194363e-02 2.13554306331275e-04
6.60966666666667e+00 2.39504334284418e-02 2.12771782939020e-04
6.66233333333333e+00 2.37674094371246e-02 2.11985396624424e-04
6.71500000000000e+00 2.35857840751614e-02 2.11195316949258e-04
6.76766666666667e+00 2.34055466548001e-02 2.10401709781432e-04
6.82033333333333e+00 2.32266865694275e-02 2.09604737155718e-04
6.87300000000000e+00 2.30491932937514e-02 2.08804557135086e-04
6.92566666666667e+00 2.28730563831666e-02 2.08001324362029e-04
6.97833333333333e+00 2.26982654723726e-02 2.07195189918840e-04
7.03100000000000e+00 2.25248102755338e-02 2.06386301188684e-04
7.08366666666667e+00 2.23526805856605e-02 2.05574802383444e-04
7.13633333333333e+00 2.21818662732745e-02 2.04760834404137e-04
7.18900000000000e+00 2.20123572865493e-02 2.03944534702293e-04
7.24166666666667e+00 2.18441436507049e-02 2.03126037785832e-04
7.29433333333333e+00 2.16772154667201e-02 2.02305475080073e-04
7.34700000000000e+00 2.15115629114535e-02 2.01482974789890e-04
7.39966666666667e+00 2.13471762370523e-02 2.00658662384910e-04
7.45233333333333e+00 2.11840457697090e-02 1.99832660461554e-04
7.50500000000000e+00 2.10221619097644e-02 1.99005088606347e-04
7.55766666666667e+00 2.08615151311307e-02 1.98176063861677e-04
7.61033333333333e+00 2.07020959800898e-02 1.97345700589178e-04
7.66300000000000e+00 2.05438950753806e-02 1.96514110334499e-04
7.71566666666667e+00 2.03869031076351e-02 1.95681402274718e-04
7.76833333333333e+00 2.02311108382174e-02 1.94847683083363e-04
7.82100000000000e+00 2.00765090992954e-02 1.94013056796864e-04
7.87366666666667e+00 1.99230887932911e-02 1.93177625244643e-04
7.92633333333333e+00 1.97708408917569e-02 1.92341487916034e-04
7.97900000000000e+00 1.96197564354346e-02 1.91504741828614e-04
8.03166666666667e+00 1.94698265337175e-02 1.90667481941859e-04
8.08433333333333e+00 1.93210423635645e-02 1.89829801026121e-04
8.13700000000000e+00 1.91733951695460e-02 1.88991789533046e-04
8.18966666666667e+00 1.90268762633181e-02 1.88153535993692e-04
8.24233333333333e+00 1.88814770225730e-02 1.87315126889649e-04
8.29500000000000e+00 1.87371888910722e-02 1.86476646525660e-04
8.34766666666667e+00 1.85940033781337e-02 1.85638177413031e-04
8.40033333333333e+00 1.84519120576154e-02 1.84799800142998e-04
8.45300000000000e+00 1.83109065679385e-02 1.83961593261629e-04
8.50566666666667e+00 1.81709786115860e-02 1.83123633639245e-04
8.55833333333333e+00 1.80321199541187e-02 1.82285996346192e-04
8.61100000000000e+00 1.78943224241888e-02 1.81448754530067e-04
8.66366666666667e+00 1.77575779130496e-02 1.80611979771820e-04
8.71633333333333e+00 1.76218783736036e-02 1.79775741963941e-04
8.76900000000000e+00 1.74872158204057e-02 1.78940109190151e-04
8.82166666666667e+00 1.73535823291856e-02 1.78105148068783e-04
8.87433333333333e+00 1.72209700359247e-02 1.77270923633445e-04
8.92700000000000e+00 1.70893711368516e-02 1.76437499215173e-04
8.97966666666667e+00 1.69587778879752e-02 1.75604936773714e-04
9.03233333333333e+00 1.68291826041908e-02 1.74773296780691e-04
9.08500000000000e+00 1.67005776592674e-02 1.73942638104261e-04
9.13766666666667e+00 1.65729554853920e-02 1.73113018328831e-04
9.19033333333333e+00 1.64463085723029e-02 1.72284493640718e-04
9.24300000000000e+00 1.63206294672706e-02 1.71457118715336e-04
9.29566666666667e+00 1.61959107746518e-02 1.70630947025854e-04
9.34833333333333e+00 1.60721451550504e-02 1.69806030731413e-04
9.40100000000000e+00 1.59493253252908e-02 1.68982420566803e-04
9.45366666666667e+00 1.58274440579830e-02 1.68160166140539e-04
9.50633333333333e+00 1.57064941807084e-02 1.67339315825601e-04
9.55900000000000e+00 1.55864685759884e-02 1.66519916651635e-04
9.61166666666667e+00 1.54673601808581e-02 1.65702014592920e-04
9.66433333333333e+00 1.53491619860781e-02 1.64885654461601e-04
9.71700000000000e+00 1.52318670360964e-02 1.64070879802369e-04
9.76966666666667e+00 1.51154684286329e-02 1.63257733170764e-04
9.82233333333333e+00 1.49999593139147e-02 1.62446256028895e-04
9.87500000000000e+00 1.48853328946327e-02 1.61636488642579e-04
9.92766666666667e+00 1.47715824255360e-02 1.60828470350366e-04
9.98033333333333e+00 1.46587012126899e-02 1.60022239579547e-04
1.00330000000000e+01 1.45466826130937e-02 1.59217833157816e-04
1.00856666666667e+01 1.44355200359526e-02 1.58415287627141e-04
1.01383333333333e+01 1.43252069386296e-02 1.57614638684715e-04
1.01910000000000e+01 1.42157368295915e-02 1.56815919907503e-04
1.02436666666667e+01 1.41071032679715e-02 1.56019165098155e-04
1.02963333333333e+01 1.39992998599980e-02 1.55224407148942e-04
1.03490000000000e+01 1.38923202618241e-02 1.54431676922824e-04
1.04016666666667e+01 1.37861581791003e-02 1.53641005527698e-04
1.04543333333333e+01 1.36808073635333e-02 1.52852423214115e-04
1.05070000000000e+01 1.35762616156023e-02 1.52065958289655e-04
1.05596666666667e+01 1.34725147841429e-02 1.51281639323995e-04
1.06123333333333e+01 1.33695607630292e-02 1.50499494079322e-04
1.06650000000000e+01 1.32673934937831e-02 1.49719548456874e-04
1.07176666666667e+01 1.31660069651686e-02 1.48941828635208e-04
1.07703333333333e+01 1.30653952099921e-02 1.48166360032254e-04
1.08230000000000e+01 1.29655523076092e-02 1.47393166283015e-04
1.08756666666667e+01 1.28664723835297e-02 1.46622271313268e-04
1.09283333333333e+01 1.27681496063306e-02 1.45853698332232e-04
1.09810000000000e+01 1.26705781900658e-02 1.45087468840422e-04
1.10336666666667e+01 1.25737523938803e-02 1.44323604641014e-04
1.10863333333333e+01 1.24776665190322e-02 1.43562126862097e-04
1.11390000000000e+01 1.23823149112092e-02 1.42803054993705e-04
1.11916666666667e+01 1.22876919601517e-02 1.42046408838945e-04
1.12443333333333e+01 1.21937920967800e-02 1.41292207564910e-04
1.12970000000000e+01 1.21006097954205e-02 1.40540468767938e-04
1.13496666666667e+01 1.20081395734390e-02 1.39791210366508e-04
1.14023333333333e+01 1.19163759884671e-02 1.39044449679905e-04
1.14550000000000e+01 1.18253136405435e-02 1.38300202520793e-04
1.15076666666667e+01 1.17349471717561e-02 1.37558485031815e-04
1.15603333333333e+01 1.16452712635648e-02 1.36819312791126e-04
1.16130000000000e+01 1.15562806388605e-02 1.36082699931436e-04
1.16656666666667e+01 1.14679700616163e-02 1.35348660922154e-04
1.17183333333333e+01 1.13803343343024e-02 1.34617209700934e-04
1.17710000000000e+01 1.12933682998673e-02 1.33888358818325e-04
1.18236666666667e+01 1.12070668413966e-02 1.33162121167283e-04
1.18763333333333e+01 1.11214248796175e-02 1.32438509139894e-04
1.19290000000000e+01 1.10364373748042e-02 1.31717533796839e-04
1.19816666666667e+01 1.09520993264460e-02 1.30999206545967e-04
1.20343333333333e+01 1.08684057708359e-02 1.30283538323412e-04
1.20870000000000e+01 1.07853517829049e-02 1.29570538787092e-04
1.21396666666667e+01 1.07029324758977e-02 1.28860217945990e-04
1.21923333333333e+01 1.06211429990438e-02 1.28152585364925e-04
1.22450000000000e+01 1.05399785393223e-02 1.27447649381289e-04
1.22976666666667e+01 1.04594343211458e-02 1.26745418686672e-04
1.23503333333333e+01 1.03795056041104e-02 1.26045901554504e-04
1.24030000000000e+01 1.03001876846943e-02 1.25349105079358e-04
1.24556666666667e+01 1.02214758959495e-02 1.24655036712409e-04
1.25083333333333e+01 1.01433656053270e-02 1.23963703511247e-04
1.25610000000000e+01 1.00658522163130e-02 1.23275111401040e-04
1.26136666666667e+01 9.98893116812757e-03 1.22589266665297e-04
1.26663333333333e+01 9.91259793362282e-03 1.21906175217191e-04
1.27190000000000e+01 9.83684802085827e-03 1.21225841881875e-04
1.27716666666667e+01 9.76167697280693e-03 1.20548271844005e-04
1.28243333333333e+01 9.68708036532379e-03 1.19873469939863e-04
1.28770000000000e+01 9.61305380866261e-03 1.19201439960194e-04
1.29296666666667e+01 9.53959294718934e-03 1.18532186055870e-04
1.29823333333333e+01 9.46669345741799e-03 1.17865712050164e-04
1.30350000000000e+01 9.39435104947162e-03 1.17202020761480e-04
1.30876666666667e+01 9.32256146680270e-03 1.16541115368453e-04
1.31403333333333e+01 9.25132048429388e-03 1.15882998741787e-04
1.31930000000000e+01 9.18062390966545e-03 1.15227672786260e-04
1.32456666666667e+01 9.11046758320242e-03 1.14575139766522e-04
1.32983333333333e+01 9.04084737591784e-03 1.13925401657913e-04
1.33510000000000e+01 8.97175919090881e-03 1.13278459507131e-04
1.34036666666667e+01 8.90319896309020e-03 1.12634314719976e-04
1.34563333333333e+01 8.83516265741812e-03 1.11992968430569e-04
1.35090000000000e+01 8.76764627019665e-03 1.11354420880107e-04
1.35616666666667e+01 8.70064582881788e-03 1.10718672667757e-04
1.36143333333333e+01 8.63415739004346e-03 1.10085724137682e-04
1.36670000000000e+01 8.56817704126389e-03 1.09455574775361e-04
1.37196666666667e+01 8.50270090024488e-03 1.08828224422750e-04
1.37723333333333e+01 8.43772511346470e-03 1.08203672682601e-04
1.38250000000000e+01 8.37324585732803e-03 1.07581918331803e-04
1.38776666666667e+01 8.30925933791837e-03 1.06962960501919e-04
1.39303333333333e+01 8.24576178938925e-03 1.06346798100270e-04
1.39830000000000e+01 8.18274947513442e-03 1.05733429239783e-04
1.40356666666667e+01 8.12021868754613e-03 1.05122852385979e-04
1.40883333333333e+01 8.05816574645829e-03 1.04515065794314e-04
1.41410000000000e+01 7.99658700027463e-03 1.03910066956029e-04
1.41936666666667e+01 7.93547882573280e-03 1.03307853712614e-04
1.42463333333333e+01 7.87483762639759e-03 1.02708423708922e-04
1.42990000000000e+01 7.81465983374869e-03 1.02111773854545e-04
1.43516666666667e+01 7.75494190695048e-03 1.01517901406751e-04
1.44043333333333e+01 7.69568033139345e-03 1.00926803438898e-04
1.44570000000000e+01 7.63687161974324e-03 1.00338476316868e-04
1.45096666666667e+01 7.57851231171590e-03 9.97529167514295e-05
1.45623333333333e+01 7.52059897266585e-03 9.91701212814966e-05
1.46150000000000e+01 7.46312819459765e-03 9.85900857651823e-05
1.46676666666667e+01 7.40609659594661e-03 9.80128064025133e-05
1.47203333333333e+01 7.34950082021166e-03 9.74382792330762e-05
1.47730000000000e+01 7.29333753693127e-03 9.68664996412673e-05
1.48256666666667e+01 7.23760344146927e-03 9.62974633502478e-05
1.48783333333333e+01 7.18229525369110e-03 9.57311659335703e-05
1.49310000000000e+01 7.12740971890518e-03 9.51676023341811e-05
1.49836666666667e+01 7.07294360765392e-03 9.46067678304937e-05
1.50363333333333e+01 7.01889371443165e-03 9.40486575615739e-05
1.50890000000000e+01 6.96525685859297e-03 9.34932660594909e-05
1.51416666666667e+01 6.91202988414863e-03 9.29405881883562e-05
1.51943333333333e+01 6.85920965852389e-03 9.23906186826523e-05
1.52470000000000e+01 6.80679307343489e-03 9.18433516925507e-05
1.52996666666667e+01 6.75477704468947e-03 9.12987816967108e-05
1.53523333333333e+01 6.70315851098441e-03 9.07569030533794e-05
1.54050000000000e+01 6.65193443475115e-03 9.02177095582930e-05
1.54576666666667e+01 6.60110180196132e-03 8.96811953320106e-05
1.55103333333333e+01 6.55065762096160e-03 8.91473543834103e-05
1.55630000000000e+01 6.50059892328991e-03 8.86161801798049e-05
1.56156666666667e+01 6.45092276348557e-03 8.80876665095839e-05
1.56683333333333e+01 6.40162621796043e-03 8.75618070577326e-05
1.57210000000000e+01 6.35270638578669e-03 8.70385949877973e-05
1.57736666666667e+01 6.30416038851151e-03 8.65180237805685e-05
1.58263333333333e+01 6.25598536906326e-03 8.60000868212810e-05
1.58790000000000e+01 6.20817849251198e-03 8.54847769930748e-05
1.59316666666667e+01 6.16073694588834e-03 8.49720874924270e-05
1.59843333333333e+01 6.11365793712381e-03 8.44620114277004e-05
1.60370000000000e+01 6.06693869578476e-03 8.39545414237691e-05
1.60896666666667e+01 6.02057647289574e-03 8.34496704148795e-05
1.61423333333333e+01 5.97456853991231e-03 8.29473912542096e-05
1.61950000000000e+01 5.92891218942986e-03 8.24476963293373e-05
1.62476666666667e+01 5.88360473501101e-03 8.19505783331932e-05
1.63003333333333e+01 5.83864351019010e-03 8.14560298843202e-05
1.63530000000000e+01 5.79402586915758e-03 8.09640431528677e-05
1.64056666666667e+01 5.74974918659148e-03 8.04746106102729e-05
1.64583333333333e+01 5.70581085669250e-03 7.99877246599148e-05
1.65110000000000e+01 5.66220829384479e-03 7.95033772733297e-05
1.65636666666667e+01 5.61893893245153e-03 7.90215607192486e-05
1.66163333333333e+01 5.57600022599941e-03 7.85422672043333e-05
