Energy (eV)          EEDF (eV^-(3/2))     First Anisotropy
6.01923076923077e-02 4.10227166952110e-02 3.00698263669502e-05
1.80576923076923e-01 4.04819027486914e-02 4.94929154815347e-05
3.00961538461538e-01 3.99482185018465e-02 6.49113494264055e-05
4.21346153846154e-01 3.94215699647089e-02 7.63694740202732e-05
5.41730769230769e-01 3.89018643817417e-02 8.57166719199174e-05
6.62115384615385e-01 3.83890102233615e-02 9.36589010951279e-05
7.82500000000000e-01 3.78829171650541e-02 1.00564831964129e-04
9.02884615384615e-01 3.73834960726870e-02 1.06659068292463e-04
1.02326923076923e+00 3.68906589884982e-02 1.12091865949693e-04
1.14365384615385e+00 3.64043191126453e-02 1.16970329194886e-04
1.26403846153846e+00 3.59243907935571e-02 1.21374407033376e-04
1.38442307692308e+00 3.54507895020206e-02 1.25365911674391e-04
1.50480769230769e+00 3.49834318304535e-02 1.28993975186632e-04
1.62519230769231e+00 3.45222354643897e-02 1.32298536031684e-04
1.74557692307692e+00 3.40671191777032e-02 1.35312665002604e-04
1.86596153846154e+00 3.36180028177975e-02 1.38064176023466e-04
1.98634615384615e+00 3.31748072833737e-02 1.40576772529192e-04
2.10673076923077e+00 3.27374545208662e-02 1.42870886202390e-04
2.22711538461538e+00 3.23058675012010e-02 1.44964303682390e-04
2.34750000000000e+00 3.18799702149663e-02 1.46872643656861e-04
2.46788461538462e+00 3.14596876509478e-02 1.48609726455474e-04
2.58826923076923e+00 3.10449457904138e-02 1.50187864375620e-04
2.70865384615385e+00 3.06356715870964e-02 1.51618093018084e-04
2.82903846153846e+00 3.02317929608502e-02 1.52910357592287e-04
2.94942307692308e+00 2.98332387788447e-02 1.54073664788010e-04
3.06980769230769e+00 2.94399388487777e-02 1.55116207588850e-04
3.19019230769231e+00 2.90518239011076e-02 1.56045469070936e-04
3.31057692307692e+00 2.86688255807874e-02 1.56868308585533e-04
3.43096153846154e+00 2.82908764350791e-02 1.57591035589268e-04
3.55134615384615e+00 2.79179098981632e-02 1.58219471209454e-04
3.67173076923077e+00 2.75498602839851e-02 1.58759001325176e-04
3.79211538461538e+00 2.71866627703520e-02 1.59214622155321e-04
3.91250000000000e+00 2.68282533916328e-02 1.59590979572882e-04
4.03288461538462e+00 2.64745690235779e-02 1.59892403330405e-04
4.15326923076923e+00 2.61255473759289e-02 1.60122936860381e-04
4.27365384615385e+00 2.57811269778944e-02 1.60286363473736e-04
4.39403846153846e+00 2.54412471707154e-02 1.60386229362468e-04
4.51442307692308e+00 2.51058480937415e-02 1.60425863999677e-04
4.63480769230769e+00 2.47748706769875e-02 1.60408398182445e-04
4.75519230769231e+00 2.44482566277627e-02 1.60336780240769e-04
4.87557692307692e+00 2.41259484225850e-02 1.60213790068866e-04
4.99596153846154e+00 2.38078892969802e-02 1.60042052531898e-04
5.11634615384615e+00 2.34940232334947e-02 1.59824048736062e-04
5.23673076923077e+00 2.31842949544373e-02 1.59562126548950e-04
5.35711538461538e+00 2.28786499096396e-02 1.59258510083848e-04
5.47750000000000e+00 2.25770342692551e-02 1.58915308249679e-04
5.59788461538461e+00 2.22793949119642e-02 1.58534522569939e-04
5.71826923076923e+00 2.19856794178456e-02 1.58118054260647e-04
5.83865384615385e+00 2.16958360569995e-02 1.57667710738077e-04
5.95903846153846e+00 2.14098137825031e-02 1.57185211531504e-04
6.07942307692308e+00 2.11275622194285e-02 1.56672193746894e-04
6.19980769230769e+00 2.08490316578913e-02 1.56130217047266e-04
6.32019230769231e+00 2.05741730424425e-02 1.55560768335799e-04
6.44057692307692e+00 2.03029379647970e-02 1.54965265745179e-04
6.56096153846154e+00 2.00352786552679e-02 1.54345062932409e-04
6.68134615384615e+00 1.97711479730908e-02 1.53701452470313e-04
6.80173076923077e+00 1.95104993997818e-02 1.53035669259527e-04
6.92211538461538e+00 1.92532870293395e-02 1.52348893670700e-04
7.04250000000000e+00 1.89994655617122e-02 1.51642254432446e-04
7.16288461538462e+00 1.87489902933184e-02 1.50916831352933e-04
7.28326923076923e+00 1.85018171106259e-02 1.50173657825807e-04
7.40365384615385e+00 1.82579024809766e-02 1.49413723200495e-04
7.52403846153846e+00 1.80172034462811e-02 1.48637974968183e-04
7.64442307692308e+00 1.77796776141337e-02 1.47847320836834e-04
7.76480769230769e+00 1.75452831516249e-02 1.47042630647389e-04
7.88519230769231e+00 1.73139787767338e-02 1.46224738243623e-04
8.00557692307692e+00 1.70857237519758e-02 1.45394442980343e-04
8.12596153846154e+00 1.68604778772018e-02 1.44552511602408e-04
8.24634615384615e+00 1.66382014816667e-02 1.43699679569449e-04
8.36673076923077e+00 1.64188554181651e-02 1.42836652509535e-04
8.48711538461538e+00 1.62024010550468e-02 1.41964107568921e-04
8.60750000000000e+00 1.59888002704716e-02 1.41082694661942e-04
8.72788461538462e+00 1.57780154446671e-02 1.40193037675265e-04
8.84826923076923e+00 1.55700094543015e-02 1.39295735583648e-04
8.96865384615385e+00 1.53647456649757e-02 1.38391363528159e-04
9.08903846153846e+00 1.51621879257132e-02 1.37480473815534e-04
9.20942307692308e+00 1.49623005616777e-02 1.36563596886653e-04
9.32980769230769e+00 1.47650483687805e-02 1.35641242214463e-04
9.45019230769231e+00 1.45703966066138e-02 1.34713899210907e-04
9.57057692307692e+00 1.43783109929751e-02 1.33782037898162e-04
9.69096153846154e+00 1.41887576978120e-02 1.32846109902141e-04
9.81134615384615e+00 1.40017033366652e-02 1.31906549054283e-04
9.93173076923077e+00 1.38171149655791e-02 1.30963772124233e-04
1.00521153846154e+01 1.36349600745308e-02 1.30018179531905e-04
1.01725000000000e+01 1.34552065822760e-02 1.29070155821886e-04
1.02928846153846e+01 1.32778228308512e-02 1.28120070502394e-04
1.04132692307692e+01 1.31027775792846e-02 1.27168278590564e-04
1.05336538461538e+01 1.29300399984664e-02 1.26215121327776e-04
1.06540384615385e+01 1.27595796641227e-02 1.25260925900582e-04
1.07744230769231e+01 1.25913665563008e-02 1.24306006537934e-04
1.08948076923077e+01 1.24253710491726e-02 1.23350665597516e-04
1.10151923076923e+01 1.22615639074764e-02 1.22395193119002e-04
1.11355769230769e+01 1.20999162813637e-02 1.21439867573918e-04
1.12559615384615e+01 1.19403997013261e-02 1.20484956290684e-04
1.13763461538462e+01 1.17829860731773e-02 1.19530716116330e-04
1.14967307692308e+01 1.16276476717616e-02 1.18577393037720e-04
1.16171153846154e+01 1.14743571401532e-02 1.17625223072521e-04
1.17375000000000e+01 1.13230874807017e-02 1.16674433155055e-04
1.18578846153846e+01 1.11738120516734e-02 1.15725240682182e-04
1.19782692307692e+01 1.10265045625603e-02 1.14777854112151e-04
1.20986538461538e+01 1.08811390694517e-02 1.13832473509413e-04
1.22190384615385e+01 1.07376899692949e-02 1.12889290160803e-04
1.23394230769231e+01 1.05961319989350e-02 1.11948487331324e-04
1.24598076923077e+01 1.04564402270707e-02 1.11010241017961e-04
1.25801923076923e+01 1.03185900510771e-02 1.10074719505329e-04
1.27005769230769e+01 1.01825571926707e-02 1.09142083866072e-04
1.28209615384615e+01 1.00483176936382e-02 1.08212488211203e-04
1.29413461538462e+01 9.91584791161432e-03 1.07286080131857e-04
1.30617307692308e+01 9.78512451492367e-03 1.06363000324468e-04
1.31821153846154e+01 9.65612448149207e-03 1.05443383221813e-04
1.33025000000000e+01 9.52882509173274e-03 1.04527357624233e-04
1.34228846153846e+01 9.40320392557688e-03 1.03615046277108e-04
1.35432692307692e+01 9.27923885852608e-03 1.02706566282402e-04
1.36636538461538e+01 9.15690805775661e-03 1.01802029471439e-04
1.37840384615385e+01 9.03618997740227e-03 1.00901542045298e-04
1.39044230769231e+01 8.91706335740476e-03 1.00005205120352e-04
1.40248076923077e+01 8.79950721709114e-03 9.91131152752098e-05
1.41451923076923e+01 8.68350085238275e-03 9.82253641513139e-05
1.42655769230769e+01 8.56902383214728e-03 9.73420388039319e-05
1.43859615384615e+01 8.45605599460355e-03 9.64632218573681e-05
1.45063461538462e+01 8.34457744376903e-03 9.55889918144108e-05
1.46267307692308e+01 8.23456854520859e-03 9.47194227187245e-05
1.47471153846154e+01 8.12600992484491e-03 9.38545846185695e-05
1.48675000000000e+01 8.01888246324995e-03 9.29945440326650e-05
1.49878846153846e+01 7.91316729305194e-03 9.21393635800983e-05
1.51082692307692e+01 7.80884579561319e-03 9.12891022747095e-05
1.52286538461538e+01 7.70589959775155e-03 9.04438157905854e-05
1.53490384615385e+01 7.60431056784591e-03 8.96035561451535e-05
1.54694230769231e+01 7.50406081464028e-03 8.87683721050916e-05
1.55898076923077e+01 7.40513268207104e-03 8.79383095948195e-05
1.57101923076923e+01 7.30750874683955e-03 8.71134113518151e-05
1.58305769230769e+01 7.21117181534245e-03 8.62937171811933e-05
1.59509615384615e+01 7.11610492064575e-03 8.54792640553096e-05
1.60713461538462e+01 7.02229131949542e-03 8.46700863377233e-05
1.61917307692308e+01 6.92971448880080e-03 8.38662154908161e-05
1.63121153846154e+01 6.83835812444797e-03 8.30676804249759e-05
1.64325000000000e+01 6.74820613668418e-03 8.22745078505523e-05
1.65528846153846e+01 6.65924264787205e-03 8.14867219622568e-05
1.66732692307692e+01 6.57145198969371e-03 8.07043446555731e-05
1.67936538461538e+01 6.48481870039166e-03 7.99273957211381e-05
1.69140384615385e+01 6.39932752154292e-03 7.91558925731052e-05
1.70344230769231e+01 6.31496339689617e-03 7.83898505574213e-05
1.71548076923077e+01 6.23171146817747e-03 7.76292832629677e-05
1.72751923076923e+01 6.14955707299376e-03 7.68742022297372e-05
1.73955769230769e+01 6.06848574224978e-03 7.61246171378136e-05
1.75159615384615e+01 5.98848319760127e-03 7.53805358727455e-05
1.76363461538462e+01 5.90953534893949e-03 7.46419646913809e-05
1.77567307692308e+01 5.83162829147403e-03 7.39089079734233e-05
1.78771153846154e+01 5.75474830460579e-03 7.31813684888527e-05
1.79975000000000e+01 5.67888184817315e-03 7.24593476681743e-05
1.81178846153846e+01 5.60401556051799e-03 7.17428453368224e-05
1.82382692307692e+01 5.53013625613277e-03 7.10318598773526e-05
1.83586538461538e+01 5.45723092333859e-03 7.03263883745526e-05
1.84790384615385e+01 5.38528672160645e-03 6.96264263858659e-05
1.85994230769231e+01 5.31429098046942e-03 6.89319681789264e-05
1.87198076923077e+01 5.24423119610383e-03 6.82430069718527e-05
1.88401923076923e+01 5.17509502952751e-03 6.75595346885910e-05
1.89605769230769e+01 5.10687030442607e-03 6.68815421015464e-05
1.90809615384615e+01 5.03954500500951e-03 6.62090188750600e-05
1.92013461538462e+01 4.97310727389542e-03 6.55419536902226e-05
1.93217307692308e+01 4.90754540968382e-03 6.48803340358627e-05
1.94421153846154e+01 4.84284786591823e-03 6.42241464158722e-05
1.95625000000000e+01 4.77900324801846e-03 6.35733765591450e-05
1.96828846153846e+01 4.71600031162208e-03 6.29280091975954e-05
1.98032692307692e+01 4.65382796060432e-03 6.22880281894452e-05
1.99236538461538e+01 4.59247524512401e-03 6.16534166290922e-05
2.00440384615385e+01 4.53193135939486e-03 6.10241566545353e-05
2.01644230769231e+01 4.47218564069247e-03 6.04002296323608e-05
2.02848076923077e+01 4.41322756655592e-03 5.97816163452128e-05
2.04051923076923e+01 4.35504675324485e-03 5.91682967877227e-05
2.05255769230769e+01 4.29763295391037e-03 5.85602502754853e-05
2.06459615384615e+01 4.24097605679109e-03 5.79574554741342e-05
2.07663461538462e+01 4.18506608343185e-03 5.73598904944200e-05
2.08867307692308e+01 4.12989318666415e-03 5.67675327173341e-05
2.10071153846154e+01 4.07544764966710e-03 5.61803589562996e-05
2.11275000000000e+01 4.02171988345190e-03 5.55983456216868e-05
2.12478846153846e+01 3.96870042544391e-03 5.50214685359733e-05
2.13682692307692e+01 3.91637993781635e-03 5.44497030284313e-05
2.14886538461538e+01 3.86474920584581e-03 5.38830240191963e-05
2.16090384615385e+01 3.81379913605507e-03 5.33214058584096e-05
2.17294230769231e+01 3.76352075532174e-03 5.27648224714217e-05
2.18498076923077e+01 3.71390520857976e-03 5.22132475061843e-05
2.19701923076923e+01 3.66494375750191e-03 5.16666541635021e-05
2.20905769230769e+01 3.61662777896055e-03 5.11250152810619e-05
2.22109615384615e+01 3.56894876350947e-03 5.05883033528377e-05
2.23313461538462e+01 3.52189831388491e-03 5.00564906021787e-05
2.24517307692308e+01 3.47546814332141e-03 4.95295488359338e-05
2.25721153846154e+01 3.42965007471475e-03 4.90074495722177e-05
2.26925000000000e+01 3.38443603855246e-03 4.84901641701992e-05
2.28128846153846e+01 3.33981807170462e-03 4.79776636764705e-05
2.29332692307692e+01 3.29578831602154e-03 4.74699188983564e-05
2.30536538461538e+01 3.25233901694985e-03 4.69669004687634e-05
2.31740384615385e+01 3.20946252198296e-03 4.64685787121099e-05
2.32944230769231e+01 3.16715127987043e-03 4.59749237590116e-05
2.34148076923077e+01 3.12539783872474e-03 4.54859056628684e-05
2.35351923076923e+01 3.08419484489872e-03 4.50014942588489e-05
2.36555769230769e+01 3.04353504169021e-03 4.45216592291389e-05
2.37759615384615e+01 3.00341126806443e-03 4.40463701157696e-05
2.38963461538462e+01 2.96381645739255e-03 4.35755963771926e-05
2.40167307692308e+01 2.92474363604570e-03 4.31093072667971e-05
2.41371153846154e+01 2.88618592265625e-03 4.26474719340995e-05
2.42575000000000e+01 2.84813652641105e-03 4.21900595276788e-05
2.43778846153846e+01 2.81058874602203e-03 4.17370390676032e-05
2.44982692307692e+01 2.77353596854614e-03 4.12883795025324e-05
2.46186538461538e+01 2.73697166822070e-03 4.08440497600515e-05
2.47390384615385e+01 2.70088940516923e-03 4.04040186350665e-05
2.48594230769231e+01 2.66528282470630e-03 3.99682548808309e-05
2.49798076923077e+01 2.63014565577449e-03 3.95367273015967e-05
2.51001923076923e+01 2.59547170998952e-03 3.91094046355389e-05
2.52205769230769e+01 2.56125488055017e-03 3.86862556057056e-05
2.53409615384615e+01 2.52748914116307e-03 3.82672489283302e-05
2.54613461538462e+01 2.49416854498118e-03 3.78523533568555e-05
2.55817307692308e+01 2.46128722342892e-03 3.74415375808469e-05
2.57021153846154e+01 2.42883938555523e-03 3.70347703064901e-05
2.58225000000000e+01 2.39681931662283e-03 3.66320203385688e-05
2.59428846153846e+01 2.36522137723339e-03 3.62332564745635e-05
2.60632692307692e+01 2.33404000233434e-03 3.58384475493469e-05
2.61836538461538e+01 2.30326970023887e-03 3.54475624744330e-05
2.63040384615385e+01 2.27290505154403e-03 3.50605701451321e-05
2.64244230769231e+01 2.24294070852370e-03 3.46774395130819e-05
2.65448076923077e+01 2.21337139383559e-03 3.42981396601611e-05
2.66651923076923e+01 2.18419189971009e-03 3.39226397013034e-05
2.67855769230769e+01 2.15539708703301e-03 3.35509088244516e-05
2.69059615384615e+01 2.12698188444063e-03 3.31829162957566e-05
2.70263461538462e+01 2.09894128742647e-03 3.28186314939842e-05
2.71467307692308e+01 2.07127035735878e-03 3.24580238264275e-05
2.72671153846154e+01 2.04396422091727e-03 3.21010627931660e-05
2.73875000000000e+01 2.01701806892499e-03 3.17477180525820e-05
2.75078846153846e+01 1.99042715560568e-03 3.13979593334425e-05
2.76282692307692e+01 1.96418679774799e-03 3.10517564700195e-05
2.77486538461538e+01 1.93829237388073e-03 3.07090794328132e-05
2.78690384615385e+01 1.91273932336786e-03 3.03698982513201e-05
2.79894230769231e+01 1.88752314588117e-03 3.00341830720205e-05
2.81098076923077e+01 1.86263940032885e-03 2.97019042175262e-05
2.82301923076923e+01 1.83808370416724e-03 2.93730321058908e-05
2.83505769230769e+01 1.81385173262895e-03 2.90475372820546e-05
2.84709615384615e+01 1.78993921796125e-03 2.87253904208974e-05
2.85913461538462e+01 1.76634194867444e-03 2.84065623542170e-05
2.87117307692308e+01 1.74305576871962e-03 2.80910240007827e-05
2.88321153846154e+01 1.72007657700062e-03 2.77787464177855e-05
2.89525000000000e+01 1.69740032640524e-03 2.74697008533463e-05
2.90728846153846e+01 1.67502302317545e-03 2.71638586735090e-05
2.91932692307692e+01 1.65294072620410e-03 2.68611913899215e-05
2.93136538461538e+01 1.63114954634076e-03 2.65616706839568e-05
2.94340384615385e+01 1.60964564563430e-03 2.62652683424633e-05
2.95544230769231e+01 1.58842523687669e-03 2.59719563042467e-05
2.96748076923077e+01 1.56748458271389e-03 2.56817067075323e-05
2.97951923076923e+01 1.54681999506245e-03 2.53944918229486e-05
2.99155769230769e+01 1.52642783445992e-03 2.51102840783386e-05
3.00359615384615e+01 1.50630450942396e-03 2.48290560603497e-05
3.01563461538462e+01 1.48644647581975e-03 2.45507805356421e-05
3.02767307692308e+01 1.46685023617163e-03 2.42754303926924e-05
3.03971153846154e+01 1.44751233924168e-03 2.40029786830882e-05
3.05175000000000e+01 1.42842937922525e-03 2.37333986637158e-05
3.06378846153846e+01 1.40959799521735e-03 2.34666637361108e-05
3.07582692307692e+01 1.39101487062074e-03 2.32027474683288e-05
3.08786538461538e+01 1.37267673256187e-03 2.29416236139279e-05
3.09990384615385e+01 1.35458035125645e-03 2.26832660585070e-05
3.11194230769231e+01 1.33672253961627e-03 2.24276488570503e-05
3.12398076923077e+01 1.31910015251038e-03 2.21747462720941e-05
3.13601923076923e+01 1.30171008627102e-03 2.19245327180464e-05
3.14805769230769e+01 1.28454927814688e-03 2.16769827808081e-05
3.16009615384615e+01 1.26761470576383e-03 2.14320712183698e-05
3.17213461538462e+01 1.25090338659255e-03 2.11897729775193e-05
3.18417307692308e+01 1.23441237737188e-03 2.09500631454078e-05
3.19621153846154e+01 1.21813877374613e-03 2.07129169827643e-05
3.20825000000000e+01 1.20207970959629e-03 2.04783099578570e-05
3.22028846153846e+01 1.18623235658814e-03 2.02462176960888e-05
3.23232692307692e+01 1.17059392367423e-03 2.00166159973117e-05
3.24436538461538e+01 1.15516165660226e-03 1.97894808507909e-05
3.25640384615385e+01 1.13993283738365e-03 1.95647883907056e-05
3.26844230769231e+01 1.12490478395543e-03 1.93425149262117e-05
3.28048076923077e+01 1.11007484956579e-03 1.91226369721935e-05
3.29251923076923e+01 1.09544042235580e-03 1.89051312029755e-05
3.30455769230769e+01 1.08099892489936e-03 1.86899744678695e-05
3.31659615384615e+01 1.06674781374935e-03 1.84771437911105e-05
3.32863461538462e+01 1.05268457898962e-03 1.82666163850391e-05
3.34067307692308e+01 1.03880674375177e-03 1.80583696097807e-05
3.35271153846154e+01 1.02511186390377e-03 1.78523810000047e-05
3.36475000000000e+01 1.01159752749332e-03 1.76486282923150e-05
3.37678846153846e+01 9.98261354365570e-04 1.74470893833372e-05
3.38882692307692e+01 9.85100995743916e-04 1.72477423434469e-05
3.40086538461538e+01 9.72114133816356e-04 1.70505654285847e-05
3.41290384615385e+01 9.59298481290002e-04 1.68555370432020e-05
3.42494230769231e+01 9.46651781101151e-04 1.66626357645003e-05
3.43698076923077e+01 9.34171805903693e-04 1.64718403672488e-05
3.44901923076923e+01 9.21856357715248e-04 1.62831297852869e-05
3.46105769230769e+01 9.09703267530030e-04 1.60964831238603e-05
3.47309615384615e+01 8.97710394936896e-04 1.59118796591315e-05
3.48513461538462e+01 8.85875627742346e-04 1.57292988485933e-05
3.49717307692308e+01 8.74196881565406e-04 1.55487202974865e-05
3.50921153846154e+01 8.62672099570892e-04 1.53701237803945e-05
3.52125000000000e+01 8.51299252005757e-04 1.51934892633648e-05
3.53328846153846e+01 8.40076335875746e-04 1.50187968690409e-05
3.54532692307692e+01 8.29001374592643e-04 1.48460268875611e-05
3.55736538461538e+01 8.18072417626164e-04 1.46751597858964e-05
3.56940384615385e+01 8.07287540130442e-04 1.45061761769836e-05
3.58144230769231e+01 7.96644842695861e-04 1.43390568392963e-05
3.59348076923077e+01 7.86142450922756e-04 1.41737827369026e-05
3.60551923076923e+01 7.75778515122200e-04 1.40103349874310e-05
3.61755769230769e+01 7.65551209990216e-04 1.38486948718673e-05
3.62959615384615e+01 7.55458734286345e-04 1.36888438338077e-05
3.64163461538462e+01 7.45499310516389e-04 1.35307634876903e-05
3.65367307692308e+01 7.35671184592682e-04 1.33744355908146e-05
3.66571153846154e+01 7.25972625605996e-04 1.32198420607914e-05
3.67775000000000e+01 7.16401925439028e-04 1.30669649934309e-05
3.68978846153846e+01 7.06957398493056e-04 1.29157866337222e-05
3.70182692307692e+01 6.97637381391079e-04 1.27662893844934e-05
3.71386538461538e+01 6.88440232684878e-04 1.26184558137966e-05
3.72590384615385e+01 6.79364332541740e-04 1.24722686291840e-05
3.73794230769231e+01 6.70408082532406e-04 1.23277106935310e-05
3.74998076923077e+01 6.61569905275575e-04 1.21847650412649e-05
3.76201923076923e+01 6.52848244185007e-04 1.20434148516956e-05
3.77405769230769e+01 6.44241563195362e-04 1.19036434568050e-05
3.78609615384615e+01 6.35748346491698e-04 1.17654343403542e-05
3.79813461538462e+01 6.27367098242489e-04 1.16287711443959e-05
