Energy (eV)          EEDF (eV^-(3/2))     First Anisotropy
4.62500000000000e-01 3.07960982773561e-02 5.55752995705123e-05
1.38750000000000e+00 2.82470857270076e-02 8.82694042262395e-05
2.31250000000000e+00 2.59090565591424e-02 1.07604205942771e-04
3.23750000000000e+00 2.37645475456259e-02 1.17671112790195e-04
4.16250000000000e+00 2.17975409007717e-02 1.22759981180637e-04
5.08750000000000e+00 1.99933446411551e-02 1.24675759440702e-04
6.01250000000000e+00 1.83384828481205e-02 1.24428695587101e-04
6.93750000000000e+00 1.68205950133303e-02 1.22663020112162e-04
7.86250000000000e+00 1.54283437155474e-02 1.19820580137669e-04
8.78750000000000e+00 1.41513299390675e-02 1.16218290616406e-04
9.71250000000000e+00 1.29800154012996e-02 1.12090122594646e-04
1.06375000000000e+01 1.19056513093409e-02 1.07612107765114e-04
1.15625000000000e+01 1.09202130134159e-02 1.02918287897771e-04
1.24875000000000e+01 1.00163400690911e-02 9.81114322808679e-05
1.34125000000000e+01 9.18728126057837e-03 9.32705368883500e-05
1.43375000000000e+01 8.42684417449432e-03 8.84562422875965e-05
1.52625000000000e+01 7.72934894743153e-03 8.37148494831458e-05
1.61875000000000e+01 7.08958584187253e-03 7.90813587868327e-05
1.71125000000000e+01 6.50277633357227e-03 7.45818084235642e-05
1.80375000000000e+01 5.96453741976256e-03 7.02350991282874e-05
1.89625000000000e+01 5.47084888158909e-03 6.60544337716607e-05
1.98875000000000e+01 5.01802325625716e-03 6.20484636749904e-05
2.08125000000000e+01 4.60267829460200e-03 5.82222081601706e-05
2.17375000000000e+01 4.22171169836338e-03 5.45777965785161e-05
2.26625000000000e+01 3.87227794847205e-03 5.11150698755041e-05
2.35875000000000e+01 3.55176705127348e-03 4.78320699924647e-05
2.45125000000000e+01 3.25778504394026e-03 4.47254390024526e-05
2.54375000000000e+01 2.98813611346372e-03 4.17907451185064e-05
2.63625000000000e+01 2.74080619566802e-03 3.90227491245165e-05
2.72875000000000e+01 2.51394793174417e-03 3.64156220384239e-05
2.82125000000000e+01 2.30586686994133e-03 3.39631226995828e-05
2.91375000000000e+01 2.11500880935273e-03 3.16587423179603e-05
3.00625000000000e+01 1.93994819126461e-03 2.94958217184353e-05
3.09875000000000e+01 1.77937745136039e-03 2.74676459759307e-05
3.19125000000000e+01 1.63209725324975e-03 2.55675203053859e-05
3.28375000000000e+01 1.49700753037467e-03 2.37888303991217e-05
3.37625000000000e+01 1.37309926938252e-03 2.21250898586362e-05
3.46875000000000e+01 1.25944697359468e-03 2.05699769221330e-05
3.56125000000000e+01 1.15520175027849e-03 1.91173623230119e-05
3.65375000000000e+01 1.05958497009017e-03 1.77613298125114e-05
3.74625000000000e+01 9.71882451329677e-04 1.64961906294711e-05
3.83875000000000e+01 8.91439125568383e-04 1.53164929921214e-05
3.93125000000000e+01 8.17654144806202e-04 1.42170275132523e-05
4.02375000000000e+01 7.49976393612394e-04 1.31928292949192e-05
4.11625000000000e+01 6.87900372729311e-04 1.22391773370867e-05
4.20875000000000e+01 6.30962423392875e-04 1.13515917922711e-05
4.30125000000000e+01 5.78737264168437e-04 1.05258295120892e-05
4.39375000000000e+01 5.30834814434925e-04 9.75787825895978e-06
4.48625000000000e+01 4.86897280791218e-04 9.04394989486763e-06
4.57875000000000e+01 4.46596484622515e-04 8.38047280726051e-06
4.67125000000000e+01 4.09631410865718e-04 7.76408378831741e-06
4.76375000000000e+01 3.75725959665064e-04 7.19161954674332e-06
4.85625000000000e+01 3.44626884124642e-04 6.66010799987503e-06
4.94875000000000e+01 3.16101898754436e-04 6.16675946734664e-06
5.04125000000000e+01 2.89937944481492e-04 5.70895786512836e-06
5.13375000000000e+01 2.65939597267202e-04 5.28425197979988e-06
5.22625000000000e+01 2.43927608444351e-04 4.89034688692813e-06
5.31875000000000e+01 2.23737565871387e-04 4.52509556394465e-06
5.41125000000000e+01 2.05218665903796e-04 4.18649073658820e-06
5.50375000000000e+01 1.88232587010190e-04 3.87265698847193e-06
5.59625000000000e+01 1.72652456619899e-04 3.58184315538375e-06
5.68875000000000e+01 1.58361903485247e-04 3.31241501930085e-06
5.78125000000000e+01 1.45254188480399e-04 3.06284831159813e-06
5.87375000000000e+01 1.33231407344537e-04 2.83172203038803e-06
5.96625000000000e+01 1.22203759414492e-04 2.61771207320232e-06
6.05875000000000e+01 1.12088876884835e-04 2.41958518319146e-06
6.15125000000000e+01 1.02811209585535e-04 2.23619320456950e-06
6.24375000000000e+01 9.43014606819650e-05 2.06646764108277e-06
6.33625000000000e+01 8.64960690823670e-05 1.90941450975041e-06
6.42875000000000e+01 7.93367346867878e-05 1.76410948094968e-06
6.52125000000000e+01 7.27699829314545e-05 1.62969329504188e-06
6.61375000000000e+01 6.67467653760906e-05 1.50536744510693e-06
6.70625000000000e+01 6.12220933508723e-05 1.39039011493583e-06
6.79875000000000e+01 5.61547019266577e-05 1.28407236118424e-06
6.89125000000000e+01 5.15067416986134e-05 1.18577452848739e-06
6.98375000000000e+01 4.72434960811050e-05 1.09490288635100e-06
7.07625000000000e+01 4.33331220022694e-05 1.01090647674238e-06
7.16875000000000e+01 3.97464120614598e-05 9.33274161492297e-07
7.26125000000000e+01 3.64565763730714e-05 8.61531858865258e-07
7.35375000000000e+01 3.34390424672907e-05 7.95239958950665e-07
7.44625000000000e+01 3.06712717531865e-05 7.33990907857934e-07
7.53875000000000e+01 2.81325911732675e-05 6.77406951056063e-07
7.63125000000000e+01 2.58040387920980e-05 6.25138026574134e-07
7.72375000000000e+01 2.36682221656429e-05 5.76859799167122e-07
7.81625000000000e+01 2.17091884334702e-05 5.32271826945659e-07
7.90875000000000e+01 1.99123051635051e-05 4.91095852364403e-07
8.00125000000000e+01 1.82641510593388e-05 4.53074209857873e-07
8.09375000000000e+01 1.67524157137630e-05 4.17968342801633e-07
8.18625000000000e+01 1.53658076597672e-05 3.85557422858348e-07
8.27875000000000e+01 1.40939700322137e-05 3.55637065140570e-07
8.37125000000000e+01 1.29274032102486e-05 3.28018132983419e-07
8.46375000000000e+01 1.18573938626501e-05 3.02525626469728e-07
8.55625000000000e+01 1.08759498661378e-05 2.78997649186750e-07
8.64875000000000e+01 9.97574061053469e-06 2.57284448016641e-07
8.74125000000000e+01 9.15004224490876e-06 2.37247521072347e-07
8.83375000000000e+01 8.39268745572640e-06 2.18758789185992e-07
8.92625000000000e+01 7.69801940189946e-06 2.01699826638442e-07
9.01875000000000e+01 7.06084946265779e-06 1.85961147086440e-07
9.11125000000000e+01 6.47641848265713e-06 1.71441540897872e-07
9.20375000000000e+01 5.94036122485390e-06 1.58047460346509e-07
9.29625000000000e+01 5.44867376563811e-06 1.45692449345409e-07
9.38875000000000e+01 4.99768358869173e-06 1.34296614613390e-07
9.48125000000000e+01 4.58402215419728e-06 1.23786135372081e-07
9.57375000000000e+01 4.20459973851050e-06 1.14092808862428e-07
9.66625000000000e+01 3.85658235636916e-06 1.05153629149705e-07
9.75875000000000e+01 3.53737059326528e-06 9.69103968554710e-08
9.85125000000000e+01 3.24458018987528e-06 8.93093576140771e-08
9.94375000000000e+01 2.97602423352923e-06 8.23008672007421e-08
1.00362500000000e+02 2.72969682370331e-06 7.58390814182751e-08
1.01287500000000e+02 2.50375808952994e-06 6.98816689608489e-08
1.02212500000000e+02 2.29652044741800e-06 6.43895455961574e-08
1.03137500000000e+02 2.10643599613855e-06 5.93266281223448e-08
1.04062500000000e+02 1.93208495522732e-06 5.46596066636818e-08
1.04987500000000e+02 1.77216506034784e-06 5.03577339695196e-08
1.05912500000000e+02 1.62548183640722e-06 4.63926304749803e-08
1.06837500000000e+02 1.49093967577218e-06 4.27381039695227e-08
1.07762500000000e+02 1.36753365494683e-06 3.93699828013401e-08
1.08687500000000e+02 1.25434202858922e-06 3.62659616218504e-08
1.09612500000000e+02 1.15051934480289e-06 3.34054587456705e-08
1.10537500000000e+02 1.05529013028006e-06 3.07694842677420e-08
1.11462500000000e+02 9.67943098129556e-07 2.83405181410083e-08
1.12387500000000e+02 8.87825835126501e-07 2.61023974755128e-08
1.13312500000000e+02 8.14339928701642e-07 2.40402123732816e-08
1.14237500000000e+02 7.46936497272921e-07 2.21402096631094e-08
1.15162500000000e+02 6.85112090534307e-07 2.03897039456536e-08
1.16087500000000e+02 6.28404929080315e-07 1.87769954022627e-08
1.17012500000000e+02 5.76391455279188e-07 1.72912938609585e-08
1.17937500000000e+02 5.28683169632488e-07 1.59226486501442e-08
1.18862500000000e+02 4.84923728991210e-07 1.46618838051266e-08
1.19787500000000e+02 4.44786284954380e-07 1.35005382245857e-08
1.20712500000000e+02 4.07971042570089e-07 1.24308104038811e-08
1.21637500000000e+02 3.74203021104385e-07 1.14455073996967e-08
1.22562500000000e+02 3.43230000152750e-07 1.05379977061507e-08
1.23487500000000e+02 3.14820635753216e-07 9.70216774626541e-09
1.24412500000000e+02 2.88762732430005e-07 8.93238170474118e-09
1.25337500000000e+02 2.64861658261202e-07 8.22344444841726e-09
1.26262500000000e+02 2.42938891132283e-07 7.57056729975765e-09
1.27187500000000e+02 2.22830685317162e-07 6.96933644626397e-09
1.28112500000000e+02 2.04386848427158e-07 6.41568378499622e-09
1.29037500000000e+02 1.87469619592688e-07 5.90586001646520e-09
1.29962500000000e+02 1.71952640498551e-07 5.43640981613106e-09
1.30887500000000e+02 1.57720011587292e-07 5.00414892468362e-09
1.31812500000000e+02 1.44665426381197e-07 4.60614301026281e-09
1.32737500000000e+02 1.32691377457011e-07 4.23968816687280e-09
1.33662500000000e+02 1.21708428142631e-07 3.90229292351448e-09
1.34587500000000e+02 1.11634544495923e-07 3.59166164806761e-09
1.35512500000000e+02 1.02394482576075e-07 3.30567923875189e-09
1.36437500000000e+02 9.39192264308929e-08 3.04239700413756e-09
1.37362500000000e+02 8.61454726022353e-08 2.80001964020751e-09
1.38287500000000e+02 7.90151572992669e-08 2.57689321994087e-09
1.39212500000000e+02 7.24750227078781e-08 2.37149411733218e-09
1.40137500000000e+02 6.64762191969487e-08 2.18241879372037e-09
1.41062500000000e+02 6.09739404502513e-08 2.00837437981297e-09
1.41987500000000e+02 5.59270887987180e-08 1.84816999188650e-09
1.42912500000000e+02 5.12979682533671e-08 1.70070872535493e-09
1.43837500000000e+02 4.70520029460890e-08 1.56498027325245e-09
1.44762500000000e+02 4.31574788752663e-08 1.44005412120192e-09
1.45687500000000e+02 3.95853070272723e-08 1.32507327415954e-09
1.46612500000000e+02 3.63088061045536e-08 1.21924847366389e-09
1.47537500000000e+02 3.33035032374463e-08 1.12185286749301e-09
1.48462500000000e+02 3.05469511912015e-08 1.03221709656781e-09
1.49387500000000e+02 2.80185607029009e-08 9.49724766650243e-10
1.50312500000000e+02 2.56994466959525e-08 8.73808274888801e-10
1.51237500000000e+02 2.35722872235090e-08 8.03944963576242e-10
1.52162500000000e+02 2.16211940872297e-08 7.39653575620432e-10
1.53087500000000e+02 1.98315941650091e-08 6.80490988201234e-10
1.54012500000000e+02 1.81901205612837e-08 6.26049202907754e-10
1.54937500000000e+02 1.66845127668980e-08 5.75952572331598e-10
1.55862500000000e+02 1.53035250828012e-08 5.29855244644292e-10
1.56787500000000e+02 1.40368426235721e-08 4.87438809120076e-10
1.57712500000000e+02 1.28750042733856e-08 4.48410126888162e-10
1.58637500000000e+02 1.18093320189632e-08 4.12499332419606e-10
1.59562500000000e+02 1.08318661316792e-08 3.79457992380858e-10
1.60487500000000e+02 9.93530571468504e-09 3.49057409526080e-10
1.61412500000000e+02 9.11295417098650e-09 3.21087060260092e-10
1.62337500000000e+02 8.35866918516185e-09 2.95353155389389e-10
1.63262500000000e+02 7.66681684512532e-09 2.71677314395835e-10
1.64187500000000e+02 7.03222956126109e-09 2.49895344321493e-10
1.65112500000000e+02 6.45016746861728e-09 2.29856115048636e-10
1.66037500000000e+02 5.91628302386473e-09 2.11420523400564e-10
1.66962500000000e+02 5.42658853258789e-09 1.94460539080727e-10
1.67887500000000e+02 4.97742636436246e-09 1.78858326013594e-10
1.68812500000000e+02 4.56544163314989e-09 1.64505433154207e-10
1.69737500000000e+02 4.18755713895288e-09 1.51302049297800e-10
1.70662500000000e+02 3.84095038356600e-09 1.39156316849086e-10
1.71587500000000e+02 3.52303248874709e-09 1.27983699905798e-10
1.72512500000000e+02 3.23142885934502e-09 1.17706402375257e-10
1.73437500000000e+02 2.96396144695261e-09 1.08252832178527e-10
1.74362500000000e+02 2.71863248160816e-09 9.95571079063690e-11
1.75287500000000e+02 2.49360955003445e-09 9.15586045766663e-11
1.76212500000000e+02 2.28721190896124e-09 8.42015354061636e-11
1.77137500000000e+02 2.09789793130277e-09 7.74345667520009e-11
1.78062500000000e+02 1.92425359142314e-09 7.12104636021769e-11
1.78987500000000e+02 1.76498190348350e-09 6.54857632002470e-11
1.79912500000000e+02 1.61889323398394e-09 6.02204745795936e-11
1.80837500000000e+02 1.48489641614249e-09 5.53778019577707e-11
1.81762500000000e+02 1.36199059974247e-09 5.09238901028566e-11
1.82687500000000e+02 1.24925777557324e-09 4.68275899325388e-11
1.83612500000000e+02 1.14585591862770e-09 4.30602427437693e-11
1.84537500000000e+02 1.05101269884164e-09 3.95954815971915e-11
1.85462500000000e+02 9.64019712399191e-10 3.64090484969818e-11
1.86387500000000e+02 8.84227190516796e-10 3.34786261140462e-11
1.87312500000000e+02 8.11039146184458e-10 3.07836828993798e-11
1.88237500000000e+02 7.43908922614295e-10 2.83053305254935e-11
1.89162500000000e+02 6.82335110146827e-10 2.60261926777439e-11
1.90087500000000e+02 6.25857801117515e-10 2.39302842947309e-11
1.91012500000000e+02 5.74055154710366e-10 2.20029004281672e-11
1.91937500000000e+02 5.26540246140778e-10 2.02305139582576e-11
1.92862500000000e+02 4.82958176633518e-10 1.86006814610852e-11
1.93787500000000e+02 4.42983422609657e-10 1.71019565801978e-11
1.94712500000000e+02 4.06317404282967e-10 1.57238103058898e-11
1.95637500000000e+02 3.72686255505149e-10 1.44565576129353e-11
1.96562500000000e+02 3.41838778202373e-10 1.32912899510528e-11
1.97487500000000e+02 3.13544566124405e-10 1.22198131224741e-11
1.98412500000000e+02 2.87592283892206e-10 1.12345901179171e-11
1.99337500000000e+02 2.63788088489847e-10 1.03286885162674e-11
2.00262500000000e+02 2.41954181410543e-10 9.49573208459578e-12
2.01187500000000e+02 2.21927480642475e-10 8.72985624398163e-12
2.02112500000000e+02 2.03558402575183e-10 8.02566709317503e-12
2.03037500000000e+02 1.86709744728340e-10 7.37820370659029e-12
2.03962500000000e+02 1.71255660957776e-10 6.78290344564957e-12
2.04887500000000e+02 1.57080721484341e-10 6.23557004323529e-12
2.05812500000000e+02 1.44079050724779e-10 5.73234424010911e-12
2.06737500000000e+02 1.32153536484889e-10 5.26967676974005e-12
2.07662500000000e+02 1.21215104608260e-10 4.84430350417568e-12
2.08587500000000e+02 1.11182053662797e-10 4.45322258849806e-12
2.09512500000000e+02 1.01979444695664e-10 4.09367340513150e-12
2.10437500000000e+02 9.35385414985894e-11 3.76311722190538e-12
2.11362500000000e+02 8.57962972027770e-11 3.45921938940871e-12
2.12287500000000e+02 7.86948833686726e-11 3.17983296388359e-12
2.13212500000000e+02 7.21812580532734e-11 2.92298364176370e-12
2.14137500000000e+02 6.62067696287779e-11 2.68685590104052e-12
2.15062500000000e+02 6.07267933934171e-11 2.46978025299524e-12
2.15987500000000e+02 5.57003982602382e-11 2.27022151552521e-12
2.16912500000000e+02 5.10900410342672e-11 2.08676802637333e-12
2.17837500000000e+02 4.68612859945454e-11 1.91812172108572e-12
2.18762500000000e+02 4.29825476865381e-11 1.76308900652062e-12
2.19687500000000e+02 3.94248550037780e-11 1.62057236625300e-12
2.20612500000000e+02 3.61616347966205e-11 1.48956263930046e-12
2.21537500000000e+02 3.31685133918399e-11 1.36913191827288e-12
2.22462500000000e+02 3.04231345405732e-11 1.25842701735323e-12
2.23387500000000e+02 2.79049924348291e-11 1.15666346447785e-12
2.24312500000000e+02 2.55952785453250e-11 1.06311997573110e-12
2.25237500000000e+02 2.34767411366542e-11 9.77133373324330e-13
2.26162500000000e+02 2.15335564104708e-11 8.98093911616907e-13
2.27087500000000e+02 1.97512103142359e-11 8.25440978479157e-13
2.28012500000000e+02 1.81163901327271e-11 7.58659141911594e-13
2.28937500000000e+02 1.66168850525893e-11 6.97274514241583e-13
2.29862500000000e+02 1.52414949572186e-11 6.40851408432810e-13
2.30787500000000e+02 1.39799467707530e-11 5.88989263080640e-13
2.31712500000000e+02 1.28228177263231e-11 5.41319814541413e-13
2.32637500000000e+02 1.17614649854386e-11 4.97504496368977e-13
2.33562500000000e+02 1.07879610828223e-11 4.57232047819242e-13
2.34487500000000e+02 9.89503471451684e-12 4.20216314644213e-13
2.35412500000000e+02 9.07601642699639e-12 3.86194226740806e-13
2.36337500000000e+02 8.32478880162579e-12 3.54923938456369e-13
2.37262500000000e+02 7.63574076238303e-12 3.26183118490459e-13
2.38187500000000e+02 7.00372566556056e-12 2.99767377379138e-13
2.39112500000000e+02 6.42402285840871e-12 2.75488821511073e-13
2.40037500000000e+02 5.89230241959436e-12 2.53174723510679e-13
2.40962500000000e+02 5.40459281811426e-12 2.32666299638618e-13
2.41887500000000e+02 4.95725124910053e-12 2.13817585609868e-13
2.42812500000000e+02 4.54693642495035e-12 1.96494402919377e-13
2.43737500000000e+02 4.17058361855102e-12 1.80573408399945e-13
2.44662500000000e+02 3.82538177219314e-12 1.65941220320800e-13
2.45587500000000e+02 3.50875250119350e-12 1.52493614872353e-13
2.46512500000000e+02 3.21833083540140e-12 1.40134787376645e-13
2.47437500000000e+02 2.95194755474270e-12 1.28776673017485e-13
2.48362500000000e+02 2.70761298686205e-12 1.18338322302250e-13
2.49287500000000e+02 2.48350214584453e-12 1.08745326851915e-13
2.50212500000000e+02 2.27794110101476e-12 9.99292914695069e-14
2.51137500000000e+02 2.08939447399904e-12 9.18273487625992e-14
2.52062500000000e+02 1.91645397066368e-12 8.43817128946530e-14
2.52987500000000e+02 1.75782786227197e-12 7.75392693153096e-14
2.53912500000000e+02 1.61233133729247e-12 7.12511975728830e-14
2.54837500000000e+02 1.47887765179428e-12 6.54726245451751e-14
2.55762500000000e+02 1.35647001232962e-12 6.01623056389065e-14
2.56687500000000e+02 1.24419413067545e-12 5.52823317050344e-14
2.57612500000000e+02 1.14121139482372e-12 5.07978595984055e-14
2.58537500000000e+02 1.04675260521320e-12 4.66768644768172e-14
2.59462500000000e+02 9.60112229417289e-13 4.28899120877983e-14
2.60387500000000e+02 8.80643132374998e-13 3.94099494323663e-14
2.61312500000000e+02 8.07751742803998e-13 3.62121123246279e-14
2.62237500000000e+02 7.40893619692776e-13 3.32735484852971e-14
2.63162500000000e+02 6.79569385757006e-13 3.05732549168263e-14
2.64087500000000e+02 6.23320997486324e-13 2.80919284086615e-14
2.65012500000000e+02 5.71728323921690e-13 2.58118281138472e-14
2.65937500000000e+02 5.24406008609516e-13 2.37166492234590e-14
2.66862500000000e+02 4.81000591293831e-13 2.17914068437504e-14
2.67787500000000e+02 4.41187867847814e-13 2.00223292529992e-14
2.68712500000000e+02 4.04670468725465e-13 1.83967597813348e-14
2.69637500000000e+02 3.71175637846358e-13 1.69030666177990e-14
2.70562500000000e+02 3.40453195323520e-13 1.55305599049548e-14
2.71487500000000e+02 3.12273668817599e-13 1.42694155329065e-14
2.72412500000000e+02 2.86426579560045e-13 1.31106050920017e-14
2.73337500000000e+02 2.62718870243225e-13 1.20458314870700e-14
2.74262500000000e+02 2.40973463035078e-13 1.10674697561359e-14
2.75187500000000e+02 2.21027936947806e-13 1.01685126733930e-14
2.76112500000000e+02 2.02733314681591e-13 9.34252075011476e-15
2.77037500000000e+02 1.85952949882035e-13 8.58357627833261e-15
2.77962500000000e+02 1.70561506500000e-13 7.88624109075941e-15
2.78887500000000e+02 1.56444022630480e-13 7.24551773677693e-15
2.79812500000000e+02 1.43495051838124e-13 6.65681379852373e-15
2.80737500000000e+02 1.31617875555791e-13 6.11590909338645e-15
2.81662500000000e+02 1.20723780673372e-13 5.61892552967002e-15
2.82587500000000e+02 1.10731396921040e-13 5.16229940104498e-15
2.83512500000000e+02 1.01566089097716e-13 4.74275592267536e-15
2.84437500000000e+02 9.31593996051648e-14 4.35728582784148e-15
2.85362500000000e+02 8.54485371238925e-14 4.00312385849902e-15
2.86287500000000e+02 7.83759076116720e-14 3.67772899666453e-15
2.87212500000000e+02 7.18886841216119e-14 3.37876629588102e-15
2.88137500000000e+02 6.59384122266582e-14 3.10409018338430e-15
2.89062500000000e+02 6.04806481033585e-14 2.85172911403993e-15
2.89987500000000e+02 5.54746265716636e-14 2.61987146672797e-15
2.90912500000000e+02 5.08829566112839e-14 2.40685258268421e-15
2.91837500000000e+02 4.66713420803504e-14 2.21114285342567e-15
