Energy (eV)          EEDF (eV^-(3/2))     First Anisotropy
1.06451612903226e-02 4.24714238895103e-01 2.84008684404254e-04
3.19354838709677e-02 4.20008880093053e-01 4.67954350642263e-04
5.32258064516129e-02 4.15355651404050e-01 6.15044077712599e-04
7.45161290322581e-02 4.10753975294226e-01 7.25154513733088e-04
9.58064516129032e-02 4.06203280608076e-01 8.15645055244900e-04
1.17096774193548e-01 4.01703002524104e-01 8.93120620815492e-04
1.38387096774194e-01 3.97252582507946e-01 9.61019816007602e-04
1.59677419354839e-01 3.92851468155483e-01 1.02143126873153e-03
1.80967741935484e-01 3.88499113216618e-01 1.07574816371664e-03
2.02258064516129e-01 3.84194977517520e-01 1.12496077272794e-03
2.23548387096774e-01 3.79938526819811e-01 1.16980625671020e-03
2.44838709677419e-01 3.75729232846208e-01 1.21085303233762e-03
2.66129032258065e-01 3.71566573135502e-01 1.24855175454064e-03
2.87419354838710e-01 3.67450031032711e-01 1.28326784546505e-03
3.08709677419355e-01 3.63379095621396e-01 1.31530318997087e-03
3.30000000000000e-01 3.59353261616362e-01 1.34491111571291e-03
3.51290322580645e-01 3.55372029356846e-01 1.37230706052985e-03
3.72580645161290e-01 3.51434904693807e-01 1.39767636132326e-03
3.93870967741935e-01 3.47541398974787e-01 1.42118006559573e-03
4.15161290322581e-01 3.43691028940871e-01 1.44295935320747e-03
4.36451612903226e-01 3.39883316697123e-01 1.46313895136076e-03
4.57741935483871e-01 3.36117789651825e-01 1.48182982301565e-03
4.79032258064516e-01 3.32393980431713e-01 1.49913129765455e-03
5.00322580645161e-01 3.28711426857666e-01 1.51513278926013e-03
5.21612903225806e-01 3.25069671855903e-01 1.52991519441327e-03
5.42903225806452e-01 3.21468263424025e-01 1.54355203675285e-03
5.64193548387097e-01 3.17906754573910e-01 1.55611042236515e-03
5.85483870967742e-01 3.14384703256318e-01 1.56765183153719e-03
6.06774193548387e-01 3.10901672331940e-01 1.57823278806109e-03
6.28064516129032e-01 3.07457229492675e-01 1.58790542636615e-03
6.49354838709677e-01 3.04050947231086e-01 1.59671797481154e-03
6.70645161290323e-01 3.00682402765464e-01 1.60471517140687e-03
6.91935483870968e-01 2.97351178003311e-01 1.61193861934445e-03
7.13225806451613e-01 2.94056859488896e-01 1.61842710104714e-03
7.34516129032258e-01 2.90799038337590e-01 1.62421684650544e-03
7.55806451612903e-01 2.87577310203821e-01 1.62934177058962e-03
7.77096774193548e-01 2.84391275213073e-01 1.63383368151609e-03
7.98387096774194e-01 2.81240537929243e-01 1.63772246450915e-03
8.19677419354839e-01 2.78124707289328e-01 1.64103624533581e-03
8.40967741935484e-01 2.75043396566815e-01 1.64380153310914e-03
8.62258064516129e-01 2.71996223323277e-01 1.64604335247421e-03
8.83548387096774e-01 2.68982809350083e-01 1.64778535739346e-03
9.04838709677419e-01 2.66002780635627e-01 1.64904993536263e-03
9.26129032258065e-01 2.63055767305320e-01 1.64985830149142e-03
9.47419354838710e-01 2.60141403585678e-01 1.65023058110599e-03
9.68709677419355e-01 2.57259327758601e-01 1.65018588881669e-03
9.90000000000000e-01 2.54409182107356e-01 1.64974239579493e-03
1.01129032258065e+00 2.51590612886871e-01 1.64891739323244e-03
1.03258064516129e+00 2.48803270267944e-01 1.64772735567922e-03
1.05387096774194e+00 2.46046808268523e-01 1.64618798007905e-03
1.07516129032258e+00 2.43320884792291e-01 1.64431424171540e-03
1.09645161290323e+00 2.40625161506029e-01 1.64212044652117e-03
1.11774193548387e+00 2.37959303824961e-01 1.63962026325620e-03
1.13903225806452e+00 2.35322980848422e-01 1.63682675442987e-03
1.16032258064516e+00 2.32715865388225e-01 1.63375241791193e-03
1.18161290322581e+00 2.30137633857287e-01 1.63040922590253e-03
1.20290322580645e+00 2.27587966253621e-01 1.62680864672461e-03
1.22419354838710e+00 2.25066546100283e-01 1.62296166620944e-03
1.24548387096774e+00 2.22573060467811e-01 1.61887881963979e-03
1.26677419354839e+00 2.20107199872546e-01 1.61457022190445e-03
1.28806451612903e+00 2.17668658259682e-01 1.61004558240005e-03
1.30935483870968e+00 2.15257132947082e-01 1.60531422001242e-03
1.33064516129032e+00 2.12872324642821e-01 1.60038508829627e-03
1.35193548387097e+00 2.10513937351965e-01 1.59526680220601e-03
1.37322580645161e+00 2.08181678342212e-01 1.58996763710076e-03
1.39451612903226e+00 2.05875258158536e-01 1.58449555332727e-03
1.41580645161290e+00 2.03594390535395e-01 1.57885821670678e-03
1.43709677419355e+00 2.01338792378699e-01 1.57306300613726e-03
1.45838709677419e+00 1.99108183715717e-01 1.56711702169309e-03
1.47967741935484e+00 1.96902287706182e-01 1.56102710219321e-03
1.50096774193548e+00 1.94720830561308e-01 1.55479984206854e-03
1.52225806451613e+00 1.92563541525561e-01 1.54844159647208e-03
1.54354838709677e+00 1.90430152829510e-01 1.54195848698345e-03
1.56483870967742e+00 1.88320399697992e-01 1.53535641624494e-03
1.58612903225806e+00 1.86234020275184e-01 1.52864108208482e-03
1.60741935483871e+00 1.84170755606325e-01 1.52181798085187e-03
1.62870967741935e+00 1.82130349593293e-01 1.51489241138988e-03
1.65000000000000e+00 1.80112549000300e-01 1.50786948741616e-03
1.67129032258065e+00 1.78117103384387e-01 1.50075414952008e-03
1.69258064516129e+00 1.76143765077235e-01 1.49355116721796e-03
1.71387096774194e+00 1.74192289143242e-01 1.48626514166336e-03
1.73516129032258e+00 1.72262433383154e-01 1.47890051625296e-03
1.75645161290323e+00 1.70353958269457e-01 1.47146158694830e-03
1.77774193548387e+00 1.68466626928352e-01 1.46395250340138e-03
1.79903225806452e+00 1.66600205100158e-01 1.45637727073170e-03
1.82032258064516e+00 1.64754461141223e-01 1.44873975871603e-03
1.84161290322581e+00 1.62929165963728e-01 1.44104371076408e-03
1.86290322580645e+00 1.61124093017919e-01 1.43329274436580e-03
1.88419354838710e+00 1.59339018254662e-01 1.42549035217439e-03
1.90548387096774e+00 1.57573720125917e-01 1.41763991004684e-03
1.92677419354839e+00 1.55827979528549e-01 1.40974468492232e-03
1.94806451612903e+00 1.54101579786877e-01 1.40180783477323e-03
1.96935483870968e+00 1.52394306617235e-01 1.39383240916957e-03
1.99064516129032e+00 1.50705948127241e-01 1.38582135637360e-03
2.01193548387097e+00 1.49036294763268e-01 1.37777753193510e-03
2.03322580645161e+00 1.47385139285340e-01 1.36970369176607e-03
2.05451612903226e+00 1.45752276765692e-01 1.36160250045486e-03
2.07580645161290e+00 1.44137504538708e-01 1.35347653768093e-03
2.09709677419355e+00 1.42540622184067e-01 1.34532829757153e-03
2.11838709677419e+00 1.40961431494565e-01 1.33716018862807e-03
2.13967741935484e+00 1.39399736473784e-01 1.32897453954839e-03
2.16096774193548e+00 1.37855343289196e-01 1.32077360496992e-03
2.18225806451613e+00 1.36328060255708e-01 1.31255956462368e-03
2.20354838709677e+00 1.34817697805160e-01 1.30433452302860e-03
2.22483870967742e+00 1.33324068483256e-01 1.29610051472185e-03
2.24612903225806e+00 1.31846986905565e-01 1.28785950942942e-03
2.26741935483871e+00 1.30386269741503e-01 1.27961341107670e-03
2.28870967741935e+00 1.28941735685390e-01 1.27136405731069e-03
2.31000000000000e+00 1.27513205452785e-01 1.26311322422239e-03
2.33129032258064e+00 1.26100501739144e-01 1.25486263102414e-03
2.35258064516129e+00 1.24703449204264e-01 1.24661393896207e-03
2.37387096774194e+00 1.23321874444804e-01 1.23836875071196e-03
2.39516129032258e+00 1.21955605990122e-01 1.23012861466147e-03
2.41645161290323e+00 1.20604474263408e-01 1.22189502915979e-03
2.43774193548387e+00 1.19268311566579e-01 1.21366944136598e-03
2.45903225806452e+00 1.17946952054190e-01 1.20545324655335e-03
2.48032258064516e+00 1.16640231728863e-01 1.19724779200821e-03
2.50161290322581e+00 1.15347988404709e-01 1.18905438090489e-03
2.52290322580645e+00 1.14070061692692e-01 1.18087427111621e-03
2.54419354838710e+00 1.12806292975830e-01 1.17270867445367e-03
2.56548387096774e+00 1.11556525404312e-01 1.16455876022913e-03
2.58677419354839e+00 1.10320603861044e-01 1.15642565879997e-03
2.60806451612903e+00 1.09098374947469e-01 1.14831046036144e-03
2.62935483870968e+00 1.07889686960005e-01 1.14021421414381e-03
2.65064516129032e+00 1.06694389884903e-01 1.13213793167589e-03
2.67193548387097e+00 1.05512335365774e-01 1.12408259103637e-03
2.69322580645161e+00 1.04343376685589e-01 1.11604913163873e-03
2.71451612903226e+00 1.03187368761426e-01 1.10803845840418e-03
2.73580645161290e+00 1.02044168113347e-01 1.10005144482808e-03
2.75709677419355e+00 1.00913632851005e-01 1.09208893176211e-03
2.77838709677419e+00 9.97956226520920e-02 1.08415172656204e-03
2.79967741935484e+00 9.86899987569198e-02 1.07624060591829e-03
2.82096774193548e+00 9.75966239390540e-02 1.06835631868201e-03
2.84225806451613e+00 9.65153624923717e-02 1.06049958466314e-03
2.86354838709677e+00 9.54460802105579e-02 1.05267109377277e-03
2.88483870967742e+00 9.43886443815798e-02 1.04487150863441e-03
2.90612903225806e+00 9.33429237599496e-02 1.03710146719397e-03
2.92741935483871e+00 9.23087885542314e-02 1.02936158154066e-03
2.94870967741935e+00 9.12861104075303e-02 1.02165243705190e-03
2.97000000000000e+00 9.02747623918957e-02 1.01397459480711e-03
2.99129032258065e+00 8.92746189821096e-02 1.00632859400277e-03
3.01258064516129e+00 8.82855560436343e-02 9.98714950801137e-04
3.03387096774194e+00 8.73074508140405e-02 9.91134157483956e-04
3.05516129032258e+00 8.63401818973738e-02 9.83586684687650e-04
3.07645161290323e+00 8.53836292393710e-02 9.76072983641961e-04
3.09774193548387e+00 8.44376741158391e-02 9.68593485049970e-04
3.11903225806452e+00 8.35021991149733e-02 9.61148598255336e-04
3.14032258064516e+00 8.25770881317153e-02 9.53738713315617e-04
3.16161290322581e+00 8.16622263443078e-02 9.46364203080490e-04
3.18290322580645e+00 8.07575002030948e-02 9.39025422105624e-04
3.20419354838710e+00 7.98627974136838e-02 9.31722705837036e-04
3.22548387096774e+00 7.89780069313198e-02 9.24456372537095e-04
3.24677419354839e+00 7.81030189386949e-02 9.17226725216484e-04
3.26806451612903e+00 7.72377248351607e-02 9.10034050583653e-04
3.28935483870968e+00 7.63820172206893e-02 9.02878618248889e-04
3.31064516129032e+00 7.55357898902856e-02 8.95760682515805e-04
3.33193548387097e+00 7.46989378129752e-02 8.88680484813064e-04
3.35322580645161e+00 7.38713571189877e-02 8.81638250140336e-04
3.37451612903226e+00 7.30529450942195e-02 8.74634189466988e-04
3.39580645161290e+00 7.22436001600468e-02 8.67668501443744e-04
3.41709677419355e+00 7.14432218632197e-02 8.60741371409837e-04
3.43838709677419e+00 7.06517108611394e-02 8.53852970630518e-04
3.45967741935484e+00 6.98689689163856e-02 8.47003457885760e-04
3.48096774193548e+00 6.90948988775883e-02 8.40192981066696e-04
3.50225806451613e+00 6.83294046697041e-02 8.33421676220233e-04
3.52354838709677e+00 6.75723912799860e-02 8.26689666810774e-04
3.54483870967742e+00 6.68237647525881e-02 8.19997065202534e-04
3.56612903225806e+00 6.60834321704347e-02 8.13343974149995e-04
3.58741935483871e+00 6.53513016458671e-02 8.06730485879682e-04
3.60870967741935e+00 6.46272823072703e-02 8.00156681376659e-04
3.63000000000000e+00 6.39112842937677e-02 7.93622631768874e-04
3.65129032258065e+00 6.32032187380283e-02 7.87128399719949e-04
3.67258064516129e+00 6.25029977572725e-02 7.80674038547677e-04
3.69387096774194e+00 6.18105344405241e-02 7.74259591535539e-04
3.71516129032258e+00 6.11257428434030e-02 7.67885093226729e-04
3.73645161290323e+00 6.04485379718167e-02 7.61550570726677e-04
3.75774193548387e+00 5.97788357733139e-02 7.55256042857607e-04
3.77903225806452e+00 5.91165531249310e-02 7.49001519495210e-04
3.80032258064516e+00 5.84616078280893e-02 7.42787002778985e-04
3.82161290322581e+00 5.78139185931221e-02 7.36612488331519e-04
3.84290322580645e+00 5.71734050309632e-02 7.30477964448216e-04
3.86419354838710e+00 5.65399876415592e-02 7.24383411458758e-04
3.88548387096774e+00 5.59135878088781e-02 7.18328802860299e-04
3.90677419354839e+00 5.52941277862226e-02 7.12314106459495e-04
3.92806451612903e+00 5.46815306882451e-02 7.06339283596377e-04
3.94935483870968e+00 5.40757204798964e-02 7.00404288530488e-04
3.97064516129032e+00 5.34766219715507e-02 6.94509069502412e-04
3.99193548387097e+00 5.28841608050620e-02 6.88653570213869e-04
4.01322580645161e+00 5.22982634446573e-02 6.82837727441713e-04
4.03451612903226e+00 5.17188571721559e-02 6.77061472500728e-04
4.05580645161290e+00 5.11458700735506e-02 6.71324732266940e-04
4.07709677419355e+00 5.05792310315590e-02 6.65627428455488e-04
4.09838709677419e+00 5.00188697154575e-02 6.59969477045533e-04
4.11967741935484e+00 4.94647165764215e-02 6.54350789232013e-04
4.14096774193548e+00 4.89167028347798e-02 6.48771272385718e-04
4.16225806451613e+00 4.83747604728625e-02 6.43230829362710e-04
4.18354838709677e+00 4.78388222253022e-02 6.37729357952670e-04
4.20483870967742e+00 4.73088215744981e-02 6.32266751771893e-04
4.22612903225806e+00 4.67846927385068e-02 6.26842901164657e-04
4.24741935483871e+00 4.62663706641753e-02 6.21457692543052e-04
4.26870967741935e+00 4.57537910178884e-02 6.16111007858040e-04
4.29000000000000e+00 4.52468901811569e-02 6.10802725437824e-04
4.31129032258065e+00 4.47456052391108e-02 6.05532720834479e-04
4.33258064516129e+00 4.42498739739069e-02 6.00300866193032e-04
4.35387096774194e+00 4.37596348559013e-02 5.95107029744588e-04
4.37516129032258e+00 4.32748270393620e-02 5.89951076593888e-04
4.39645161290323e+00 4.27953903515324e-02 5.84832869514817e-04
4.41774193548387e+00 4.23212652863034e-02 5.79752268347640e-04
4.43903225806452e+00 4.18523929957911e-02 5.74709129513518e-04
4.46032258064516e+00 4.13887152861731e-02 5.69703306754494e-04
4.48161290322581e+00 4.09301746072927e-02 5.64734651881500e-04
4.50290322580645e+00 4.04767140465854e-02 5.59803014198621e-04
4.52419354838710e+00 4.00282773210419e-02 5.54908240038099e-04
4.54548387096774e+00 3.95848087731696e-02 5.50050173456183e-04
4.56677419354839e+00 3.91462533611065e-02 5.45228656936585e-04
4.58806451612903e+00 3.87125566527945e-02 5.40443530840625e-04
4.60935483870968e+00 3.82836648183089e-02 5.35694632962245e-04
4.63064516129032e+00 3.78595246259431e-02 5.30981799182400e-04
4.65193548387097e+00 3.74400834328075e-02 5.26304864399625e-04
4.67322580645161e+00 3.70252891783658e-02 5.21663660927338e-04
4.69451612903226e+00 3.66150903806151e-02 5.17058019414340e-04
4.71580645161290e+00 3.62094361270272e-02 5.12487769479068e-04
4.73709677419355e+00 3.58082760691269e-02 5.07952739200683e-04
4.75838709677419e+00 3.54115604154259e-02 5.03452754705444e-04
4.77967741935484e+00 3.50192399277231e-02 4.98987640756870e-04
4.80096774193548e+00 3.46312659124875e-02 4.94557221352916e-04
4.82225806451613e+00 3.42475902156578e-02 4.90161319240224e-04
4.84354838709677e+00 3.38681652158968e-02 4.85799755518489e-04
4.86483870967742e+00 3.34929438210116e-02 4.81472350196095e-04
4.88612903225806e+00 3.31218794597546e-02 4.77178922752525e-04
4.90741935483871e+00 3.27549260768355e-02 4.72919291674768e-04
4.92870967741935e+00 3.23920381264825e-02 4.68693274079030e-04
4.95000000000000e+00 3.20331705689793e-02 4.64500686234046e-04
4.97129032258064e+00 3.16782788628629e-02 4.60341344090864e-04
4.99258064516129e+00 3.13273189601402e-02 4.56215062840448e-04
5.01387096774194e+00 3.09802473001413e-02 4.52121656552041e-04
5.03516129032258e+00 3.06370208061713e-02 4.48060938666148e-04
5.05645161290323e+00 3.02975968780847e-02 4.44032722493824e-04
5.07774193548387e+00 2.99619333876984e-02 4.40036820794533e-04
5.09903225806452e+00 2.96299886729239e-02 4.36073045430412e-04
5.12032258064516e+00 2.93017215345312e-02 4.32141207830841e-04
5.14161290322581e+00 2.89770912290810e-02 4.28241119463115e-04
5.16290322580645e+00 2.86560574645265e-02 4.24372591429628e-04
5.18419354838710e+00 2.83385803946105e-02 4.20535434137515e-04
5.20548387096774e+00 2.80246206157408e-02 4.16729457736518e-04
5.22677419354839e+00 2.77141391602606e-02 4.12954472562749e-04
5.24806451612903e+00 2.74070974922319e-02 4.09210288754374e-04
5.26935483870968e+00 2.71034575020867e-02 4.05496715935928e-04
5.29064516129032e+00 2.68031815036088e-02 4.01813563631173e-04
5.31193548387097e+00 2.65062322275273e-02 3.98160641859631e-04
5.33322580645161e+00 2.62125728169330e-02 3.94537760055812e-04
5.35451612903226e+00 2.59221668243416e-02 3.90944727659658e-04
5.37580645161290e+00 2.56349782055156e-02 3.87381354518218e-04
5.39709677419355e+00 2.53509713155470e-02 3.83847450530619e-04
5.41838709677419e+00 2.50701109039250e-02 3.80342825355481e-04
5.43967741935484e+00 2.47923621117021e-02 3.76867288784680e-04
5.46096774193548e+00 2.45176904656110e-02 3.73420651122330e-04
5.48225806451613e+00 2.42460618743096e-02 3.70002722846100e-04
5.50354838709677e+00 2.39774426236706e-02 3.66613314327758e-04
5.52483870967742e+00 2.37117993740488e-02 3.63252236185776e-04
5.54612903225806e+00 2.34490991546769e-02 3.59919299642949e-04
5.56741935483871e+00 2.31893093600672e-02 3.56614316203357e-04
5.58870967741935e+00 2.29323977455130e-02 3.53337097385392e-04
5.61000000000000e+00 2.26783324244535e-02 3.50087455054493e-04
5.63129032258064e+00 2.24270818631363e-02 3.46865201760761e-04
5.65258064516129e+00 2.21786148771673e-02 3.43670150430778e-04
5.67387096774194e+00 2.19329006272163e-02 3.40502114112596e-04
5.69516129032258e+00 2.16899086164756e-02 3.37360906289803e-04
5.71645161290323e+00 2.14496086855755e-02 3.34246341200259e-04
5.73774193548387e+00 2.12119710092785e-02 3.31158233542133e-04
5.75903225806452e+00 2.09769660923774e-02 3.28096398230345e-04
5.78032258064516e+00 2.07445647672463e-02 3.25060650693037e-04
5.80161290322581e+00 2.05147381889967e-02 3.22050807172562e-04
5.82290322580645e+00 2.02874578323094e-02 3.19066684445100e-04
5.84419354838710e+00 2.00626954875167e-02 3.16108099588012e-04
5.86548387096774e+00 1.98404232582436e-02 3.13174870259778e-04
5.88677419354839e+00 1.96206135567915e-02 3.10266814984298e-04
5.90806451612903e+00 1.94032391011032e-02 3.07383752883415e-04
5.92935483870968e+00 1.91882729110206e-02 3.04525503454731e-04
5.95064516129032e+00 1.89756883060130e-02 3.01691886835987e-04
5.97193548387097e+00 1.87654589007778e-02 2.98882724192514e-04
5.99322580645161e+00 1.85575586019921e-02 2.96097836985183e-04
6.01451612903226e+00 1.83519616061048e-02 2.93337047353977e-04
6.03580645161290e+00 1.81486423950931e-02 2.90600178375929e-04
6.05709677419355e+00 1.79475757336450e-02 2.87887053818208e-04
6.07838709677419e+00 1.77487366657066e-02 2.85197497932543e-04
6.09967741935484e+00 1.75521005123570e-02 2.82531335695134e-04
6.12096774193548e+00 1.73576428677638e-02 2.79888393050452e-04
6.14225806451613e+00 1.71653395964835e-02 2.77268496675671e-04
6.16354838709677e+00 1.69751668301637e-02 2.74671473784378e-04
6.18483870967742e+00 1.67871009654978e-02 2.72097152353256e-04
6.20612903225806e+00 1.66011186603691e-02 2.69545361352442e-04
6.22741935483871e+00 1.64171968312658e-02 2.67015930520876e-04
6.24870967741936e+00 1.62353126501296e-02 2.64508690178826e-04
6.27000000000000e+00 1.60554435423882e-02 2.62023471442123e-04
6.29129032258064e+00 1.58775671832796e-02 2.59560106439891e-04
6.31258064516129e+00 1.57016614953751e-02 2.57118428100238e-04
6.33387096774194e+00 1.55277046455701e-02 2.54698269971257e-04
6.35516129032258e+00 1.53556750431897e-02 2.52299466423483e-04
6.37645161290323e+00 1.51855513364856e-02 2.49921852855739e-04
6.39774193548387e+00 1.50173124102630e-02 2.47565265490690e-04
6.41903225806452e+00 1.48509373830056e-02 2.45229541203936e-04
6.44032258064516e+00 1.46864056050539e-02 2.42914517715371e-04
6.46161290322581e+00 1.45236966552649e-02 2.40620033783819e-04
6.48290322580645e+00 1.43627903387392e-02 2.38345929011999e-04
6.50419354838710e+00 1.42036666840742e-02 2.36092043683324e-04
6.52548387096774e+00 1.40463059416122e-02 2.33858218942826e-04
6.54677419354839e+00 1.38906885802555e-02 2.31644296981167e-04
6.56806451612903e+00 1.37367952852894e-02 2.29450120848630e-04
6.58935483870968e+00 1.35846069557580e-02 2.27275534299260e-04
6.61064516129032e+00 1.34341047027795e-02 2.25120381961917e-04
6.63193548387097e+00 1.32852698465094e-02 2.22984509594211e-04
6.65322580645161e+00 1.31380839138379e-02 2.20867763584635e-04
6.67451612903226e+00 1.29925286367547e-02 2.18769991203959e-04
6.69580645161290e+00 1.28485859494179e-02 2.16691040772567e-04
6.71709677419355e+00 1.27062379861346e-02 2.14630761488746e-04
