Energy (eV)          EEDF (eV^-(3/2))     First Anisotropy
1.36842105263158e-04 2.14798302599803e+02 4.92430253356302e-02
4.10526315789474e-04 2.12855812125862e+02 8.12196000774110e-02
6.84210526315789e-04 2.10930888222190e+02 1.06968674835909e-01
9.57894736842105e-04 2.09023372027378e+02 1.26378718233090e-01
1.23157894736842e-03 2.07133106118672e+02 1.42441853518983e-01
1.50526315789474e-03 2.05259934495533e+02 1.56293005433575e-01
1.77894736842105e-03 2.03403702568802e+02 1.68521294153880e-01
2.05263157894737e-03 2.01564257147324e+02 1.79483532169300e-01
2.32631578947368e-03 1.99741446425302e+02 1.89417059095892e-01
2.60000000000000e-03 1.97935119969771e+02 1.98490109645266e-01
2.87368421052632e-03 1.96145128707253e+02 2.06827579400843e-01
3.14736842105263e-03 1.94371324914342e+02 2.14525518382190e-01
3.42105263157895e-03 1.92613562202500e+02 2.21659879194267e-01
3.69473684210526e-03 1.90871695507033e+02 2.28292094315248e-01
3.96842105263158e-03 1.89145581075115e+02 2.34472789510968e-01
4.24210526315789e-03 1.87435076453929e+02 2.40244346671606e-01
4.51578947368421e-03 1.85740040478903e+02 2.45642726127528e-01
4.78947368421053e-03 1.84060333262066e+02 2.50698795695204e-01
5.06315789473684e-03 1.82395816180499e+02 2.55439321352950e-01
5.33684210526316e-03 1.80746351864895e+02 2.59887719844912e-01
5.61052631578947e-03 1.79111804188221e+02 2.64064640039400e-01
5.88421052631579e-03 1.77492038254489e+02 2.67988418687075e-01
6.15789473684211e-03 1.75886920387617e+02 2.71675442454024e-01
6.43157894736842e-03 1.74296318120402e+02 2.75140438929583e-01
6.70526315789474e-03 1.72720100183581e+02 2.78396713055892e-01
6.97894736842105e-03 1.71158136495005e+02 2.81456341089128e-01
7.25263157894737e-03 1.69610298148900e+02 2.84330331135809e-01
7.52631578947368e-03 1.68076457405226e+02 2.87028757106171e-01
7.80000000000000e-03 1.66556487679140e+02 2.89560871258415e-01
8.07368421052632e-03 1.65050263530277e+02 2.91935199711855e-01
8.34736842105263e-03 1.63557660653221e+02 2.94159623521895e-01
8.62105263157895e-03 1.62078555866405e+02 2.96241448121404e-01
8.89473684210526e-03 1.60612827102237e+02 2.98187463482419e-01
9.16842105263158e-03 1.59160353397018e+02 3.00003995976029e-01
9.44210526315789e-03 1.57721014880965e+02 3.01696953564464e-01
9.71578947368421e-03 1.56294692768317e+02 3.03271865308601e-01
9.98947368421053e-03 1.54881269347530e+02 3.04733915997968e-01
1.02631578947368e-02 1.53480627971363e+02 3.06087976940540e-01
1.05368421052632e-02 1.52092653048056e+02 3.07338632794929e-01
1.08105263157895e-02 1.50717230030757e+02 3.08490205475258e-01
1.10842105263158e-02 1.49354245408514e+02 3.09546775831541e-01
1.13578947368421e-02 1.48003586696886e+02 3.10512202655537e-01
1.16315789473684e-02 1.46665142428670e+02 3.11390139355909e-01
1.19052631578947e-02 1.45338802143106e+02 3.12184050787762e-01
1.21789473684211e-02 1.44024456381604e+02 3.12897226215660e-01
1.24526315789474e-02 1.42721996673794e+02 3.13532790886632e-01
1.27263157894737e-02 1.41431315530241e+02 3.14093718874244e-01
1.30000000000000e-02 1.40152306433572e+02 3.14582842926109e-01
1.32736842105263e-02 1.38884863829682e+02 3.15002863874966e-01
1.35473684210526e-02 1.37628883119029e+02 3.15356359225327e-01
1.38210526315789e-02 1.36384260648000e+02 3.15645791000982e-01
1.40947368421053e-02 1.35150893700355e+02 3.15873512934553e-01
1.43684210526316e-02 1.33928680488752e+02 3.16041776679413e-01
1.46421052631579e-02 1.32717520145167e+02 3.16152739045133e-01
1.49157894736842e-02 1.31517312716151e+02 3.16208466812863e-01
1.51894736842105e-02 1.30327959150948e+02 3.16210941092912e-01
1.54631578947368e-02 1.29149361294553e+02 3.16162063285816e-01
1.57368421052632e-02 1.27981421879610e+02 3.16063659094629e-01
1.60105263157895e-02 1.26824044518379e+02 3.15917482617626e-01
1.62842105263158e-02 1.25677133694788e+02 3.15725220146279e-01
1.65578947368421e-02 1.24540594756550e+02 3.15488493694485e-01
1.68315789473684e-02 1.23414333907348e+02 3.15208863955568e-01
1.71052631578947e-02 1.22298258198169e+02 3.14887834365459e-01
1.73789473684211e-02 1.21192275522448e+02 3.14526853298610e-01
1.76526315789474e-02 1.20096294605618e+02 3.14127316064828e-01
1.79263157894737e-02 1.19010224998534e+02 3.13690568426330e-01
1.82000000000000e-02 1.17933977070015e+02 3.13217908601739e-01
1.84736842105263e-02 1.16867461999442e+02 3.12710589464593e-01
1.87473684210526e-02 1.15810591769429e+02 3.12169820607735e-01
1.90210526315789e-02 1.14763279158564e+02 3.11596770282167e-01
1.92947368421053e-02 1.13725437734202e+02 3.10992567221452e-01
1.95684210526316e-02 1.12696981845340e+02 3.10358302079240e-01
1.98421052631579e-02 1.11677826614814e+02 3.09695029895657e-01
2.01157894736842e-02 1.10667887934509e+02 3.09003771059581e-01
2.03894736842105e-02 1.09667082456179e+02 3.08285512182644e-01
2.06631578947368e-02 1.08675327585324e+02 3.07541208319865e-01
2.09368421052632e-02 1.07692541474371e+02 3.06771783973055e-01
2.12105263157895e-02 1.06718643015921e+02 3.05978134313686e-01
2.14842105263158e-02 1.05753551836058e+02 3.05161126340523e-01
2.17578947368421e-02 1.04797188287712e+02 3.04321599976350e-01
2.20315789473684e-02 1.03849473444087e+02 3.03460368865512e-01
2.23052631578947e-02 1.02910329091552e+02 3.02578222100488e-01
2.25789473684211e-02 1.01979677724994e+02 3.01675924668082e-01
2.28526315789474e-02 1.01057442539593e+02 3.00754217850921e-01
2.31263157894737e-02 1.00143547425101e+02 2.99813820821797e-01
2.34000000000000e-02 9.92379169595578e+01 2.98855431205276e-01
2.36736842105263e-02 9.83404764030697e+01 2.97879725850279e-01
2.39473684210526e-02 9.74511516916390e+01 2.96887361566987e-01
2.42210526315789e-02 9.65698694310537e+01 2.95878975829182e-01
2.44947368421053e-02 9.56965568908292e+01 2.94855187444909e-01
2.47684210526316e-02 9.48311419982067e+01 2.93816596986681e-01
2.50421052631579e-02 9.39735533317185e+01 2.92763788039355e-01
2.53157894736842e-02 9.31237201167666e+01 2.91697327359226e-01
2.55894736842105e-02 9.22815722182941e+01 2.90617765012111e-01
2.58631578947368e-02 9.14470401354982e+01 2.89525635548588e-01
2.61368421052632e-02 9.06200549960944e+01 2.88421458304029e-01
2.64105263157895e-02 8.98005485506318e+01 2.87305737891867e-01
2.66842105263158e-02 8.89884531668623e+01 2.86178964675918e-01
2.69578947368421e-02 8.81837018241580e+01 2.85041615222869e-01
2.72315789473684e-02 8.73862281079803e+01 2.83894152551807e-01
2.75052631578947e-02 8.65959662039912e+01 2.82737027111137e-01
2.77789473684211e-02 8.58128508938567e+01 2.81570676803379e-01
2.80526315789474e-02 8.50368175486171e+01 2.80395526999993e-01
2.83263157894737e-02 8.42678021237733e+01 2.79211991473038e-01
2.86000000000000e-02 8.35057411540015e+01 2.78020472563679e-01
2.88736842105263e-02 8.27505717479151e+01 2.76821361525277e-01
2.91473684210526e-02 8.20022315828745e+01 2.75615038853818e-01
2.94210526315789e-02 8.12606588998445e+01 2.74401874605557e-01
2.96947368421053e-02 8.05257924982966e+01 2.73182228703152e-01
2.99684210526316e-02 7.97975717311587e+01 2.71956451069328e-01
3.02421052631579e-02 7.90759364994714e+01 2.70724882398462e-01
3.05157894736842e-02 7.83608272484528e+01 2.69487854102871e-01
3.07894736842105e-02 7.76521849615492e+01 2.68245688256011e-01
3.10631578947368e-02 7.69499511559128e+01 2.66998698335437e-01
3.13368421052632e-02 7.62540678775749e+01 2.65747189305984e-01
3.16105263157895e-02 7.55644776966633e+01 2.64491457858417e-01
3.18842105263158e-02 7.48811237026626e+01 2.63231792639448e-01
3.21578947368421e-02 7.42039494997182e+01 2.61968474473644e-01
3.24315789473684e-02 7.35328992019812e+01 2.60701776435186e-01
3.27052631578947e-02 7.28679174287080e+01 2.59431964487646e-01
3.29789473684211e-02 7.22089493005635e+01 2.58159297393613e-01
3.32526315789474e-02 7.15559404342099e+01 2.56884026624573e-01
3.35263157894737e-02 7.09088369381159e+01 2.55606396980816e-01
3.38000000000000e-02 7.02675854081086e+01 2.54326646628883e-01
3.40736842105263e-02 6.96321329229661e+01 2.53045007277953e-01
3.43473684210526e-02 6.90024270400505e+01 2.51761704350793e-01
3.46210526315789e-02 6.83784157909795e+01 2.50476957148973e-01
3.48947368421053e-02 6.77600476773380e+01 2.49190979013089e-01
3.51684210526316e-02 6.71472716664275e+01 2.47903977352462e-01
3.54421052631579e-02 6.65400371868121e+01 2.46616154174639e-01
3.57157894736842e-02 6.59382941248795e+01 2.45327705975670e-01
3.59894736842105e-02 6.53419928199641e+01 2.44038823632839e-01
3.62631578947368e-02 6.47510840604974e+01 2.42749692920205e-01
3.65368421052632e-02 6.41655190799473e+01 2.41460494515135e-01
3.68105263157895e-02 6.35852495527929e+01 2.40171404128008e-01
3.70842105263158e-02 6.30102275905368e+01 2.38882592627810e-01
3.73578947368421e-02 6.24404057377530e+01 2.37594226163802e-01
3.76315789473684e-02 6.18757369681701e+01 2.36306466172023e-01
3.79052631578947e-02 6.13161746805812e+01 2.35019469828244e-01
3.81789473684211e-02 6.07616726956317e+01 2.33733389931426e-01
3.84526315789474e-02 6.02121852513684e+01 2.32448374790819e-01
3.87263157894737e-02 5.96676669996785e+01 2.31164568668337e-01
3.90000000000000e-02 5.91280730025468e+01 2.29882111768289e-01
3.92736842105263e-02 5.85933587283472e+01 2.28601140337234e-01
3.95473684210526e-02 5.80634800481672e+01 2.27321786761064e-01
3.98210526315789e-02 5.75383932321667e+01 2.26044179659223e-01
4.00947368421053e-02 5.70180549459685e+01 2.24768443976457e-01
4.03684210526316e-02 5.65024222470824e+01 2.23494700973298e-01
4.06421052631579e-02 5.59914525811828e+01 2.22223068610901e-01
4.09157894736842e-02 5.54851037791358e+01 2.20953661434148e-01
4.11894736842105e-02 5.49833340529755e+01 2.19686590459001e-01
4.14631578947368e-02 5.44861019926382e+01 2.18421963549291e-01
4.17368421052632e-02 5.39933665625448e+01 2.17159885395271e-01
4.20105263157895e-02 5.35050870982137e+01 2.15900457589767e-01
4.22842105263158e-02 5.30212233029061e+01 2.14643778702171e-01
4.25578947368421e-02 5.25417352442992e+01 2.13389944350329e-01
4.28315789473684e-02 5.20665833511914e+01 2.12139047182316e-01
4.31052631578947e-02 5.15957284100813e+01 2.10891177211674e-01
4.33789473684211e-02 5.11291315624001e+01 2.09646421703596e-01
4.36526315789474e-02 5.06667543008322e+01 2.08404865065558e-01
4.39263157894737e-02 5.02085584662961e+01 2.07166589176082e-01
4.42000000000000e-02 4.97545062447952e+01 2.05931673357517e-01
4.44736842105263e-02 4.93045601642971e+01 2.04700194436268e-01
4.47473684210526e-02 4.88586830916411e+01 2.03472226801576e-01
4.50210526315789e-02 4.84168382294737e+01 2.02247842462657e-01
4.52947368421053e-02 4.79789891132119e+01 2.01027111104500e-01
4.55684210526316e-02 4.75450996080336e+01 1.99810100063993e-01
4.58421052631579e-02 4.71151339057628e+01 1.98596874619224e-01
4.61157894736842e-02 4.66890565223163e+01 1.97387497881448e-01
4.63894736842105e-02 4.62668322943696e+01 1.96182030691547e-01
4.66631578947368e-02 4.58484263765919e+01 1.94980531904124e-01
4.69368421052632e-02 4.54338042387699e+01 1.93783058356955e-01
4.72105263157895e-02 4.50229316629579e+01 1.92589664918127e-01
4.74842105263158e-02 4.46157747406546e+01 1.91400404531891e-01
4.77578947368421e-02 4.42122998700040e+01 1.90215328263323e-01
4.80315789473684e-02 4.38124737530225e+01 1.89034485271740e-01
4.83052631578947e-02 4.34162633927350e+01 1.87857923065543e-01
4.85789473684211e-02 4.30236360908027e+01 1.86685687400216e-01
4.88526315789474e-02 4.26345594444705e+01 1.85517822180810e-01
4.91263157894737e-02 4.22490013440119e+01 1.84354369712422e-01
4.94000000000000e-02 4.18669299700790e+01 1.83195370668375e-01
4.96736842105263e-02 4.14883137910766e+01 1.82040864128206e-01
4.99473684210526e-02 4.11131215605598e+01 1.80890887614761e-01
5.02210526315789e-02 4.07413223146554e+01 1.79745477130333e-01
5.04947368421053e-02 4.03728853695069e+01 1.78604667191996e-01
5.07684210526316e-02 4.00077803187413e+01 1.77468490803707e-01
5.10421052631579e-02 3.96459770308604e+01 1.76336979678491e-01
5.13157894736842e-02 3.92874456470568e+01 1.75210164143773e-01
5.15894736842105e-02 3.89321565784442e+01 1.74088073050992e-01
5.18631578947368e-02 3.85800805037180e+01 1.72970733994163e-01
5.21368421052632e-02 3.82311883667358e+01 1.71858173277963e-01
5.24105263157895e-02 3.78854513741193e+01 1.70750415947934e-01
5.26842105263158e-02 3.75428409928778e+01 1.69647485819945e-01
5.29578947368421e-02 3.72033289480540e+01 1.68549405508857e-01
5.32315789473684e-02 3.68668872203899e+01 1.67456196400442e-01
5.35052631578947e-02 3.65334880439267e+01 1.66367878848579e-01
5.37789473684211e-02 3.62031039039799e+01 1.65284472087141e-01
5.40526315789474e-02 3.58757075345995e+01 1.64205994145969e-01
5.43263157894737e-02 3.55512719164104e+01 1.63132462044920e-01
5.46000000000000e-02 3.52297702743824e+01 1.62063891762618e-01
5.48736842105263e-02 3.49111760756204e+01 1.61000298261069e-01
5.51473684210526e-02 3.45954630271752e+01 1.59941695509761e-01
5.54210526315789e-02 3.42826050738729e+01 1.58888096509168e-01
5.56947368421053e-02 3.39725763961652e+01 1.57839513313734e-01
5.59684210526316e-02 3.36653514079984e+01 1.56795957004332e-01
5.62421052631579e-02 3.33609047546248e+01 1.55757437861361e-01
5.65157894736842e-02 3.30592113107424e+01 1.54723965283842e-01
5.67894736842105e-02 3.27602461781880e+01 1.53695547712379e-01
5.70631578947368e-02 3.24639846839599e+01 1.52672192799579e-01
5.73368421052632e-02 3.21704023781830e+01 1.51653907380005e-01
5.76105263157895e-02 3.18794750320897e+01 1.50640697489990e-01
5.78842105263158e-02 3.15911786360215e+01 1.49632568386947e-01
5.81578947368421e-02 3.13054893974466e+01 1.48629524568224e-01
5.84315789473684e-02 3.10223837389972e+01 1.47631569744420e-01
5.87052631578947e-02 3.07418382964553e+01 1.46638706993824e-01
5.89789473684211e-02 3.04638299170293e+01 1.45650938687653e-01
5.92526315789474e-02 3.01883356572374e+01 1.44668266418890e-01
5.95263157894737e-02 2.99153327810829e+01 1.43690691154388e-01
5.98000000000000e-02 2.96447987581783e+01 1.42718213206178e-01
6.00736842105263e-02 2.93767112618854e+01 1.41750832247723e-01
6.03473684210526e-02 2.91110481674732e+01 1.40788547329877e-01
6.06210526315789e-02 2.88477875502917e+01 1.39831356896416e-01
6.08947368421053e-02 2.85869076839628e+01 1.38879258799256e-01
6.11684210526316e-02 2.83283870385867e+01 1.37932250273043e-01
6.14421052631579e-02 2.80722042789069e+01 1.36990328071429e-01
6.17157894736842e-02 2.78183382627270e+01 1.36053488398800e-01
6.19894736842105e-02 2.75667680389865e+01 1.35121726845366e-01
6.22631578947368e-02 2.73174728460924e+01 1.34195038521391e-01
6.25368421052632e-02 2.70704321102052e+01 1.33273418030160e-01
6.28105263157895e-02 2.68256254435414e+01 1.32356859481180e-01
6.30842105263158e-02 2.65830326426907e+01 1.31445356503026e-01
6.33578947368421e-02 2.63426336869490e+01 1.30538902255853e-01
6.36315789473684e-02 2.61044087366658e+01 1.29637489407271e-01
6.39052631578947e-02 2.58683381315546e+01 1.28741110254393e-01
6.41789473684211e-02 2.56344023892287e+01 1.27849756660984e-01
6.44526315789474e-02 2.54025822034337e+01 1.26963419997730e-01
6.47263157894737e-02 2.51728584425080e+01 1.26082091262464e-01
6.50000000000000e-02 2.49452121478039e+01 1.25205761054732e-01
6.52736842105263e-02 2.47196245321227e+01 1.24334419586646e-01
6.55473684210526e-02 2.44960769781644e+01 1.23468056693524e-01
6.58210526315789e-02 2.42745510369916e+01 1.22606661844260e-01
6.60947368421053e-02 2.40550284265062e+01 1.21750224151481e-01
6.63684210526316e-02 2.38374910299412e+01 1.20898732348924e-01
6.66421052631579e-02 2.36219208943197e+01 1.20052174899513e-01
6.69157894736842e-02 2.34083002291114e+01 1.19210539938164e-01
6.71894736842105e-02 2.31966114046251e+01 1.18373815217438e-01
6.74631578947368e-02 2.29868369506007e+01 1.17541988214036e-01
6.77368421052632e-02 2.27789595547673e+01 1.16715046105118e-01
6.80105263157895e-02 2.25729620614144e+01 1.15892975777108e-01
6.82842105263158e-02 2.23688274699761e+01 1.15075763834301e-01
6.85578947368421e-02 2.21665389336283e+01 1.14263396607227e-01
6.88315789473684e-02 2.19660797578980e+01 1.13455860131383e-01
6.91052631578947e-02 2.17674333992451e+01 1.12653140244323e-01
6.93789473684211e-02 2.15705834638200e+01 1.11855222533095e-01
6.96526315789474e-02 2.13755137059868e+01 1.11062092284352e-01
6.99263157894737e-02 2.11822080270240e+01 1.10273734580008e-01
7.02000000000000e-02 2.09906504737961e+01 1.09490134275096e-01
7.04736842105263e-02 2.08008252374371e+01 1.08711276005044e-01
7.07473684210526e-02 2.06127166520454e+01 1.07937144192787e-01
7.10210526315789e-02 2.04263091933915e+01 1.07167723055688e-01
7.12947368421053e-02 2.02415874776363e+01 1.06402996612341e-01
7.15684210526316e-02 2.00585362600619e+01 1.05642948662808e-01
7.18421052631579e-02 1.98771404337776e+01 1.04887562874842e-01
7.21157894736842e-02 1.96973850285810e+01 1.04136822736134e-01
7.23894736842105e-02 1.95192552096139e+01 1.03390711508993e-01
7.26631578947368e-02 1.93427362761745e+01 1.02649212315307e-01
7.29368421052632e-02 1.91678136605044e+01 1.01912308116090e-01
7.32105263157895e-02 1.89944729265858e+01 1.01179981717355e-01
7.34842105263158e-02 1.88226997689508e+01 1.00452215775864e-01
7.37578947368421e-02 1.86524800115003e+01 9.97289928046945e-02
7.40315789473684e-02 1.84837996063342e+01 9.90102951547973e-02
7.43052631578947e-02 1.83166446325605e+01 9.82961050926294e-02
7.45789473684211e-02 1.81510012952422e+01 9.75864047563210e-02
7.48526315789474e-02 1.79868559241623e+01 9.68811761141113e-02
7.51263157894737e-02 1.78241949727277e+01 9.61804010408376e-02
7.54000000000000e-02 1.76630050168518e+01 9.54840612988975e-02
7.56736842105263e-02 1.75032727538463e+01 9.47921385430870e-02
7.59473684210526e-02 1.73449850013232e+01 9.41046143253420e-02
7.62210526315789e-02 1.71881286961075e+01 9.34214700993333e-02
7.64947368421053e-02 1.70326908931583e+01 9.27426872249778e-02
7.67684210526316e-02 1.68786587645011e+01 9.20682469513924e-02
7.70421052631579e-02 1.67260195981410e+01 9.13981304859946e-02
7.73157894736842e-02 1.65747607970979e+01 9.07323189547193e-02
7.75894736842105e-02 1.64248698782821e+01 9.00707933642927e-02
7.78631578947368e-02 1.62763344714925e+01 8.94135346703261e-02
7.81368421052632e-02 1.61291423183956e+01 8.87605237597985e-02
7.84105263157895e-02 1.59832812715140e+01 8.81117414549428e-02
7.86842105263158e-02 1.58387392932241e+01 8.74671685170417e-02
7.89578947368421e-02 1.56955044547620e+01 8.68267856501178e-02
7.92315789473684e-02 1.55535649352399e+01 8.61905734850642e-02
7.95052631578947e-02 1.54129090206447e+01 8.55585126419773e-02
7.97789473684210e-02 1.52735251029477e+01 8.49305836936784e-02
8.00526315789474e-02 1.51354016790696e+01 8.43067671311191e-02
8.03263157894737e-02 1.49985273499574e+01 8.36870434247954e-02
8.06000000000000e-02 1.48628908196434e+01 8.30713930085068e-02
8.08736842105263e-02 1.47284808943129e+01 8.24597962825297e-02
8.11473684210526e-02 1.45952864813806e+01 8.18522336167154e-02
8.14210526315789e-02 1.44632965885748e+01 8.12486853535057e-02
8.16947368421053e-02 1.43325003230308e+01 8.06491318108900e-02
8.19684210526316e-02 1.42028868903914e+01 8.00535532677925e-02
8.22421052631579e-02 1.40744455938942e+01 7.94619300196643e-02
8.25157894736842e-02 1.39471658335556e+01 7.88742423453892e-02
8.27894736842105e-02 1.38210371052286e+01 7.82904704758963e-02
8.30631578947368e-02 1.36960489997586e+01 7.77105946489290e-02
8.33368421052632e-02 1.35721912021245e+01 7.71345950941362e-02
8.36105263157895e-02 1.34494534905871e+01 7.65624520356020e-02
8.38842105263158e-02 1.33278257358458e+01 7.59941456942977e-02
8.41578947368421e-02 1.32072979002025e+01 7.54296562904587e-02
8.44315789473684e-02 1.30878600367333e+01 7.48689640300508e-02
8.47052631578947e-02 1.29695022884476e+01 7.43120491549783e-02
8.49789473684211e-02 1.28522148875348e+01 7.37588919127266e-02
8.52526315789474e-02 1.27359881544976e+01 7.32094725276119e-02
8.55263157894737e-02 1.26208124973735e+01 7.26637712502555e-02
8.58000000000000e-02 1.25066784109432e+01 7.21217683437790e-02
8.60736842105263e-02 1.23935764759464e+01 7.15834440858368e-02
8.63473684210526e-02 1.22814973583039e+01 7.10487787705987e-02
