Energy (eV)          EEDF (eV^-(3/2))     First Anisotropy
7.67647058823529e-02 5.36571754294775e-02 4.84500998360624e-05
2.30294117647059e-01 5.25793945406587e-02 7.94685372815543e-05
3.83823529411765e-01 5.15232624180142e-02 1.03496125842234e-04
5.37352941176471e-01 5.04883442183169e-02 1.20913426618311e-04
6.90882352941177e-01 4.94742138260589e-02 1.34763196714782e-04
8.44411764705882e-01 4.84804536885794e-02 1.46219850685162e-04
9.97941176470588e-01 4.75066546403833e-02 1.55903076147801e-04
1.15147058823529e+00 4.65524157371083e-02 1.64194124219057e-04
1.30500000000000e+00 4.56173440839608e-02 1.71350430297288e-04
1.45852941176471e+00 4.47010546726507e-02 1.77557118245129e-04
1.61205882352941e+00 4.38031702423107e-02 1.82953520482406e-04
1.76558823529412e+00 4.29233211023227e-02 1.87648193084854e-04
1.91911764705882e+00 4.20611449878531e-02 1.91728036300036e-04
2.07264705882353e+00 4.12162869107959e-02 1.95264147436456e-04
2.22617647058824e+00 4.03883990135592e-02 1.98315743867784e-04
2.37970588235294e+00 3.95771404223556e-02 2.00932887647302e-04
2.53323529411765e+00 3.87821771175488e-02 2.03158436835060e-04
2.68676470588235e+00 3.80031817849649e-02 2.05029478505879e-04
2.84029411764706e+00 3.72398336849809e-02 2.06578403337026e-04
2.99382352941176e+00 3.64918185205523e-02 2.07833728664087e-04
3.14735294117647e+00 3.57588283053946e-02 2.08820738022946e-04
3.30088235294118e+00 3.50405612444675e-02 2.09561986917782e-04
3.45441176470588e+00 3.43367216021612e-02 2.10077707631242e-04
3.60794117647059e+00 3.36470195831387e-02 2.10386136243755e-04
3.76147058823529e+00 3.29711712130185e-02 2.10503780967712e-04
3.91500000000000e+00 3.23088982214707e-02 2.10445643957677e-04
4.06852941176471e+00 3.16599279260295e-02 2.10225405835609e-04
4.22205882352941e+00 3.10239931247476e-02 2.09855581462959e-04
4.37558823529412e+00 3.04008319811017e-02 2.09347651977563e-04
4.52911764705882e+00 2.97901879179243e-02 2.08712176808695e-04
4.68264705882353e+00 2.91918095117750e-02 2.07958890365117e-04
4.83617647058824e+00 2.86054503894192e-02 2.07096785540954e-04
4.98970588235294e+00 2.80308691252357e-02 2.06134185856372e-04
5.14323529411765e+00 2.74678291453417e-02 2.05078808926120e-04
5.29676470588235e+00 2.69160986265630e-02 2.03937822174588e-04
5.45029411764706e+00 2.63754504022187e-02 2.02717891420002e-04
5.60382352941176e+00 2.58456618686052e-02 2.01425224362222e-04
5.75735294117647e+00 2.53265148924322e-02 2.00065608790279e-04
5.91088235294118e+00 2.48177957237781e-02 1.98644447065339e-04
6.06441176470588e+00 2.43192949052432e-02 1.97166787005714e-04
6.21794117647059e+00 2.38308071866776e-02 1.95637349180920e-04
6.37147058823529e+00 2.33521314406735e-02 1.94060551839460e-04
6.52500000000000e+00 2.28830705797586e-02 1.92440533414004e-04
6.67852941176471e+00 2.24234314745595e-02 1.90781172632786e-04
6.83205882352941e+00 2.19730248763853e-02 1.89086107123896e-04
6.98558823529412e+00 2.15316653371558e-02 1.87358750372196e-04
7.13911764705882e+00 2.10991711337786e-02 1.85602306833613e-04
7.29264705882353e+00 2.06753641933307e-02 1.83819786044781e-04
7.44617647058824e+00 2.02600700197399e-02 1.82014015544815e-04
7.59970588235294e+00 1.98531176214054e-02 1.80187652514212e-04
7.75323529411765e+00 1.94543394424239e-02 1.78343194767554e-04
7.90676470588235e+00 1.90635712919351e-02 1.76482990900864e-04
8.06029411764706e+00 1.86806522770847e-02 1.74609249361811e-04
8.21382352941177e+00 1.83054247367838e-02 1.72724047127255e-04
8.36735294117647e+00 1.79377341763545e-02 1.70829337486149e-04
8.52088235294118e+00 1.75774292052585e-02 1.68926957504681e-04
8.67441176470588e+00 1.72243614733957e-02 1.67018634973293e-04
8.82794117647059e+00 1.68783856104892e-02 1.65105994610343e-04
8.98147058823529e+00 1.65393591662314e-02 1.63190564046823e-04
9.13500000000000e+00 1.62071425516338e-02 1.61273779399922e-04
9.28852941176471e+00 1.58815989812041e-02 1.59356990311458e-04
9.44205882352941e+00 1.55625944176920e-02 1.57441464863824e-04
9.59558823529412e+00 1.52499975158141e-02 1.55528394189196e-04
9.74911764705882e+00 1.49436795685436e-02 1.53618896568949e-04
9.90264705882353e+00 1.46435144541190e-02 1.51714021450969e-04
1.00561764705882e+01 1.43493785841145e-02 1.49814753284558e-04
1.02097058823529e+01 1.40611508517072e-02 1.47922014662229e-04
1.03632352941176e+01 1.37787125846770e-02 1.46036669904876e-04
1.05167647058824e+01 1.35019474933325e-02 1.44159528387288e-04
1.06702941176471e+01 1.32307416238213e-02 1.42291347034838e-04
1.08238235294118e+01 1.29649833112255e-02 1.40432833230207e-04
1.09773529411765e+01 1.27045631335770e-02 1.38584647409416e-04
1.11308823529412e+01 1.24493738668053e-02 1.36747405800456e-04
1.12844117647059e+01 1.21993104383919e-02 1.34921681847110e-04
1.14379411764706e+01 1.19542698908237e-02 1.33108008993557e-04
1.15914705882353e+01 1.17141513323581e-02 1.31306883369142e-04
1.17450000000000e+01 1.14788558978080e-02 1.29518764802171e-04
1.18985294117647e+01 1.12482867078333e-02 1.27744078988309e-04
1.20520588235294e+01 1.10223488290549e-02 1.25983219241750e-04
1.22055882352941e+01 1.08009492349689e-02 1.24236548155645e-04
1.23591176470588e+01 1.05839967676424e-02 1.22504399411086e-04
1.25126470588235e+01 1.03714020984943e-02 1.20787078551188e-04
1.26661764705882e+01 1.01630776966656e-02 1.19084864880835e-04
1.28197058823529e+01 9.95893778773403e-03 1.17398013310413e-04
1.29732352941176e+01 9.75889832017994e-03 1.15726754871627e-04
1.31267647058824e+01 9.56287693077887e-03 1.14071298187018e-04
1.32802941176471e+01 9.37079291068688e-03 1.12431830620245e-04
1.34338235294118e+01 9.18256717221607e-03 1.10808519370245e-04
1.35873529411765e+01 8.99812221626806e-03 1.09201512512384e-04
1.37408823529412e+01 8.81738210042494e-03 1.07610940173116e-04
1.38944117647059e+01 8.64027240641823e-03 1.06036914904641e-04
1.40479411764706e+01 8.46672021334389e-03 1.04479532962390e-04
1.42014705882353e+01 8.29665406371301e-03 1.02938875552300e-04
1.43550000000000e+01 8.13000393536271e-03 1.01415009042767e-04
1.45085294117647e+01 7.96670121262456e-03 9.99079859401866e-05
1.46620588235294e+01 7.80667865807421e-03 9.84178456244450e-05
1.48155882352941e+01 7.64987038484836e-03 9.69446150501380e-05
1.49691176470588e+01 7.49621182951572e-03 9.54883095660495e-05
1.51226470588235e+01 7.34563972450700e-03 9.40489330894146e-05
1.52761764705882e+01 7.19809207507777e-03 9.26264790236704e-05
1.54297058823529e+01 7.05350813071743e-03 9.12209311585869e-05
1.55832352941176e+01 6.91182836117638e-03 8.98322637324875e-05
1.57367647058824e+01 6.77299443195531e-03 8.84604421233585e-05
1.58902941176471e+01 6.63694918028537e-03 8.71054233492336e-05
1.60438235294118e+01 6.50363659159534e-03 8.57671565458144e-05
1.61973529411765e+01 6.37300177644681e-03 8.44455834224337e-05
1.63508823529412e+01 6.24499094793428e-03 8.31406388169146e-05
1.65044117647059e+01 6.11955139878677e-03 8.18522507419838e-05
1.66579411764706e+01 5.99663148196226e-03 8.05803410282922e-05
1.68114705882353e+01 5.87618058704709e-03 7.93248259579271e-05
1.69650000000000e+01 5.75814912021018e-03 7.80856162347526e-05
1.71185294117647e+01 5.64248848378297e-03 7.68626174590216e-05
1.72720588235294e+01 5.52915105625070e-03 7.56557304542546e-05
1.74255882352941e+01 5.41809017264536e-03 7.44648515793771e-05
1.75791176470588e+01 5.30926010533160e-03 7.32898731254331e-05
1.77326470588235e+01 5.20261604458333e-03 7.21306832973683e-05
1.78861764705882e+01 5.09811408195117e-03 7.09871666880140e-05
1.80397058823529e+01 4.99571119033557e-03 6.98592047467903e-05
1.81932352941176e+01 4.89536520689781e-03 6.87466757064180e-05
1.83467647058824e+01 4.79703481570012e-03 6.76494549258256e-05
1.85002941176471e+01 4.70067953069364e-03 6.65674151135631e-05
1.86538235294118e+01 4.60625967905053e-03 6.55004265410345e-05
1.88073529411765e+01 4.51373638482845e-03 6.44483572460108e-05
1.89608823529412e+01 4.42307155296391e-03 6.34110733056102e-05
1.91144117647059e+01 4.33422785312733e-03 6.23884387788413e-05
1.92679411764706e+01 4.24716870575550e-03 6.13803160453788e-05
1.94214705882353e+01 4.16185826556419e-03 6.03865661418799e-05
1.95750000000000e+01 4.07826140727296e-03 5.94070486655131e-05
1.97285294117647e+01 3.99634371114258e-03 5.84416220123830e-05
1.98820588235294e+01 3.91607144880350e-03 5.74901435219310e-05
2.00355882352941e+01 3.83741156936901e-03 5.65524696145464e-05
2.01891176470588e+01 3.76033168582669e-03 5.56284559879421e-05
2.03426470588235e+01 3.68480006133597e-03 5.47179575419773e-05
2.04961764705882e+01 3.61078559728182e-03 5.38208286312741e-05
2.06497058823529e+01 3.53825781933089e-03 5.29369233168776e-05
2.08032352941176e+01 3.46718686527034e-03 5.20660952620178e-05
2.09567647058824e+01 3.39754347271258e-03 5.12081979050513e-05
2.11102941176471e+01 3.32929896704650e-03 5.03630845555811e-05
2.12638235294118e+01 3.26242524963196e-03 4.95306084858168e-05
2.14173529411765e+01 3.19689478623019e-03 4.87106230173824e-05
2.15708823529412e+01 3.13268059566692e-03 4.79029816561421e-05
2.17244117647059e+01 3.06975623843684e-03 4.71075380093071e-05
2.18779411764706e+01 3.00809580669098e-03 4.63241459673033e-05
2.20314705882353e+01 2.94767391268170e-03 4.55526598856778e-05
2.21850000000000e+01 2.88846567861056e-03 4.47929344811096e-05
2.23385294117647e+01 2.83044672638509e-03 4.40448249512291e-05
2.24920588235294e+01 2.77359316758166e-03 4.33081870334112e-05
2.26455882352941e+01 2.71788159360993e-03 4.25828770603690e-05
2.27991176470588e+01 2.66328906607455e-03 4.18687520562089e-05
2.29526470588235e+01 2.60979310709996e-03 4.11656696527274e-05
2.31061764705882e+01 2.55737169077855e-03 4.04734882253170e-05
2.32597058823529e+01 2.50600323338727e-03 3.97920670294119e-05
2.34132352941176e+01 2.45566658474304e-03 3.91212661008148e-05
2.35667647058824e+01 2.40634101949437e-03 3.84609463417434e-05
2.37202941176471e+01 2.35800622858787e-03 3.78109695567004e-05
2.38738235294118e+01 2.31064231090674e-03 3.71711984861061e-05
2.40273529411765e+01 2.26422976507654e-03 3.65414968377946e-05
2.41808823529412e+01 2.21874948143581e-03 3.59217293515443e-05
2.43344117647059e+01 2.17418273398682e-03 3.53117617187850e-05
2.44879411764706e+01 2.13051117323742e-03 3.47114606802228e-05
2.46414705882353e+01 2.08771681808502e-03 3.41206941243118e-05
2.47950000000000e+01 2.04578204860317e-03 3.35393309952095e-05
2.49485294117647e+01 2.00468959878671e-03 3.29672413511577e-05
2.51020588235294e+01 1.96442254944290e-03 3.24042963827453e-05
2.52555882352941e+01 1.92496432122521e-03 3.18503684296860e-05
2.54091176470588e+01 1.88629866780699e-03 3.13053310253986e-05
2.55626470588235e+01 1.84840966904562e-03 3.07690588216046e-05
2.57161764705882e+01 1.81128172487453e-03 3.02414276608433e-05
2.58697058823529e+01 1.77489954842604e-03 2.97223146499580e-05
2.60232352941176e+01 1.73924815989105e-03 2.92115980757201e-05
2.61767647058824e+01 1.70431288035134e-03 2.87091574455647e-05
2.63302941176471e+01 1.67007932573557e-03 2.82148734951978e-05
2.64838235294118e+01 1.63653340089719e-03 2.77286281951912e-05
2.66373529411765e+01 1.60366129381077e-03 2.72503047566163e-05
2.67908823529412e+01 1.57144946988516e-03 2.67797876593848e-05
2.69444117647059e+01 1.53988466627497e-03 2.63169625835769e-05
2.70979411764706e+01 1.50895388677274e-03 2.58617164609161e-05
2.72514705882353e+01 1.47864439609939e-03 2.54139375272501e-05
2.74050000000000e+01 1.44894371478211e-03 2.49735152472350e-05
2.75585294117647e+01 1.41983961401609e-03 2.45403403406180e-05
2.77120588235294e+01 1.39132011062953e-03 2.41143047819057e-05
2.78655882352941e+01 1.36337346214978e-03 2.36953017993944e-05
2.80191176470588e+01 1.33598816196855e-03 2.32832258933073e-05
2.81726470588235e+01 1.30915293450998e-03 2.28779727733460e-05
2.83261764705882e+01 1.28285673087518e-03 2.24794393963294e-05
2.84797058823529e+01 1.25708872400139e-03 2.20875240048202e-05
2.86332352941176e+01 1.23183830430286e-03 2.17021260595861e-05
2.87867647058824e+01 1.20709507530255e-03 2.13231462567308e-05
2.89402941176471e+01 1.18284884935142e-03 2.09504865227762e-05
2.90938235294118e+01 1.15908964343397e-03 2.05840500093379e-05
2.92473529411765e+01 1.13580767505785e-03 2.02237410874200e-05
2.94008823529412e+01 1.11299335822602e-03 1.98694653573316e-05
2.95544117647059e+01 1.09063729941513e-03 1.95211295932573e-05
2.97079411764706e+01 1.06873029393562e-03 1.91786417693037e-05
2.98614705882353e+01 1.04726332191050e-03 1.88419110864774e-05
3.00150000000000e+01 1.02622754463991e-03 1.85108479134822e-05
3.01685294117647e+01 1.00561430096185e-03 1.81853637964278e-05
3.03220588235294e+01 9.85415103686119e-04 1.78653714507660e-05
3.04755882352941e+01 9.65621636099900e-04 1.75507847529992e-05
3.06291176470588e+01 9.46225748543421e-04 1.72415187455405e-05
3.07826470588235e+01 9.27219454993409e-04 1.69374895871803e-05
3.09361764705882e+01 9.08594929960953e-04 1.66386145715379e-05
3.10897058823529e+01 8.90344505080591e-04 1.63448121463793e-05
3.12432352941176e+01 8.72460666016927e-04 1.60560018611961e-05
3.13967647058824e+01 8.54936049370722e-04 1.57721043723067e-05
3.15502941176471e+01 8.37763439647080e-04 1.54930414331996e-05
3.17038235294118e+01 8.20935766284669e-04 1.52187358847616e-05
3.18573529411765e+01 8.04446100744478e-04 1.49491116454048e-05
3.20108823529412e+01 7.88287653657093e-04 1.46840937119581e-05
3.21644117647059e+01 7.72453771978625e-04 1.44236081163512e-05
3.23179411764706e+01 7.56937936399621e-04 1.41675819377452e-05
3.24714705882353e+01 7.41733758510334e-04 1.39159433154439e-05
3.26250000000000e+01 7.26834978221348e-04 1.36686214034458e-05
3.27785294117647e+01 7.12235461186064e-04 1.34255463719017e-05
3.29320588235294e+01 6.97929196274994e-04 1.31866493966386e-05
3.30855882352941e+01 6.83910293100783e-04 1.29518626486572e-05
3.32391176470588e+01 6.70172979592920e-04 1.27211192926934e-05
3.33926470588235e+01 6.56711599581313e-04 1.24943534489180e-05
3.35461764705882e+01 6.43520610588842e-04 1.22715002009709e-05
3.36997058823529e+01 6.30594581426062e-04 1.20524956047028e-05
3.38532352941176e+01 6.17928189996718e-04 1.18372766482514e-05
3.40067647058824e+01 6.05516221106461e-04 1.16257812513296e-05
3.41602941176471e+01 5.93353564315533e-04 1.14179482545865e-05
3.43138235294118e+01 5.81435211834688e-04 1.12137174089884e-05
3.44673529411765e+01 5.69756256463275e-04 1.10130293652293e-05
3.46208823529412e+01 5.58311889568771e-04 1.08158256705707e-05
3.47744117647059e+01 5.47097399075037e-04 1.06220487356637e-05
3.49279411764706e+01 5.36108167619245e-04 1.04316418392210e-05
3.50814705882353e+01 5.25339670552201e-04 1.02445491333145e-05
3.52350000000000e+01 5.14787474108750e-04 1.00607156090093e-05
3.53885294117647e+01 5.04447233582226e-04 9.88008709402550e-06
3.55420588235294e+01 4.94314691535603e-04 9.70261024235500e-06
3.56955882352941e+01 4.84385676048565e-04 9.52823252393605e-06
3.58491176470588e+01 4.74656098999770e-04 9.35690222058885e-06
3.60026470588235e+01 4.65121954357453e-04 9.18856839688430e-06
3.61561764705882e+01 4.55779316609723e-04 9.02318090268432e-06
3.63097058823529e+01 4.46624339067351e-04 8.86069037623750e-06
3.64632352941176e+01 4.37653252307352e-04 8.70104821415458e-06
3.66167647058824e+01 4.28862362620983e-04 8.54420656818997e-06
3.67702941176471e+01 4.20248050492897e-04 8.39011833532035e-06
3.69238235294118e+01 4.11806769110895e-04 8.23873714790033e-06
3.70773529411765e+01 4.03535042905567e-04 8.09001736389807e-06
3.72308823529412e+01 3.95429466119275e-04 7.94391406226795e-06
3.73844117647059e+01 3.87486701382889e-04 7.80038301787705e-06
3.75379411764706e+01 3.79703478405612e-04 7.65938070234157e-06
3.76914705882353e+01 3.72076592563576e-04 7.52086428534649e-06
3.78450000000000e+01 3.64602903602358e-04 7.38479160892940e-06
3.79985294117647e+01 3.57279334344022e-04 7.25112118369068e-06
3.81520588235294e+01 3.50102869420142e-04 7.11981217956131e-06
3.83055882352941e+01 3.43070554030278e-04 6.99082441666000e-06
3.84591176470588e+01 3.36179492725377e-04 6.86411836048006e-06
3.86126470588235e+01 3.29426848198326e-04 6.73965509998397e-06
3.87661764705882e+01 3.22809840168371e-04 6.61739634739954e-06
3.89197058823529e+01 3.16325744182943e-04 6.49730443844261e-06
3.90732352941177e+01 3.09971890513993e-04 6.37934230993645e-06
3.92267647058824e+01 3.03745663058770e-04 6.26347349580312e-06
3.93802941176471e+01 2.97644498262670e-04 6.14966211851336e-06
3.95338235294118e+01 2.91665884063753e-04 6.03787288063003e-06
3.96873529411765e+01 2.85807358858430e-04 5.92807105644569e-06
3.98408823529412e+01 2.80066510487932e-04 5.82022248717672e-06
3.99944117647059e+01 2.74440975231245e-04 5.71429356219605e-06
4.01479411764706e+01 2.68928436874201e-04 5.61025121804119e-06
4.03014705882353e+01 2.63526625712851e-04 5.50806293779143e-06
4.04550000000000e+01 2.58233317633492e-04 5.40769673196814e-06
4.06085294117647e+01 2.53046333196912e-04 5.30912113448115e-06
4.07620588235294e+01 2.47963536741048e-04 5.21230519488310e-06
4.09155882352941e+01 2.42982835501664e-04 5.11721847071691e-06
4.10691176470588e+01 2.38102178750677e-04 5.02383102286269e-06
4.12226470588235e+01 2.33319556940341e-04 4.93211339920000e-06
4.13761764705882e+01 2.28633000910755e-04 4.84203663317463e-06
4.15297058823529e+01 2.24040581043652e-04 4.75357224268756e-06
4.16832352941177e+01 2.19540406479903e-04 4.66669221352053e-06
4.18367647058824e+01 2.15130624340982e-04 4.58136899538069e-06
4.19902941176471e+01 2.10809418966069e-04 4.49757549486082e-06
4.21438235294118e+01 2.06575011164486e-04 4.41528506848967e-06
4.22973529411765e+01 2.02425657483142e-04 4.33447151587279e-06
4.24508823529412e+01 1.98359649488687e-04 4.25510907529974e-06
4.26044117647059e+01 1.94375313054858e-04 4.17717240979552e-06
4.27579411764706e+01 1.90471007701305e-04 4.10063660539254e-06
4.29114705882353e+01 1.86645125889601e-04 4.02547716967995e-06
4.30650000000000e+01 1.82896092371020e-04 3.95167001769864e-06
4.32185294117647e+01 1.79222363537956e-04 3.87919146818141e-06
4.33720588235294e+01 1.75622426788362e-04 3.80801823728204e-06
4.35255882352941e+01 1.72094799902966e-04 3.73812743238973e-06
4.36791176470588e+01 1.68638030434984e-04 3.66949654802443e-06
4.38326470588235e+01 1.65250695104464e-04 3.60210345372740e-06
4.39861764705882e+01 1.61931399235519e-04 3.53592639220735e-06
4.41397058823529e+01 1.58678776158493e-04 3.47094397772826e-06
4.42932352941177e+01 1.55491486655238e-04 3.40713518389583e-06
4.44467647058824e+01 1.52368218407717e-04 3.34447934012837e-06
4.46002941176471e+01 1.49307685457669e-04 3.28295612602778e-06
4.47538235294118e+01 1.46308627677142e-04 3.22254556583012e-06
4.49073529411765e+01 1.43369810249655e-04 3.16322802293530e-06
4.50608823529412e+01 1.40490023161776e-04 3.10498419614908e-06
4.52144117647059e+01 1.37668080698756e-04 3.04779510937232e-06
4.53679411764706e+01 1.34902820975097e-04 2.99164210970699e-06
4.55214705882353e+01 1.32193105437111e-04 2.93650686576890e-06
4.56750000000000e+01 1.29537818400586e-04 2.88237135731613e-06
4.58285294117647e+01 1.26935866591421e-04 2.82921787200426e-06
4.59820588235294e+01 1.24386178695481e-04 2.77702900042989e-06
4.61355882352941e+01 1.21887704917510e-04 2.72578763124674e-06
4.62891176470588e+01 1.19439416548886e-04 2.67547694772746e-06
4.64426470588235e+01 1.17040305538962e-04 2.62608041883183e-06
4.65961764705882e+01 1.14689384095560e-04 2.57758179734356e-06
4.67497058823529e+01 1.12385684262487e-04 2.52996511818638e-06
4.69032352941176e+01 1.10128257526332e-04 2.48321468945943e-06
4.70567647058824e+01 1.07916174425927e-04 2.43731508945941e-06
4.72102941176471e+01 1.05748524169660e-04 2.39225116227008e-06
4.73638235294118e+01 1.03624414260468e-04 2.34800801341845e-06
4.75173529411765e+01 1.01542970128364e-04 2.30457100559641e-06
4.76708823529412e+01 9.95033347703495e-05 2.26192575557323e-06
4.78244117647059e+01 9.75046683934260e-05 2.22005812660639e-06
4.79779411764706e+01 9.55461480813889e-05 2.17895422665869e-06
4.81314705882353e+01 9.36269674432518e-05 2.13860040676864e-06
4.82850000000000e+01 9.17463362855421e-05 2.09898325345071e-06
4.84385294117647e+01 8.99034802869496e-05 2.06008958601320e-06
