Energy (eV)          EEDF (eV^-(3/2))     First Anisotropy
3.26470588235294e-04 6.88098208263291e+01 3.42166177706927e-02
9.79411764705883e-04 6.81148890802739e+01 5.64056737648183e-02
1.63235294117647e-03 6.74269756661452e+01 7.42088187624253e-02
2.28529411764706e-03 6.67460097023309e+01 8.75809814935055e-02
2.93823529411765e-03 6.60719210246037e+01 9.86076107859753e-02
3.59117647058824e-03 6.54046401787697e+01 1.08080991716956e-01
4.24411764705882e-03 6.47440984090053e+01 1.16413011100990e-01
4.89705882352941e-03 6.40902276553599e+01 1.23853505540300e-01
5.55000000000000e-03 6.34429605460532e+01 1.30568899488226e-01
6.20294117647059e-03 6.28022303880184e+01 1.36677329508045e-01
6.85588235294118e-03 6.21679711631772e+01 1.42266622470259e-01
7.50882352941177e-03 6.15401175189921e+01 1.47404414651627e-01
8.16176470588235e-03 6.09186047635352e+01 1.52144263133481e-01
8.81470588235294e-03 6.03033688586648e+01 1.56529543892893e-01
9.46764705882353e-03 5.96943464120854e+01 1.60596048923172e-01
1.01205882352941e-02 5.90914746721629e+01 1.64373779596133e-01
1.07735294117647e-02 5.84946915220140e+01 1.67888222714547e-01
1.14264705882353e-02 5.79039354694383e+01 1.71161281521737e-01
1.20794117647059e-02 5.73191456449431e+01 1.74211970126157e-01
1.27323529411765e-02 5.67402617938320e+01 1.77056941411310e-01
1.33852941176471e-02 5.61672242725806e+01 1.79710895227196e-01
1.40382352941176e-02 5.55999740345867e+01 1.82186898286853e-01
1.46911764705882e-02 5.50384526323154e+01 1.84496638447730e-01
1.53441176470588e-02 5.44826022085283e+01 1.86650629467423e-01
1.59970588235294e-02 5.39323654924181e+01 1.88658377462268e-01
1.66500000000000e-02 5.33876857872667e+01 1.90528517324068e-01
1.73029411764706e-02 5.28485069711276e+01 1.92268925708068e-01
1.79558823529412e-02 5.23147734888452e+01 1.93886815585574e-01
1.86088235294118e-02 5.17864303480712e+01 1.95388815777764e-01
1.92617647058824e-02 5.12634231083220e+01 1.96781038123444e-01
1.99147058823529e-02 5.07456978807058e+01 1.98069134738722e-01
2.05676470588235e-02 5.02332013205603e+01 1.99258347311704e-01
2.12205882352941e-02 4.97258806234270e+01 2.00353549599348e-01
2.18735294117647e-02 4.92236835151943e+01 2.01359284082965e-01
2.25264705882353e-02 4.87265582511733e+01 2.02279793891153e-01
2.31794117647059e-02 4.82344536092454e+01 2.03119050945784e-01
2.38323529411765e-02 4.77473188846126e+01 2.03880780476359e-01
2.44852941176471e-02 4.72651038857568e+01 2.04568482848873e-01
2.51382352941177e-02 4.67877589256283e+01 2.05185452693049e-01
2.57911764705882e-02 4.63152348202054e+01 2.05734795896510e-01
2.64441176470588e-02 4.58474828821957e+01 2.06219444919000e-01
2.70970588235294e-02 4.53844549170512e+01 2.06642172479213e-01
2.77500000000000e-02 4.49261032148575e+01 2.07005603691602e-01
2.84029411764706e-02 4.44723805485946e+01 2.07312226983500e-01
2.90558823529412e-02 4.40232401682025e+01 2.07564404094351e-01
2.97088235294118e-02 4.35786357966712e+01 2.07764379109841e-01
3.03617647058824e-02 4.31385216225266e+01 2.07914286524982e-01
3.10147058823529e-02 4.27028522978823e+01 2.08016158569950e-01
3.16676470588235e-02 4.22715829328310e+01 2.08071932022601e-01
3.23205882352941e-02 4.18446690916214e+01 2.08083454417692e-01
3.29735294117647e-02 4.14220667856635e+01 2.08052489609972e-01
3.36264705882353e-02 4.10037324714351e+01 2.07980722870435e-01
3.42794117647059e-02 4.05896230451677e+01 2.07869765723776e-01
3.49323529411765e-02 4.01796958384160e+01 2.07721160248332e-01
3.55852941176471e-02 3.97739086143449e+01 2.07536383182887e-01
3.62382352941177e-02 3.93722195612887e+01 2.07316849580725e-01
3.68911764705882e-02 3.89745872905513e+01 2.07063916185336e-01
3.75441176470588e-02 3.85809708314360e+01 2.06778884675883e-01
3.81970588235294e-02 3.81913296276372e+01 2.06463004667844e-01
3.88500000000000e-02 3.78056235311970e+01 2.06117476401881e-01
3.95029411764706e-02 3.74238128002502e+01 2.05743453241626e-01
4.01558823529412e-02 3.70458580942965e+01 2.05342044110813e-01
4.08088235294118e-02 3.66717204707008e+01 2.04914315756928e-01
4.14617647058824e-02 3.63013613790069e+01 2.04461294774150e-01
4.21147058823529e-02 3.59347426586540e+01 2.03983969491173e-01
4.27676470588235e-02 3.55718265344745e+01 2.03483291841389e-01
4.34205882352941e-02 3.52125756133027e+01 2.02960179106317e-01
4.40735294117647e-02 3.48569528786147e+01 2.02415515467023e-01
4.47264705882353e-02 3.45049216882344e+01 2.01850153457534e-01
4.53794117647059e-02 3.41564457700437e+01 2.01264915447960e-01
4.60323529411765e-02 3.38114892182502e+01 2.00660594928482e-01
4.66852941176471e-02 3.34700164901252e+01 2.00037957824125e-01
4.73382352941177e-02 3.31319924010079e+01 1.99397743633963e-01
4.79911764705882e-02 3.27973821220254e+01 1.98740666502584e-01
4.86441176470588e-02 3.24661511760533e+01 1.98067416321267e-01
4.92970588235294e-02 3.21382654345623e+01 1.97378659760560e-01
4.99500000000000e-02 3.18136911128910e+01 1.96675041174882e-01
5.06029411764706e-02 3.14923947679856e+01 1.95957183455523e-01
5.12558823529412e-02 3.11743432945444e+01 1.95225688922385e-01
5.19088235294118e-02 3.08595039219705e+01 1.94481140161514e-01
5.25617647058824e-02 3.05478442098935e+01 1.93724100752580e-01
5.32147058823529e-02 3.02393320459379e+01 1.92955115956246e-01
5.38676470588235e-02 2.99339356420405e+01 1.92174713445545e-01
5.45205882352941e-02 2.96316235315088e+01 1.91383403993663e-01
5.51735294117647e-02 2.93323645647717e+01 1.90581682065551e-01
5.58264705882353e-02 2.90361279071853e+01 1.89770026377826e-01
5.64794117647059e-02 2.87428830355131e+01 1.88948900521047e-01
5.71323529411765e-02 2.84525997347834e+01 1.88118753468080e-01
5.77852941176471e-02 2.81652480954732e+01 1.87280020138492e-01
5.84382352941177e-02 2.78807985095229e+01 1.86433121861532e-01
5.90911764705882e-02 2.75992216681963e+01 1.85578466815004e-01
5.97441176470588e-02 2.73204885587561e+01 1.84716450512813e-01
6.03970588235294e-02 2.70445704617478e+01 1.83847456264108e-01
6.10500000000000e-02 2.67714389472107e+01 1.82971855557782e-01
6.17029411764706e-02 2.65010658725853e+01 1.82090008427216e-01
6.23558823529412e-02 2.62334233795325e+01 1.81202263863612e-01
6.30088235294118e-02 2.59684838913154e+01 1.80308960205232e-01
6.36617647058824e-02 2.57062201091953e+01 1.79410425459225e-01
6.43147058823530e-02 2.54466050103876e+01 1.78506977607050e-01
6.49676470588235e-02 2.51896118450188e+01 1.77598924957704e-01
6.56205882352941e-02 2.49352141336031e+01 1.76686566480358e-01
6.62735294117647e-02 2.46833856636115e+01 1.75770192075583e-01
6.69264705882353e-02 2.44341004874793e+01 1.74850082832803e-01
6.75794117647059e-02 2.41873329196935e+01 1.73926511346357e-01
6.82323529411765e-02 2.39430575341475e+01 1.72999741953595e-01
6.88852941176471e-02 2.37012491617317e+01 1.72070031024963e-01
6.95382352941177e-02 2.34618828871023e+01 1.71137627184780e-01
7.01911764705882e-02 2.32249340467570e+01 1.70202771520802e-01
7.08441176470588e-02 2.29903782262779e+01 1.69265697838928e-01
7.14970588235294e-02 2.27581912580107e+01 1.68326632902732e-01
7.21500000000000e-02 2.25283492179855e+01 1.67385796622036e-01
7.28029411764706e-02 2.23008284240452e+01 1.66443402231813e-01
7.34558823529412e-02 2.20756054332063e+01 1.65499656514583e-01
7.41088235294118e-02 2.18526570394234e+01 1.64554760009358e-01
7.47617647058824e-02 2.16319602706533e+01 1.63608907173509e-01
7.54147058823530e-02 2.14134923870373e+01 1.62662286536251e-01
7.60676470588235e-02 2.11972308783733e+01 1.61715080893832e-01
7.67205882352941e-02 2.09831534619638e+01 1.60767467492745e-01
7.73735294117647e-02 2.07712380798150e+01 1.59819618169327e-01
7.80264705882353e-02 2.05614628968731e+01 1.58871699481957e-01
7.86794117647059e-02 2.03538062986026e+01 1.57923872892529e-01
7.93323529411765e-02 2.01482468887605e+01 1.56976294890412e-01
7.99852941176471e-02 1.99447634873434e+01 1.56029117159887e-01
8.06382352941177e-02 1.97433351279441e+01 1.55082486696674e-01
8.12911764705882e-02 1.95439410560561e+01 1.54136545918165e-01
8.19441176470588e-02 1.93465607267794e+01 1.53191432811585e-01
8.25970588235294e-02 1.91511738028449e+01 1.52247281072707e-01
8.32500000000000e-02 1.89577601520904e+01 1.51304220207175e-01
8.39029411764706e-02 1.87662998458185e+01 1.50362375626224e-01
8.45558823529412e-02 1.85767731565976e+01 1.49421868778609e-01
8.52088235294118e-02 1.83891605563615e+01 1.48482817273945e-01
8.58617647058824e-02 1.82034427139987e+01 1.47545334971095e-01
8.65147058823530e-02 1.80196004937620e+01 1.46609532061537e-01
8.71676470588235e-02 1.78376149531621e+01 1.45675515187268e-01
8.78205882352941e-02 1.76574673411383e+01 1.44743387550831e-01
8.84735294117647e-02 1.74791390957559e+01 1.43813248992662e-01
8.91264705882353e-02 1.73026118426673e+01 1.42885196063900e-01
8.97794117647059e-02 1.71278673930927e+01 1.41959322139407e-01
9.04323529411765e-02 1.69548877419469e+01 1.41035717486770e-01
9.10852941176471e-02 1.67836550660959e+01 1.40114469370778e-01
9.17382352941177e-02 1.66141517221805e+01 1.39195662119015e-01
9.23911764705883e-02 1.64463602451413e+01 1.38279377183456e-01
9.30441176470588e-02 1.62802633463040e+01 1.37365693233147e-01
9.36970588235294e-02 1.61158439117028e+01 1.36454686240360e-01
9.43500000000000e-02 1.59530850000000e+01 1.35546429538315e-01
9.50029411764706e-02 1.57919698410599e+01 1.34640993875230e-01
9.56558823529412e-02 1.56324818341136e+01 1.33738447497919e-01
9.63088235294118e-02 1.54746045461468e+01 1.32838856229420e-01
9.69617647058824e-02 1.53183217099096e+01 1.31942283519865e-01
9.76147058823530e-02 1.51636172225397e+01 1.31048790493978e-01
9.82676470588235e-02 1.50104751438023e+01 1.30158436026712e-01
9.89205882352941e-02 1.48588796945399e+01 1.29271276813329e-01
9.95735294117647e-02 1.47088152547689e+01 1.28387367414306e-01
1.00226470588235e-01 1.45602663623499e+01 1.27506760285415e-01
1.00879411764706e-01 1.44132177114734e+01 1.26629505876175e-01
1.01532352941176e-01 1.42676541507292e+01 1.25755652733281e-01
1.02185294117647e-01 1.41235606808846e+01 1.24885247351706e-01
1.02838235294118e-01 1.39809224558870e+01 1.24018334352402e-01
1.03491176470588e-01 1.38397247787620e+01 1.23154956659487e-01
1.04144117647059e-01 1.36999531009640e+01 1.22295155356971e-01
1.04797058823529e-01 1.35615930208776e+01 1.21438969799036e-01
1.05450000000000e-01 1.34246302823347e+01 1.20586437707824e-01
1.06102941176471e-01 1.32890507723826e+01 1.19737595056598e-01
1.06755882352941e-01 1.31548405221378e+01 1.18892476217746e-01
1.07408823529412e-01 1.30219857030169e+01 1.18051114123128e-01
1.08061764705882e-01 1.28904726260952e+01 1.17213540128482e-01
1.08714705882353e-01 1.27602877406969e+01 1.16379784112128e-01
1.09367647058824e-01 1.26314176329996e+01 1.15549874562284e-01
1.10020588235294e-01 1.25038490239599e+01 1.14723838466168e-01
1.10673529411765e-01 1.23775687700381e+01 1.13901701443743e-01
1.11326470588235e-01 1.22525638597322e+01 1.13083487893156e-01
1.11979411764706e-01 1.21288214129459e+01 1.12269220862737e-01
1.12632352941176e-01 1.20063286796646e+01 1.11458922185393e-01
1.13285294117647e-01 1.18850730380013e+01 1.10652612372686e-01
1.13938235294118e-01 1.17650419948298e+01 1.09850310738007e-01
1.14591176470588e-01 1.16462231825462e+01 1.09052035530998e-01
1.15244117647059e-01 1.15286043584504e+01 1.08257803815706e-01
1.15897058823529e-01 1.14121734034853e+01 1.07467631551684e-01
1.16550000000000e-01 1.12969183209882e+01 1.06681533665398e-01
1.17202941176471e-01 1.11828272348744e+01 1.05899523950179e-01
1.17855882352941e-01 1.10698883901701e+01 1.05121615177983e-01
1.18508823529412e-01 1.09580901500285e+01 1.04347819221797e-01
1.19161764705882e-01 1.08474209951262e+01 1.03578146940950e-01
1.19814705882353e-01 1.07378695224774e+01 1.02812608254284e-01
1.20467647058824e-01 1.06294244442592e+01 1.02051212204424e-01
1.21120588235294e-01 1.05220745861194e+01 1.01293966863424e-01
1.21773529411765e-01 1.04158088876249e+01 1.00540879434359e-01
1.22426470588235e-01 1.03106163995077e+01 9.97919563629778e-02
1.23079411764706e-01 1.02064862830795e+01 9.90472032299128e-02
1.23732352941176e-01 1.01034078091161e+01 9.83066248535573e-02
1.24385294117647e-01 1.00013703562616e+01 9.75702252003202e-02
1.25038235294118e-01 9.90036341141562e+00 9.68380074786335e-02
1.25691176470588e-01 9.80037656715503e+00 9.61099742425656e-02
1.26344117647059e-01 9.70139952116448e+00 9.53861272894910e-02
1.26997058823529e-01 9.60342207517476e+00 9.46664677209582e-02
1.27650000000000e-01 9.50643413391264e+00 9.39509959959228e-02
1.28302941176471e-01 9.41042570361409e+00 9.32397118462919e-02
1.28955882352941e-01 9.31538689234491e+00 9.25326143626494e-02
1.29608823529412e-01 9.22130790761905e+00 9.18297020890276e-02
1.30261764705882e-01 9.12817905584749e+00 9.11309729268796e-02
1.30914705882353e-01 9.03599074134006e+00 9.04364241902879e-02
1.31567647058824e-01 8.94473346531668e+00 8.97460526541445e-02
1.32220588235294e-01 8.85439782452131e+00 8.90598544747772e-02
1.32873529411765e-01 8.76497451148527e+00 8.83778252682149e-02
1.33526470588235e-01 8.67645431232509e+00 8.76999601969905e-02
1.34179411764706e-01 8.58882810621069e+00 8.70262538800734e-02
1.34832352941176e-01 8.50208686442667e+00 8.63567004726346e-02
1.35485294117647e-01 8.41622164906351e+00 8.56912935907263e-02
1.36138235294118e-01 8.33122361324050e+00 8.50300263839449e-02
1.36791176470588e-01 8.24708399904019e+00 8.43728916162045e-02
1.37444117647059e-01 8.16379413699399e+00 8.37198815803912e-02
1.38097058823529e-01 8.08134544518882e+00 8.30709881446931e-02
1.38750000000000e-01 7.99972942838339e+00 8.24262027928531e-02
1.39402941176471e-01 7.91893767678705e+00 8.17855165534575e-02
1.40055882352941e-01 7.83896186623875e+00 8.11489200664312e-02
1.40708823529412e-01 7.75979375629467e+00 8.05164036571664e-02
1.41361764705882e-01 7.68142518973360e+00 7.98879572565376e-02
1.42014705882353e-01 7.60384809171680e+00 7.92635704431185e-02
1.42667647058824e-01 7.52705446895602e+00 7.86432324797648e-02
1.43320588235294e-01 7.45103640857370e+00 7.80269322472469e-02
1.43973529411765e-01 7.37578607824400e+00 7.74146583051887e-02
1.44626470588235e-01 7.30129572442111e+00 7.68063989601562e-02
1.45279411764706e-01 7.22755767186436e+00 7.62021421907268e-02
1.45932352941176e-01 7.15456432284810e+00 7.56018757099129e-02
1.46585294117647e-01 7.08230815608462e+00 7.50055869022592e-02
1.47238235294118e-01 7.01078172683849e+00 7.44132628805498e-02
1.47891176470588e-01 6.93997766526244e+00 7.38248905493183e-02
1.48544117647059e-01 6.86988867593946e+00 7.32404565338943e-02
1.49197058823529e-01 6.80050753713118e+00 7.26599472160532e-02
1.49850000000000e-01 6.73182710003406e+00 7.20833487648055e-02
1.50502941176471e-01 6.66384028777333e+00 7.15106470774063e-02
1.51155882352941e-01 6.59654009548848e+00 7.09418278313936e-02
1.51808823529412e-01 6.52991958878980e+00 7.03768765430260e-02
1.52461764705882e-01 6.46397190331997e+00 6.98157785008323e-02
1.53114705882353e-01 6.39869024404707e+00 6.92585187981902e-02
1.53767647058824e-01 6.33406788456448e+00 6.87050823614061e-02
1.54420588235294e-01 6.27009816615084e+00 6.81554538944023e-02
1.55073529411765e-01 6.20677449783073e+00 6.76096179265270e-02
1.55726470588235e-01 6.14409035494242e+00 6.70675588663484e-02
1.56379411764706e-01 6.08203927871850e+00 6.65292609394375e-02
1.57032352941176e-01 6.02061487562099e+00 6.59947082375864e-02
1.57685294117647e-01 5.95981081645233e+00 6.54638846664067e-02
1.58338235294118e-01 5.89962083639885e+00 6.49367739899037e-02
1.58991176470588e-01 5.84003873368373e+00 6.44133598807523e-02
1.59644117647059e-01 5.78105836916376e+00 6.38936258614031e-02
1.60297058823529e-01 5.72267366569681e+00 6.33775553317375e-02
1.60950000000000e-01 5.66487860751587e+00 6.28651315928086e-02
1.61602941176471e-01 5.60766723939806e+00 6.23563377977445e-02
1.62255882352941e-01 5.55103366668936e+00 6.18511569927475e-02
1.62908823529412e-01 5.49497205405346e+00 6.13495721634312e-02
1.63561764705882e-01 5.43947662508683e+00 6.08515661796882e-02
1.64214705882353e-01 5.38454166172371e+00 6.03571218210236e-02
1.64867647058824e-01 5.33016150364695e+00 5.98662217982565e-02
1.65520588235294e-01 5.27633054751101e+00 5.93788487075215e-02
1.66173529411765e-01 5.22304324695067e+00 5.88949850679941e-02
1.66826470588235e-01 5.17029411141851e+00 5.84146133646241e-02
1.67479411764706e-01 5.11807770581767e+00 5.79377159965395e-02
1.68132352941177e-01 5.06638864994225e+00 5.74642753160468e-02
1.68785294117647e-01 5.01522161774201e+00 5.69942735850580e-02
1.69438235294118e-01 4.96457133732031e+00 5.65276930103288e-02
1.70091176470588e-01 4.91443258983960e+00 5.60645157834552e-02
1.70744117647059e-01 4.86480020916893e+00 5.56047240320225e-02
1.71397058823529e-01 4.81566908135169e+00 5.51482998411929e-02
1.72050000000000e-01 4.76703414407884e+00 5.46952252721473e-02
1.72702941176471e-01 4.71889038600107e+00 5.42454823212563e-02
1.73355882352941e-01 4.67123284671497e+00 5.37990529525462e-02
1.74008823529412e-01 4.62405661574515e+00 5.33559191346178e-02
1.74661764705882e-01 4.57735683220860e+00 5.29160627949297e-02
1.75314705882353e-01 4.53112868431391e+00 5.24794658396125e-02
1.75967647058824e-01 4.48536740886552e+00 5.20461101703453e-02
1.76620588235294e-01 4.44006829062012e+00 5.16159776461188e-02
1.77273529411765e-01 4.39522666226291e+00 5.11890501131573e-02
1.77926470588235e-01 4.35083790346072e+00 5.07653094390210e-02
1.78579411764706e-01 4.30689744054243e+00 5.03447374698145e-02
1.79232352941177e-01 4.26340074602799e+00 4.99273160612389e-02
1.79885294117647e-01 4.22034333801913e+00 4.95130270423863e-02
1.80538235294118e-01 4.17772078016912e+00 4.91018522437191e-02
1.81191176470588e-01 4.13552868079049e+00 4.86937735290095e-02
1.81844117647059e-01 4.09376269254876e+00 4.82887727548434e-02
1.82497058823529e-01 4.05241851201449e+00 4.78868317875580e-02
1.83150000000000e-01 4.01149187922002e+00 4.74879325176144e-02
1.83802941176471e-01 3.97097857708912e+00 4.70920568256822e-02
1.84455882352941e-01 3.93087443139969e+00 4.66991866084562e-02
1.85108823529412e-01 3.89117530995315e+00 4.63093038081759e-02
1.85761764705882e-01 3.85187712228322e+00 4.59223903747208e-02
1.86414705882353e-01 3.81297581923455e+00 4.55384282811785e-02
1.87067647058824e-01 3.77446739254553e+00 4.51573995370299e-02
1.87720588235294e-01 3.73634787431426e+00 4.47792861563750e-02
1.88373529411765e-01 3.69861333695562e+00 4.44040701817610e-02
1.89026470588235e-01 3.66125989242766e+00 4.40317337114812e-02
1.89679411764706e-01 3.62428369195486e+00 4.36622588640983e-02
1.90332352941177e-01 3.58768092563185e+00 4.32956278032569e-02
1.90985294117647e-01 3.55144782191756e+00 4.29318227075929e-02
1.91638235294118e-01 3.51558064758870e+00 4.25708257930400e-02
1.92291176470588e-01 3.48007570701024e+00 4.22126193384266e-02
1.92944117647059e-01 3.44492934187049e+00 4.18571856518912e-02
1.93597058823529e-01 3.41013793080419e+00 4.15045070842233e-02
1.94250000000000e-01 3.37569788901942e+00 4.11545660401180e-02
1.94902941176471e-01 3.34160566782400e+00 4.08073449499942e-02
1.95555882352941e-01 3.30785775457500e+00 4.04628262905977e-02
1.96208823529412e-01 3.27445067199909e+00 4.01209926086819e-02
1.96861764705882e-01 3.24138097794091e+00 3.97818264895746e-02
1.97514705882353e-01 3.20864526500857e+00 3.94453105694491e-02
1.98167647058824e-01 3.17624016022250e+00 3.91114275456643e-02
1.98820588235294e-01 3.14416232457184e+00 3.87801601503605e-02
1.99473529411765e-01 3.11240845296098e+00 3.84514911694950e-02
2.00126470588235e-01 3.08097527357604e+00 3.81254034647667e-02
2.00779411764706e-01 3.04985954764614e+00 3.78018799441883e-02
2.01432352941177e-01 3.01905806910981e+00 3.74809035819674e-02
2.02085294117647e-01 2.98856766419473e+00 3.71624573935050e-02
2.02738235294118e-01 2.95838519136256e+00 3.68465244532319e-02
2.03391176470588e-01 2.92850754071118e+00 3.65330879151769e-02
2.04044117647059e-01 2.89893163374628e+00 3.62221309851073e-02
2.04697058823529e-01 2.86965442306423e+00 3.59136369310678e-02
2.05350000000000e-01 2.84067289203812e+00 3.56075890922247e-02
2.06002941176471e-01 2.81198405442394e+00 3.53039708554427e-02
