Energy (eV)          EEDF (eV^-(3/2))     First Anisotropy
2.23250000000000e-04 2.69099147939657e+02 0.00000000000000e+00
6.69750000000000e-04 2.64491222379223e+02 0.00000000000000e+00
1.11625000000000e-03 2.59962200739941e+02 0.00000000000000e+00
1.56275000000000e-03 2.55510731908725e+02 0.00000000000000e+00
2.00925000000000e-03 2.51135487908262e+02 0.00000000000000e+00
2.45575000000000e-03 2.46835163500880e+02 0.00000000000000e+00
2.90225000000000e-03 2.42608475799175e+02 0.00000000000000e+00
3.34875000000000e-03 2.38454163883294e+02 0.00000000000000e+00
3.79525000000000e-03 2.34370988424774e+02 0.00000000000000e+00
4.24175000000000e-03 2.30357731316823e+02 0.00000000000000e+00
4.68825000000000e-03 2.26413195310927e+02 0.00000000000000e+00
5.13475000000000e-03 2.22536203659687e+02 0.00000000000000e+00
5.58125000000000e-03 2.18725599765764e+02 0.00000000000000e+00
6.02775000000000e-03 2.14980246836841e+02 0.00000000000000e+00
6.47425000000000e-03 2.11299027546492e+02 0.00000000000000e+00
6.92075000000000e-03 2.07680843700855e+02 0.00000000000000e+00
7.36725000000000e-03 2.04124615911016e+02 0.00000000000000e+00
7.81375000000000e-03 2.00629283271003e+02 0.00000000000000e+00
8.26025000000000e-03 1.97193803041292e+02 0.00000000000000e+00
8.70675000000000e-03 1.93817150337735e+02 0.00000000000000e+00
9.15325000000000e-03 1.90498317825809e+02 0.00000000000000e+00
9.59975000000000e-03 1.87236315420110e+02 0.00000000000000e+00
1.00462500000000e-02 1.84030169988983e+02 0.00000000000000e+00
1.04927500000000e-02 1.80878925064215e+02 0.00000000000000e+00
1.09392500000000e-02 1.77781640555701e+02 0.00000000000000e+00
1.13857500000000e-02 1.74737392470990e+02 0.00000000000000e+00
1.18322500000000e-02 1.71745272639637e+02 0.00000000000000e+00
1.22787500000000e-02 1.68804388442275e+02 0.00000000000000e+00
1.27252500000000e-02 1.65913862544325e+02 0.00000000000000e+00
1.31717500000000e-02 1.63072832634269e+02 0.00000000000000e+00
1.36182500000000e-02 1.60280451166399e+02 0.00000000000000e+00
1.40647500000000e-02 1.57535885107976e+02 0.00000000000000e+00
1.45112500000000e-02 1.54838315690716e+02 0.00000000000000e+00
1.49577500000000e-02 1.52186938166536e+02 0.00000000000000e+00
1.54042500000000e-02 1.49580961567471e+02 0.00000000000000e+00
1.58507500000000e-02 1.47019608469717e+02 0.00000000000000e+00
1.62972500000000e-02 1.44502114761705e+02 0.00000000000000e+00
1.67437500000000e-02 1.42027729416149e+02 0.00000000000000e+00
1.71902500000000e-02 1.39595714265993e+02 0.00000000000000e+00
1.76367500000000e-02 1.37205343784205e+02 0.00000000000000e+00
1.80832500000000e-02 1.34855904867331e+02 0.00000000000000e+00
1.85297500000000e-02 1.32546696622761e+02 0.00000000000000e+00
1.89762500000000e-02 1.30277030159636e+02 0.00000000000000e+00
1.94227500000000e-02 1.28046228383335e+02 0.00000000000000e+00
1.98692500000000e-02 1.25853625793483e+02 0.00000000000000e+00
2.03157500000000e-02 1.23698568285417e+02 0.00000000000000e+00
2.07622500000000e-02 1.21580412955051e+02 0.00000000000000e+00
2.12087500000000e-02 1.19498527907078e+02 0.00000000000000e+00
2.16552500000000e-02 1.17452292066472e+02 0.00000000000000e+00
2.21017500000000e-02 1.15441094993193e+02 0.00000000000000e+00
2.25482500000000e-02 1.13464336700089e+02 0.00000000000000e+00
2.29947500000000e-02 1.11521427473902e+02 0.00000000000000e+00
2.34412500000000e-02 1.09611787699342e+02 0.00000000000000e+00
2.38877500000000e-02 1.07734847686175e+02 0.00000000000000e+00
2.43342500000000e-02 1.05890047499270e+02 0.00000000000000e+00
2.47807500000000e-02 1.04076836791561e+02 0.00000000000000e+00
2.52272500000000e-02 1.02294674639861e+02 0.00000000000000e+00
2.56737500000000e-02 1.00543029383494e+02 0.00000000000000e+00
2.61202500000000e-02 9.88213784656875e+01 0.00000000000000e+00
2.65667500000000e-02 9.71292082776839e+01 0.00000000000000e+00
2.70132500000000e-02 9.54660140055158e+01 0.00000000000000e+00
2.74597500000000e-02 9.38312994794099e+01 0.00000000000000e+00
2.79062500000000e-02 9.22245770257677e+01 0.00000000000000e+00
2.83527500000000e-02 9.06453673216809e+01 0.00000000000000e+00
2.87992500000000e-02 8.90931992519384e+01 0.00000000000000e+00
2.92457500000000e-02 8.75676097684812e+01 0.00000000000000e+00
2.96922500000000e-02 8.60681437522649e+01 0.00000000000000e+00
3.01387500000000e-02 8.45943538774863e+01 0.00000000000000e+00
3.05852500000000e-02 8.31458004781365e+01 0.00000000000000e+00
3.10317500000000e-02 8.17220514168374e+01 0.00000000000000e+00
3.14782500000000e-02 8.03226819559258e+01 0.00000000000000e+00
3.19247500000000e-02 7.89472746307436e+01 0.00000000000000e+00
3.23712500000000e-02 7.75954191250985e+01 0.00000000000000e+00
3.28177500000000e-02 7.62667121488572e+01 0.00000000000000e+00
3.32642500000000e-02 7.49607573176345e+01 0.00000000000000e+00
3.37107500000000e-02 7.36771650345425e+01 0.00000000000000e+00
3.41572500000000e-02 7.24155523739645e+01 0.00000000000000e+00
3.46037500000000e-02 7.11755429673200e+01 0.00000000000000e+00
3.50502500000000e-02 6.99567668907842e+01 0.00000000000000e+00
3.54967500000000e-02 6.87588605549319e+01 0.00000000000000e+00
3.59432500000000e-02 6.75814665962698e+01 0.00000000000000e+00
3.63897500000000e-02 6.64242337706269e+01 0.00000000000000e+00
3.68362500000000e-02 6.52868168483699e+01 0.00000000000000e+00
3.72827500000000e-02 6.41688765114130e+01 0.00000000000000e+00
3.77292500000000e-02 6.30700792519921e+01 0.00000000000000e+00
3.81757500000000e-02 6.19900972731705e+01 0.00000000000000e+00
3.86222500000000e-02 6.09286083910504e+01 0.00000000000000e+00
3.90687500000000e-02 5.98852959386575e+01 0.00000000000000e+00
3.95152500000000e-02 5.88598486714717e+01 0.00000000000000e+00
3.99617500000000e-02 5.78519606745758e+01 0.00000000000000e+00
4.04082500000000e-02 5.68613312713939e+01 0.00000000000000e+00
4.08547500000000e-02 5.58876649339925e+01 0.00000000000000e+00
4.13012500000000e-02 5.49306711949173e+01 0.00000000000000e+00
4.17477500000000e-02 5.39900645605407e+01 0.00000000000000e+00
4.21942500000000e-02 5.30655644258916e+01 0.00000000000000e+00
4.26407500000000e-02 5.21568949909448e+01 0.00000000000000e+00
4.30872500000000e-02 5.12637851783433e+01 0.00000000000000e+00
4.35337500000000e-02 5.03859685525295e+01 0.00000000000000e+00
4.39802500000000e-02 4.95231832402615e+01 0.00000000000000e+00
4.44267500000000e-02 4.86751718524897e+01 0.00000000000000e+00
4.48732500000000e-02 4.78416814075721e+01 0.00000000000000e+00
4.53197500000000e-02 4.70224632558037e+01 0.00000000000000e+00
4.57662500000000e-02 4.62172730052386e+01 0.00000000000000e+00
4.62127500000000e-02 4.54258704487822e+01 0.00000000000000e+00
4.66592500000000e-02 4.46480194925315e+01 0.00000000000000e+00
4.71057500000000e-02 4.38834880853432e+01 0.00000000000000e+00
4.75522500000000e-02 4.31320481496069e+01 0.00000000000000e+00
4.79987500000000e-02 4.23934755132047e+01 0.00000000000000e+00
4.84452500000000e-02 4.16675498426352e+01 0.00000000000000e+00
4.88917500000000e-02 4.09540545772829e+01 0.00000000000000e+00
4.93382500000000e-02 4.02527768648129e+01 0.00000000000000e+00
4.97847500000000e-02 3.95635074976724e+01 0.00000000000000e+00
5.02312500000000e-02 3.88860408506789e+01 0.00000000000000e+00
5.06777500000000e-02 3.82201748196778e+01 0.00000000000000e+00
5.11242500000000e-02 3.75657107612494e+01 0.00000000000000e+00
5.15707500000000e-02 3.69224534334494e+01 0.00000000000000e+00
5.20172500000000e-02 3.62902109375635e+01 0.00000000000000e+00
5.24637500000000e-02 3.56687946608594e+01 0.00000000000000e+00
5.29102500000000e-02 3.50580192203197e+01 0.00000000000000e+00
5.33567500000000e-02 3.44577024073369e+01 0.00000000000000e+00
5.38032500000000e-02 3.38676651333574e+01 0.00000000000000e+00
5.42497500000000e-02 3.32877313764542e+01 0.00000000000000e+00
5.46962500000000e-02 3.27177281288162e+01 0.00000000000000e+00
5.51427500000000e-02 3.21574853451354e+01 0.00000000000000e+00
5.55892500000000e-02 3.16068358918787e+01 0.00000000000000e+00
5.60357500000000e-02 3.10656154974280e+01 0.00000000000000e+00
5.64822500000000e-02 3.05336627030741e+01 0.00000000000000e+00
5.69287500000000e-02 3.00108188148497e+01 0.00000000000000e+00
5.73752500000000e-02 2.94969278561873e+01 0.00000000000000e+00
5.78217500000000e-02 2.89918365213881e+01 0.00000000000000e+00
5.82682500000000e-02 2.84953941298867e+01 0.00000000000000e+00
5.87147500000000e-02 2.80074525813001e+01 0.00000000000000e+00
5.91612500000000e-02 2.75278663112456e+01 0.00000000000000e+00
5.96077500000000e-02 2.70564922479156e+01 0.00000000000000e+00
6.00542500000000e-02 2.65931897693960e+01 0.00000000000000e+00
6.05007500000000e-02 2.61378206617153e+01 0.00000000000000e+00
6.09472500000000e-02 2.56902490776122e+01 0.00000000000000e+00
6.13937500000000e-02 2.52503414960091e+01 0.00000000000000e+00
6.18402500000000e-02 2.48179666821798e+01 0.00000000000000e+00
6.22867500000000e-02 2.43929956485989e+01 0.00000000000000e+00
6.27332500000000e-02 2.39753016164619e+01 0.00000000000000e+00
6.31797500000000e-02 2.35647599778644e+01 0.00000000000000e+00
6.36262500000000e-02 2.31612482586279e+01 0.00000000000000e+00
6.40727500000000e-02 2.27646460817638e+01 0.00000000000000e+00
6.45192500000000e-02 2.23748351315615e+01 0.00000000000000e+00
6.49657500000000e-02 2.19916991182921e+01 0.00000000000000e+00
6.54122500000000e-02 2.16151237435169e+01 0.00000000000000e+00
6.58587500000000e-02 2.12449966659889e+01 0.00000000000000e+00
6.63052500000000e-02 2.08812074681393e+01 0.00000000000000e+00
6.67517500000000e-02 2.05236476231370e+01 0.00000000000000e+00
6.71982500000000e-02 2.01722104625127e+01 0.00000000000000e+00
6.76447500000000e-02 1.98267911443370e+01 0.00000000000000e+00
6.80912500000000e-02 1.94872866219439e+01 0.00000000000000e+00
6.85377500000000e-02 1.91535956131893e+01 0.00000000000000e+00
6.89842500000000e-02 1.88256185702363e+01 0.00000000000000e+00
6.94307500000000e-02 1.85032576498577e+01 0.00000000000000e+00
6.98772500000000e-02 1.81864166842471e+01 0.00000000000000e+00
7.03237500000000e-02 1.78750011523297e+01 0.00000000000000e+00
7.07702500000000e-02 1.75689181515648e+01 0.00000000000000e+00
7.12167500000000e-02 1.72680763702303e+01 0.00000000000000e+00
7.16632500000000e-02 1.69723860601824e+01 0.00000000000000e+00
7.21097500000000e-02 1.66817590100821e+01 0.00000000000000e+00
7.25562500000000e-02 1.63961085190790e+01 0.00000000000000e+00
7.30027500000000e-02 1.61153493709470e+01 0.00000000000000e+00
7.34492500000000e-02 1.58393978086619e+01 0.00000000000000e+00
7.38957500000000e-02 1.55681715094147e+01 0.00000000000000e+00
7.43422500000000e-02 1.53015895600534e+01 0.00000000000000e+00
7.47887500000000e-02 1.50395724329438e+01 0.00000000000000e+00
7.52352500000000e-02 1.47820419622452e+01 0.00000000000000e+00
7.56817500000000e-02 1.45289213205916e+01 0.00000000000000e+00
7.61282500000000e-02 1.42801349961720e+01 0.00000000000000e+00
7.65747500000000e-02 1.40356087702038e+01 0.00000000000000e+00
7.70212500000000e-02 1.37952696947914e+01 0.00000000000000e+00
7.74677500000000e-02 1.35590460711642e+01 0.00000000000000e+00
7.79142500000000e-02 1.33268674282873e+01 0.00000000000000e+00
7.83607500000000e-02 1.30986645018379e+01 0.00000000000000e+00
7.88072500000000e-02 1.28743692135429e+01 0.00000000000000e+00
7.92537500000000e-02 1.26539146508688e+01 0.00000000000000e+00
7.97002500000000e-02 1.24372350470604e+01 0.00000000000000e+00
8.01467500000000e-02 1.22242657615212e+01 0.00000000000000e+00
8.05932500000000e-02 1.20149432605296e+01 0.00000000000000e+00
8.10397500000000e-02 1.18092050982848e+01 0.00000000000000e+00
8.14862500000000e-02 1.16069898982785e+01 0.00000000000000e+00
8.19327500000000e-02 1.14082373349842e+01 0.00000000000000e+00
8.23792500000000e-02 1.12128881158612e+01 0.00000000000000e+00
8.28257500000000e-02 1.10208839636659e+01 0.00000000000000e+00
8.32722500000000e-02 1.08321675990663e+01 0.00000000000000e+00
8.37187500000000e-02 1.06466827235546e+01 0.00000000000000e+00
8.41652500000000e-02 1.04643740026518e+01 0.00000000000000e+00
8.46117500000000e-02 1.02851870494000e+01 0.00000000000000e+00
8.50582500000000e-02 1.01090684081378e+01 0.00000000000000e+00
8.55047500000000e-02 9.93596553855290e+00 0.00000000000000e+00
8.59512500000000e-02 9.76582680000849e+00 0.00000000000000e+00
8.63977500000000e-02 9.59860143613725e+00 0.00000000000000e+00
8.68442500000000e-02 9.43423955969974e+00 0.00000000000000e+00
8.72907500000000e-02 9.27269213770185e+00 0.00000000000000e+00
8.77372500000000e-02 9.11391097676708e+00 0.00000000000000e+00
8.81837500000000e-02 8.95784870875934e+00 0.00000000000000e+00
8.86302500000000e-02 8.80445877665194e+00 0.00000000000000e+00
8.90767500000000e-02 8.65369542063853e+00 0.00000000000000e+00
8.95232500000000e-02 8.50551366448185e+00 0.00000000000000e+00
8.99697500000000e-02 8.35986930209631e+00 0.00000000000000e+00
9.04162500000000e-02 8.21671888436026e+00 0.00000000000000e+00
9.08627500000000e-02 8.07601970615409e+00 0.00000000000000e+00
9.13092500000000e-02 7.93772979362033e+00 0.00000000000000e+00
9.17557500000000e-02 7.80180789164182e+00 0.00000000000000e+00
9.22022500000000e-02 7.66821345153437e+00 0.00000000000000e+00
9.26487500000000e-02 7.53690661895014e+00 0.00000000000000e+00
9.30952500000000e-02 7.40784822198815e+00 0.00000000000000e+00
9.35417500000000e-02 7.28099975950836e+00 0.00000000000000e+00
9.39882500000000e-02 7.15632338964593e+00 0.00000000000000e+00
9.44347500000000e-02 7.03378191852207e+00 0.00000000000000e+00
9.48812500000000e-02 6.91333878914824e+00 0.00000000000000e+00
9.53277500000000e-02 6.79495807052035e+00 0.00000000000000e+00
9.57742500000000e-02 6.67860444689970e+00 0.00000000000000e+00
9.62207500000000e-02 6.56424320727747e+00 0.00000000000000e+00
9.66672500000000e-02 6.45184023501962e+00 0.00000000000000e+00
9.71137500000000e-02 6.34136199768908e+00 0.00000000000000e+00
9.75602500000000e-02 6.23277553704225e+00 0.00000000000000e+00
9.80067500000000e-02 6.12604845919680e+00 0.00000000000000e+00
9.84532500000000e-02 6.02114892496778e+00 0.00000000000000e+00
9.88997500000000e-02 5.91804564036930e+00 0.00000000000000e+00
9.93462500000000e-02 5.81670784727875e+00 0.00000000000000e+00
9.97927500000000e-02 5.71710531426095e+00 0.00000000000000e+00
1.00239250000000e-01 5.61920832754942e+00 0.00000000000000e+00
1.00685750000000e-01 5.52298768218205e+00 0.00000000000000e+00
1.01132250000000e-01 5.42841467328858e+00 0.00000000000000e+00
1.01578750000000e-01 5.33546108752726e+00 0.00000000000000e+00
1.02025250000000e-01 5.24409919466819e+00 0.00000000000000e+00
1.02471750000000e-01 5.15430173932067e+00 0.00000000000000e+00
1.02918250000000e-01 5.06604193280236e+00 0.00000000000000e+00
1.03364750000000e-01 4.97929344514752e+00 0.00000000000000e+00
1.03811250000000e-01 4.89403039725219e+00 0.00000000000000e+00
1.04257750000000e-01 4.81022735315389e+00 0.00000000000000e+00
1.04704250000000e-01 4.72785931244341e+00 0.00000000000000e+00
1.05150750000000e-01 4.64690170280664e+00 0.00000000000000e+00
1.05597250000000e-01 4.56733037269405e+00 0.00000000000000e+00
1.06043750000000e-01 4.48912158411577e+00 0.00000000000000e+00
1.06490250000000e-01 4.41225200555992e+00 0.00000000000000e+00
1.06936750000000e-01 4.33669870503233e+00 0.00000000000000e+00
1.07383250000000e-01 4.26243914321536e+00 0.00000000000000e+00
1.07829750000000e-01 4.18945116674391e+00 0.00000000000000e+00
1.08276250000000e-01 4.11771300159654e+00 0.00000000000000e+00
1.08722750000000e-01 4.04720324659978e+00 0.00000000000000e+00
1.09169250000000e-01 3.97790086704366e+00 0.00000000000000e+00
1.09615750000000e-01 3.90978518840654e+00 0.00000000000000e+00
1.10062250000000e-01 3.84283589018745e+00 0.00000000000000e+00
1.10508750000000e-01 3.77703299984399e+00 0.00000000000000e+00
1.10955250000000e-01 3.71235688683407e+00 0.00000000000000e+00
1.11401750000000e-01 3.64878825675963e+00 0.00000000000000e+00
1.11848250000000e-01 3.58630814561069e+00 0.00000000000000e+00
1.12294750000000e-01 3.52489791410795e+00 0.00000000000000e+00
1.12741250000000e-01 3.46453924214223e+00 0.00000000000000e+00
1.13187750000000e-01 3.40521412330918e+00 0.00000000000000e+00
1.13634250000000e-01 3.34690485953753e+00 0.00000000000000e+00
1.14080750000000e-01 3.28959405580935e+00 0.00000000000000e+00
1.14527250000000e-01 3.23326461497071e+00 0.00000000000000e+00
1.14973750000000e-01 3.17789973263119e+00 0.00000000000000e+00
1.15420250000000e-01 3.12348289215075e+00 0.00000000000000e+00
1.15866750000000e-01 3.06999785971242e+00 0.00000000000000e+00
1.16313250000000e-01 3.01742867947937e+00 0.00000000000000e+00
1.16759750000000e-01 2.96575966883492e+00 0.00000000000000e+00
1.17206250000000e-01 2.91497541370404e+00 0.00000000000000e+00
1.17652750000000e-01 2.86506076395498e+00 0.00000000000000e+00
1.18099250000000e-01 2.81600082887962e+00 0.00000000000000e+00
1.18545750000000e-01 2.76778097275123e+00 0.00000000000000e+00
1.18992250000000e-01 2.72038681045830e+00 0.00000000000000e+00
1.19438750000000e-01 2.67380420321310e+00 0.00000000000000e+00
1.19885250000000e-01 2.62801925433376e+00 0.00000000000000e+00
1.20331750000000e-01 2.58301830509859e+00 0.00000000000000e+00
1.20778250000000e-01 2.53878793067132e+00 0.00000000000000e+00
1.21224750000000e-01 2.49531493609619e+00 0.00000000000000e+00
1.21671250000000e-01 2.45258635236155e+00 0.00000000000000e+00
1.22117750000000e-01 2.41058943253097e+00 0.00000000000000e+00
1.22564250000000e-01 2.36931164794043e+00 0.00000000000000e+00
1.23010750000000e-01 2.32874068446083e+00 0.00000000000000e+00
1.23457250000000e-01 2.28886443882432e+00 0.00000000000000e+00
1.23903750000000e-01 2.24967101501364e+00 0.00000000000000e+00
1.24350250000000e-01 2.21114872071328e+00 0.00000000000000e+00
1.24796750000000e-01 2.17328606382135e+00 0.00000000000000e+00
1.25243250000000e-01 2.13607174902124e+00 0.00000000000000e+00
1.25689750000000e-01 2.09949467441196e+00 0.00000000000000e+00
1.26136250000000e-01 2.06354392819619e+00 0.00000000000000e+00
1.26582750000000e-01 2.02820878542501e+00 0.00000000000000e+00
1.27029250000000e-01 1.99347870479842e+00 0.00000000000000e+00
1.27475750000000e-01 1.95934332552063e+00 0.00000000000000e+00
1.27922250000000e-01 1.92579246420916e+00 0.00000000000000e+00
1.28368750000000e-01 1.89281611185693e+00 0.00000000000000e+00
1.28815250000000e-01 1.86040443084633e+00 0.00000000000000e+00
1.29261750000000e-01 1.82854775201442e+00 0.00000000000000e+00
1.29708250000000e-01 1.79723657176839e+00 0.00000000000000e+00
1.30154750000000e-01 1.76646154925043e+00 0.00000000000000e+00
1.30601250000000e-01 1.73621350355114e+00 0.00000000000000e+00
1.31047750000000e-01 1.70648341097063e+00 0.00000000000000e+00
1.31494250000000e-01 1.67726240232653e+00 0.00000000000000e+00
1.31940750000000e-01 1.64854176030814e+00 0.00000000000000e+00
1.32387250000000e-01 1.62031291687583e+00 0.00000000000000e+00
1.32833750000000e-01 1.59256745070500e+00 0.00000000000000e+00
1.33280250000000e-01 1.56529708467379e+00 0.00000000000000e+00
1.33726750000000e-01 1.53849368339383e+00 0.00000000000000e+00
1.34173250000000e-01 1.51214925078328e+00 0.00000000000000e+00
1.34619750000000e-01 1.48625592768137e+00 0.00000000000000e+00
1.35066250000000e-01 1.46080598950388e+00 0.00000000000000e+00
1.35512750000000e-01 1.43579184393866e+00 0.00000000000000e+00
1.35959250000000e-01 1.41120602868073e+00 0.00000000000000e+00
1.36405750000000e-01 1.38704120920602e+00 0.00000000000000e+00
1.36852250000000e-01 1.36329017658340e+00 0.00000000000000e+00
1.37298750000000e-01 1.33994584532401e+00 0.00000000000000e+00
1.37745250000000e-01 1.31700125126753e+00 0.00000000000000e+00
1.38191750000000e-01 1.29444954950461e+00 0.00000000000000e+00
1.38638250000000e-01 1.27228401233486e+00 0.00000000000000e+00
1.39084750000000e-01 1.25049802725984e+00 0.00000000000000e+00
1.39531250000000e-01 1.22908509501035e+00 0.00000000000000e+00
1.39977750000000e-01 1.20803882760761e+00 0.00000000000000e+00
1.40424250000000e-01 1.18735294645752e+00 0.00000000000000e+00
1.40870750000000e-01 1.16702128047766e+00 0.00000000000000e+00
