Energy (eV)          EEDF (eV^-(3/2))     First Anisotropy
9.60000000000000e-01 7.23659440038589e-02 2.31978475260848e-04
2.88000000000000e+00 5.10754811769022e-02 3.27814904430989e-04
4.80000000000000e+00 3.60487908139909e-02 3.07502060955963e-04
6.72000000000000e+00 2.54430362515812e-02 2.58755105882391e-04
8.64000000000000e+00 1.79575536122568e-02 2.07718972105232e-04
1.05600000000000e+01 1.26743415584702e-02 1.62331072452364e-04
1.24800000000000e+01 8.94547984705002e-03 1.24663830671112e-04
1.44000000000000e+01 6.31366997053195e-03 9.45657468108461e-05
1.63200000000000e+01 4.45615318332448e-03 7.10807342258668e-05
1.82400000000000e+01 3.14512815619658e-03 5.30512051938120e-05
2.01600000000000e+01 2.21981397675400e-03 3.93720836490690e-05
2.20800000000000e+01 1.56673237040723e-03 2.90858979964428e-05
2.40000000000000e+01 1.10579100149251e-03 2.14049479257061e-05
2.59200000000000e+01 7.80461144531004e-04 1.57015136991584e-05
2.78400000000000e+01 5.50845139181368e-04 1.14859432768177e-05
2.97600000000000e+01 3.88783438465830e-04 8.38206376935258e-06
3.16800000000000e+01 2.74401190595868e-04 6.10415086896009e-06
3.36000000000000e+01 1.93670835613661e-04 4.43707903888837e-06
3.55200000000000e+01 1.36691799645051e-04 3.22000269943263e-06
3.74400000000000e+01 9.64763126621464e-05 2.33333883696133e-06
3.93600000000000e+01 6.80924454067734e-05 1.68859643448733e-06
4.12800000000000e+01 4.80592696127536e-05 1.22054897553143e-06
4.32000000000000e+01 3.39199654515799e-05 8.81278417254912e-07
4.51200000000000e+01 2.39405231395994e-05 6.35683214434431e-07
4.70400000000000e+01 1.68970882065270e-05 4.58114447418777e-07
4.89600000000000e+01 1.19258709675770e-05 3.29871267486033e-07
5.08800000000000e+01 8.41721346287092e-06 2.37345066727836e-07
5.28000000000000e+01 5.94082249188798e-06 1.70649883300613e-07
5.47200000000000e+01 4.19299950462279e-06 1.22615119801980e-07
5.66400000000000e+01 2.95939575198109e-06 8.80469226908592e-08
5.85600000000000e+01 2.08872507787992e-06 6.31879617838731e-08
6.04800000000000e+01 1.47421055397675e-06 4.53232114147967e-08
6.24000000000000e+01 1.04048961755290e-06 3.24928495810845e-08
6.43200000000000e+01 7.34371790593257e-07 2.32835408055228e-08
6.62400000000000e+01 5.18315529267381e-07 1.66769442825130e-08
6.81600000000000e+01 3.65824220539160e-07 1.19399151958906e-08
7.00800000000000e+01 2.58196702156009e-07 8.54502778564171e-09
7.20000000000000e+01 1.82233797712971e-07 6.11311441652496e-09
7.39200000000000e+01 1.28619601844590e-07 4.37176667307190e-09
7.58400000000000e+01 9.07790003077097e-08 3.12539394554861e-09
7.77600000000000e+01 6.40713140041008e-08 2.23364030800564e-09
7.96800000000000e+01 4.52211774121447e-08 1.59583943216463e-09
8.16000000000000e+01 3.19168557462359e-08 1.13982700784681e-09
8.35200000000000e+01 2.25267394398371e-08 8.13894973364696e-10
8.54400000000000e+01 1.58992475269171e-08 5.81009100051605e-10
8.73600000000000e+01 1.12216005604053e-08 4.14655811347433e-10
8.92800000000000e+01 7.92014332276427e-09 2.95860922003853e-10
9.12000000000000e+01 5.58999314896855e-09 2.11050776454979e-10
9.31200000000000e+01 3.94538610377182e-09 1.50518537638169e-10
9.50400000000000e+01 2.78463158952315e-09 1.07324938376980e-10
9.69600000000000e+01 1.96537750309334e-09 7.65107790378603e-11
9.88800000000000e+01 1.38715252107259e-09 5.45330010663752e-11
1.00800000000000e+02 9.79044541666687e-10 3.88610248708028e-11
1.02720000000000e+02 6.91004197452037e-10 2.76879161668334e-11
1.04640000000000e+02 4.87706923000131e-10 1.97237906257556e-11
1.06560000000000e+02 3.44220836312309e-10 1.40480921919859e-11
1.08480000000000e+02 2.42949153607798e-10 1.00040022282723e-11
1.10400000000000e+02 1.71472162670574e-10 7.12298702111004e-12
1.12320000000000e+02 1.21024099628640e-10 5.07089731381529e-12
1.14240000000000e+02 8.54181370480638e-11 3.60947466223948e-12
1.16160000000000e+02 6.02876465030538e-11 2.56886814893020e-12
1.18080000000000e+02 4.25506859138361e-11 1.82801720268960e-12
1.20000000000000e+02 3.00320376853029e-11 1.30065257737305e-12
1.21920000000000e+02 2.11964453254131e-11 9.25308859816780e-13
1.23840000000000e+02 1.49603333327296e-11 6.58200580351456e-13
1.25760000000000e+02 1.05589201392200e-11 4.68141977265434e-13
1.27680000000000e+02 7.45242716367224e-12 3.32924898512497e-13
1.29600000000000e+02 5.25988168274400e-12 2.36736839604679e-13
1.31520000000000e+02 3.71239526517332e-12 1.68320781504235e-13
1.33440000000000e+02 2.62018795025280e-12 1.19663951077631e-13
1.35360000000000e+02 1.84931409622662e-12 8.50636407954167e-14
1.37280000000000e+02 1.30523561341183e-12 6.04617748737308e-14
1.39200000000000e+02 9.21228043410628e-13 4.29709868349332e-14
1.41120000000000e+02 6.50197634240007e-13 3.05371454754985e-14
1.43040000000000e+02 4.58905877426554e-13 2.16990809909002e-14
1.44960000000000e+02 3.23893218379350e-13 1.54175408666731e-14
1.46880000000000e+02 2.28602033821028e-13 1.09534459746094e-14
1.48800000000000e+02 1.61346045244775e-13 7.78124908256070e-15
1.50720000000000e+02 1.13877142215234e-13 5.52728300010269e-15
1.52640000000000e+02 8.03738542177162e-14 3.92589642278555e-15
1.54560000000000e+02 5.67274197099278e-14 2.78824933495038e-15
1.56480000000000e+02 4.00378976256309e-14 1.98011703342250e-15
1.58400000000000e+02 2.82585256737838e-14 1.40610389826485e-15
1.60320000000000e+02 1.99447104021939e-14 9.98417197782857e-16
1.62240000000000e+02 1.40768657791806e-14 7.08884600868496e-16
1.64160000000000e+02 9.93537364890833e-15 5.03278772266940e-16
1.66080000000000e+02 7.01233151554337e-15 3.57282687157780e-16
1.68000000000000e+02 4.94926461968401e-15 2.53621638262946e-16
1.69920000000000e+02 3.49316346800780e-15 1.80024770876781e-16
1.71840000000000e+02 2.46545536597382e-15 1.27776356337071e-16
1.73760000000000e+02 1.74010469801338e-15 9.06862864772286e-17
1.75680000000000e+02 1.22815622697442e-15 6.43585452421429e-17
1.77600000000000e+02 8.66825840754347e-16 4.56714581642014e-17
1.79520000000000e+02 6.11800861890783e-16 3.24084419729996e-17
1.81440000000000e+02 4.31805648853953e-16 2.29956973814376e-17
1.83360000000000e+02 3.04766027635099e-16 1.63158872798786e-17
1.85280000000000e+02 2.15102168873879e-16 1.15757994535718e-17
1.87200000000000e+02 1.51817915577012e-16 8.21235982149628e-18
1.89120000000000e+02 1.07152241238734e-16 5.82588756006933e-18
1.91040000000000e+02 7.56274564753826e-17 4.84548376474682e-18
