Energy (eV)          EEDF (eV^-(3/2))     First Anisotropy
1.06862745098039e-02 2.01887967781816e-01 1.05999290759378e-04
3.20588235294118e-02 2.00519430429106e-01 1.75030119778897e-04
5.34313725490196e-02 1.99160169976317e-01 2.31046778078857e-04
7.48039215686275e-02 1.97810123536106e-01 2.73595282753843e-04
9.61764705882353e-02 1.96469228652313e-01 3.09074825326707e-04
1.17549019607843e-01 1.95137423290047e-01 3.39904501635861e-04
1.38921568627451e-01 1.93814645832750e-01 3.67336020834343e-04
1.60294117647059e-01 1.92500835082989e-01 3.92125149257857e-04
1.81666666666667e-01 1.91195930258168e-01 4.14773055993186e-04
2.03039215686275e-01 1.89899870987718e-01 4.35633908574215e-04
2.24411764705882e-01 1.88612597310305e-01 4.54969844342757e-04
2.45784313725490e-01 1.87334049671056e-01 4.72981855708448e-04
2.67156862745098e-01 1.86064168918803e-01 4.89828410165190e-04
2.88529411764706e-01 1.84802896303342e-01 5.05637305655668e-04
3.09901960784314e-01 1.83550173472724e-01 5.20513555551093e-04
3.31274509803922e-01 1.82305942470547e-01 5.34544823812076e-04
3.52647058823529e-01 1.81070145733280e-01 5.47805285063137e-04
3.74019607843137e-01 1.79842726087597e-01 5.60358436430386e-04
3.95392156862745e-01 1.78623626747731e-01 5.72259190963711e-04
4.16764705882353e-01 1.77412791312851e-01 5.83555466049141e-04
4.38137254901961e-01 1.76210163764449e-01 5.94289408890753e-04
4.59509803921569e-01 1.75015688463750e-01 6.04498356044324e-04
4.80882352941176e-01 1.73829310149137e-01 6.14215594675372e-04
5.02254901960784e-01 1.72650973933595e-01 6.23470973696149e-04
5.23627450980392e-01 1.71480625302171e-01 6.32291399652138e-04
5.45000000000000e-01 1.70318210109454e-01 6.40701243294028e-04
5.66372549019608e-01 1.69163674575011e-01 6.48722674557072e-04
5.87745098039216e-01 1.68016965287174e-01 6.56375942999000e-04
6.09117647058824e-01 1.66878029194181e-01 6.63679613326975e-04
6.30490196078431e-01 1.65746813603894e-01 6.70650763128463e-04
6.51862745098039e-01 1.64623266181360e-01 6.77305152127665e-04
6.73235294117647e-01 1.63507334946387e-01 6.83657366772664e-04
6.94607843137255e-01 1.62398968271144e-01 6.89720944647100e-04
7.15980392156863e-01 1.61298114877769e-01 6.95508482071845e-04
7.37352941176471e-01 1.60204723835998e-01 7.01031727615308e-04
7.58725490196078e-01 1.59118744560806e-01 7.06301663724181e-04
7.80098039215686e-01 1.58040126810071e-01 7.11328578285127e-04
8.01470588235294e-01 1.56968820682247e-01 7.16122127609516e-04
8.22843137254902e-01 1.55904776614055e-01 7.20691392077680e-04
8.44215686274510e-01 1.54847945378191e-01 7.25044925472533e-04
8.65588235294118e-01 1.53798278081049e-01 7.29190798864999e-04
8.86960784313725e-01 1.52755726160457e-01 7.33136639777116e-04
9.08333333333333e-01 1.51720241383432e-01 7.36889667236958e-04
9.29705882352941e-01 1.50691775843947e-01 7.40456723245861e-04
9.51078431372549e-01 1.49670281960716e-01 7.43844301102343e-04
9.72450980392157e-01 1.48655712474993e-01 7.47058570963311e-04
9.93823529411765e-01 1.47648020448384e-01 7.50105402251506e-04
1.01519607843137e+00 1.46647159264557e-01 7.52990386971986e-04
1.03656862745098e+00 1.45653082614368e-01 7.55718856952276e-04
1.05794117647059e+00 1.44665744507574e-01 7.58295899744289e-04
1.07931372549020e+00 1.43685099265680e-01 7.60726377051933e-04
1.10068627450980e+00 1.42711101519832e-01 7.63014938297042e-04
1.12205882352941e+00 1.41743706208689e-01 7.65166033889138e-04
1.14343137254902e+00 1.40782868576391e-01 7.67183927416266e-04
1.16480392156863e+00 1.39828544170461e-01 7.69072706865563e-04
1.18617647058824e+00 1.38880688839752e-01 7.70836294944978e-04
1.20754901960784e+00 1.37939258732398e-01 7.72478457062939e-04
1.22892156862745e+00 1.37004210301400e-01 7.74002814810975e-04
1.25029411764706e+00 1.36075500279570e-01 7.75412850974646e-04
1.27166666666667e+00 1.35153085700789e-01 7.76711913926581e-04
1.29303921568627e+00 1.34236923890192e-01 7.77903229410405e-04
1.31441176470588e+00 1.33326972462190e-01 7.78989905458617e-04
1.33578431372549e+00 1.32423189318500e-01 7.79974938452716e-04
1.35715686274510e+00 1.31525532646218e-01 7.80861218773646e-04
1.37852941176471e+00 1.30633960915880e-01 7.81651536080881e-04
1.39990196078431e+00 1.29748432879538e-01 7.82348584236438e-04
1.42127450980392e+00 1.28868907568845e-01 7.82954964577525e-04
1.44264705882353e+00 1.27995344299210e-01 7.83473194255315e-04
1.46401960784314e+00 1.27127702649630e-01 7.83905707577706e-04
1.48539215686275e+00 1.26265942479263e-01 7.84254857080664e-04
1.50676470588235e+00 1.25410023919368e-01 7.84522921197220e-04
1.52813725490196e+00 1.24559907371462e-01 7.84712106230594e-04
1.54950980392157e+00 1.23715553505479e-01 7.84824549503749e-04
1.57088235294118e+00 1.22876923257962e-01 7.84862322326177e-04
1.59225490196078e+00 1.22043977830257e-01 7.84827432796077e-04
1.61362745098039e+00 1.21216678686715e-01 7.84721828441952e-04
1.63500000000000e+00 1.20394987552904e-01 7.84547397554602e-04
1.65637254901961e+00 1.19578866418753e-01 7.84305975050162e-04
1.67774509803922e+00 1.18768277521944e-01 7.83999342351154e-04
1.69911764705882e+00 1.17963183361138e-01 7.83629227127760e-04
1.72049019607843e+00 1.17163546689202e-01 7.83197308873703e-04
1.74186274509804e+00 1.16369330511491e-01 7.82705219605088e-04
1.76323529411765e+00 1.15580498084130e-01 7.82154545660258e-04
1.78460784313725e+00 1.14797012912319e-01 7.81546829406905e-04
1.80598039215686e+00 1.14018838748650e-01 7.80883570868153e-04
1.82735294117647e+00 1.13245939591422e-01 7.80166229268713e-04
1.84872549019608e+00 1.12478279682981e-01 7.79396223483100e-04
1.87009803921569e+00 1.11715823512117e-01 7.78574936513776e-04
1.89147058823529e+00 1.10958535800161e-01 7.77703714761481e-04
1.91284313725490e+00 1.10206381511710e-01 7.76783867213731e-04
1.93421568627451e+00 1.09459325848858e-01 7.75816669796814e-04
1.95558823529412e+00 1.08717334249579e-01 7.74803365480525e-04
1.97696078431373e+00 1.07980372386133e-01 7.73745165383697e-04
1.99833333333333e+00 1.07248406163473e-01 7.72643249827905e-04
2.01970588235294e+00 1.06521401717677e-01 7.71498769347695e-04
2.04107843137255e+00 1.05799325414375e-01 7.70312845658391e-04
2.06245098039216e+00 1.05082143847194e-01 7.69086571676981e-04
2.08382352941176e+00 1.04369823839610e-01 7.67821015129763e-04
2.10519607843137e+00 1.03662332433144e-01 7.66517217576679e-04
2.12656862745098e+00 1.02959636896184e-01 7.65176193382280e-04
2.14794117647059e+00 1.02261704718996e-01 7.63798933271188e-04
2.16931372549020e+00 1.01568503612218e-01 7.62386404145339e-04
2.19068627450980e+00 1.00880001505367e-01 7.60939549803063e-04
2.21205882352941e+00 1.00196166545353e-01 7.59459291625887e-04
2.23343137254902e+00 9.95169670950109e-02 7.57946529241143e-04
2.25480392156863e+00 9.88423717316361e-02 7.56402141161105e-04
2.27617647058824e+00 9.81723492455271e-02 7.54826985393733e-04
2.29754901960784e+00 9.75068686385436e-02 7.53221899237292e-04
2.31892156862745e+00 9.68458991255062e-02 7.51587702243591e-04
2.34029411764706e+00 9.61894101242091e-02 7.49925195158748e-04
2.36166666666667e+00 9.55373712626299e-02 7.48235158827251e-04
2.38303921568627e+00 9.48897523746287e-02 7.46518357141497e-04
2.40441176470588e+00 9.42465234985524e-02 7.44775536711528e-04
2.42578431372549e+00 9.36076548758459e-02 7.43007427334211e-04
2.44715686274510e+00 9.29731169496803e-02 7.41214742446707e-04
2.46852941176471e+00 9.23428803635840e-02 7.39398179566118e-04
2.48990196078431e+00 9.17169159600835e-02 7.37558420711839e-04
2.51127450980392e+00 9.10951947793552e-02 7.35696132103789e-04
2.53264705882353e+00 9.04776880603070e-02 7.33811966697531e-04
2.55401960784314e+00 8.98643672319313e-02 7.31906563131891e-04
2.57539215686275e+00 8.92552039193509e-02 7.29980544648423e-04
2.59676470588235e+00 8.86501699400333e-02 7.28034521629863e-04
2.61813725490196e+00 8.80492373024863e-02 7.26069091213323e-04
2.63950980392157e+00 8.74523782049622e-02 7.24084837622718e-04
2.66088235294118e+00 8.68595650341729e-02 7.22082332490324e-04
2.68225490196078e+00 8.62707703640136e-02 7.20062135169927e-04
2.70362745098039e+00 8.56859669542926e-02 7.18024793039032e-04
2.72500000000000e+00 8.51051277494708e-02 7.15970841154711e-04
2.74637254901961e+00 8.45282258794962e-02 7.13900804456736e-04
2.76774509803922e+00 8.39552346522610e-02 7.11815196757250e-04
2.78911764705882e+00 8.33861275587094e-02 7.09714519708003e-04
2.81049019607843e+00 8.28208782694820e-02 7.07599265015246e-04
2.83186274509804e+00 8.22594606336979e-02 7.05469914034608e-04
2.85323529411765e+00 8.17018486777442e-02 7.03326938013818e-04
2.87460784313726e+00 8.11480166040749e-02 7.01170798327675e-04
2.89598039215686e+00 8.05979387900187e-02 6.99001946707463e-04
2.91735294117647e+00 8.00515897865925e-02 6.96820825463480e-04
2.93872549019608e+00 7.95089443173241e-02 6.94627867127939e-04
2.96009803921569e+00 7.89699772788896e-02 6.92423496391095e-04
2.98147058823529e+00 7.84346637344955e-02 6.90208129149051e-04
3.00284313725490e+00 7.79029789182181e-02 6.87982171532914e-04
3.02421568627451e+00 7.73748982320139e-02 6.85746021860964e-04
3.04558823529412e+00 7.68503972445821e-02 6.83500070235751e-04
3.06696078431373e+00 7.63294516902338e-02 6.81244698725999e-04
3.08833333333333e+00 7.58120374677687e-02 6.78980281542449e-04
3.10970588235294e+00 7.52981306393626e-02 6.76707185209899e-04
3.13107843137255e+00 7.47877074294583e-02 6.74425768735302e-04
3.15245098039216e+00 7.42807442236660e-02 6.72136383253742e-04
3.17382352941176e+00 7.37772175692440e-02 6.69839373743953e-04
3.19519607843137e+00 7.32771041692628e-02 6.67535078140521e-04
3.21656862745098e+00 7.27803808863091e-02 6.65223826429988e-04
3.23794117647059e+00 7.22870247398111e-02 6.62905942384166e-04
3.25931372549020e+00 7.17970129049751e-02 6.60581743170757e-04
3.28068627450980e+00 7.13103227117296e-02 6.58251539492549e-04
3.30205882352941e+00 7.08269316436755e-02 6.55915635721692e-04
3.32343137254902e+00 7.03468173370465e-02 6.53574330031599e-04
3.34480392156863e+00 6.98699575796736e-02 6.51227914526247e-04
3.36617647058824e+00 6.93963303099573e-02 6.48876675364972e-04
3.38754901960784e+00 6.89259136158467e-02 6.46520892421972e-04
3.40892156862745e+00 6.84586857351864e-02 6.44160840800470e-04
3.43029411764706e+00 6.79946250506031e-02 6.41796790015457e-04
3.45166666666667e+00 6.75337100926379e-02 6.39429003162649e-04
3.47303921568627e+00 6.70759195373667e-02 6.37057738450897e-04
3.49441176470588e+00 6.66212322054137e-02 6.34683248833873e-04
3.51578431372549e+00 6.61696270609709e-02 6.32305782114796e-04
3.53715686274510e+00 6.57210832108262e-02 6.29925581049197e-04
3.55852941176471e+00 6.52755799033962e-02 6.27542883445916e-04
3.57990196078431e+00 6.48330965277665e-02 6.25157922264910e-04
3.60127450980392e+00 6.43936126127375e-02 6.22770925293786e-04
3.62264705882353e+00 6.39571078270730e-02 6.20382116505045e-04
3.64401960784314e+00 6.35235619749513e-02 6.17991715301902e-04
3.66539215686275e+00 6.30929549986615e-02 6.15599935751903e-04
3.68676470588235e+00 6.26652669764581e-02 6.13206987962119e-04
3.70813725490196e+00 6.22404781216385e-02 6.10813077732877e-04
3.72950980392157e+00 6.18185687816279e-02 6.08418406640760e-04
3.75088235294118e+00 6.13995194370704e-02 6.06023172119747e-04
3.77225490196078e+00 6.09833107009261e-02 6.03627567541130e-04
3.79362745098039e+00 6.05699233175741e-02 6.01231782291426e-04
3.81500000000000e+00 6.01593381619215e-02 5.98836001467926e-04
3.83637254901961e+00 5.97515362395723e-02 5.96440407100063e-04
3.85774509803922e+00 5.93464986827678e-02 5.94045177454774e-04
3.87911764705882e+00 5.89442067527141e-02 5.91650486331157e-04
3.90049019607843e+00 5.85446418376421e-02 5.89256504299074e-04
3.92186274509804e+00 5.81477854519461e-02 5.86863398375702e-04
3.94323529411765e+00 5.77536192353283e-02 5.84471332092023e-04
3.96460784313726e+00 5.73621249519497e-02 5.82080465557787e-04
3.98598039215686e+00 5.69732844895869e-02 5.79690955525649e-04
4.00735294117647e+00 5.65870798587936e-02 5.77302955453747e-04
4.02872549019608e+00 5.62034931920688e-02 5.74916615221115e-04
4.05009803921569e+00 5.58225067439619e-02 5.72532082230043e-04
4.07147058823529e+00 5.54441028874381e-02 5.70149500767210e-04
4.09284313725490e+00 5.50682641158939e-02 5.67769011355448e-04
4.11421568627451e+00 5.46949730413977e-02 5.65390751872318e-04
4.13558823529412e+00 5.43242123938854e-02 5.63014857249249e-04
4.15696078431373e+00 5.39559650203613e-02 5.60641459525642e-04
4.17833333333333e+00 5.35902138841041e-02 5.58270687901243e-04
4.19970588235294e+00 5.32269420638799e-02 5.55902668788041e-04
4.22107843137255e+00 5.28661327531586e-02 5.53537525861382e-04
4.24245098039216e+00 5.25077692593364e-02 5.51175379794776e-04
4.26382352941176e+00 5.21518350037910e-02 5.48816349257602e-04
4.28519607843137e+00 5.17983135186177e-02 5.46460550327917e-04
4.30656862745098e+00 5.14471884483792e-02 5.44108095896847e-04
4.32794117647059e+00 5.10984435485067e-02 5.41759096681545e-04
4.34931372549020e+00 5.07520626845486e-02 5.39413660945989e-04
4.37068627450980e+00 5.04080298314235e-02 5.37071894545397e-04
4.39205882352941e+00 5.00663290726789e-02 5.34733900969012e-04
4.41343137254902e+00 4.97269445997553e-02 5.32399781382401e-04
4.43480392156863e+00 4.93898607112549e-02 5.30069634669473e-04
4.45617647058824e+00 4.90550618122146e-02 5.27743557473010e-04
4.47754901960784e+00 4.87225324133850e-02 5.25421643950153e-04
4.49892156862745e+00 4.83922571312414e-02 5.23103986669332e-04
4.52029411764706e+00 4.80642206850758e-02 5.20790676075011e-04
4.54166666666667e+00 4.77384078984992e-02 5.18481799944642e-04
4.56303921568627e+00 4.74148036979986e-02 5.16177444299700e-04
4.58441176470588e+00 4.70933931122401e-02 5.13877693149279e-04
4.60578431372549e+00 4.67741612713750e-02 5.11582628525451e-04
4.62715686274510e+00 4.64570934063537e-02 5.09292330518143e-04
4.64852941176471e+00 4.61421748482409e-02 5.07006877309740e-04
4.66990196078431e+00 4.58293910275381e-02 5.04726345208647e-04
4.69127450980392e+00 4.55187274735087e-02 5.02450808422664e-04
4.71264705882353e+00 4.52101698141577e-02 5.00180339874188e-04
4.73401960784314e+00 4.49037037736089e-02 4.97915010708391e-04
4.75539215686275e+00 4.45993151734137e-02 4.95654889794596e-04
4.77676470588235e+00 4.42969899312349e-02 4.93400044554495e-04
4.79813725490196e+00 4.39967140601952e-02 4.91150540725061e-04
4.81950980392157e+00 4.36984736682298e-02 4.88906442388046e-04
4.84088235294118e+00 4.34022549574441e-02 4.86667811998805e-04
4.86225490196078e+00 4.31080442234754e-02 4.84434710415055e-04
4.88362745098039e+00 4.28158278548586e-02 4.82207196924784e-04
4.90500000000000e+00 4.25255923323965e-02 4.79985329036541e-04
4.92637254901961e+00 4.22373242291145e-02 4.77769163221496e-04
4.94774509803922e+00 4.19510102078896e-02 4.75558754461654e-04
4.96911764705882e+00 4.16666370225928e-02 4.73354155791711e-04
4.99049019607843e+00 4.13841915168868e-02 4.71155419053257e-04
5.01186274509804e+00 4.11036606236171e-02 4.68962594675793e-04
5.03323529411765e+00 4.08250313642072e-02 4.66775731701380e-04
5.05460784313725e+00 4.05482908480584e-02 4.64594877808706e-04
5.07598039215686e+00 4.02734262719537e-02 4.62420079336978e-04
5.09735294117647e+00 4.00004249194652e-02 4.60251381309396e-04
5.11872549019608e+00 3.97292741603657e-02 4.58088827239220e-04
5.14009803921569e+00 3.94599614505635e-02 4.55932459806186e-04
5.16147058823529e+00 3.91924743299563e-02 4.53782320441371e-04
5.18284313725490e+00 3.89268004234291e-02 4.51638448906265e-04
5.20421568627451e+00 3.86629274397544e-02 4.49500883980396e-04
5.22558823529412e+00 3.84008431710228e-02 4.47369663259260e-04
5.24696078431373e+00 3.81405354920790e-02 4.45244823174975e-04
5.26833333333333e+00 3.78819923599598e-02 4.43126399016405e-04
5.28970588235294e+00 3.76252018133382e-02 4.41014424949265e-04
5.31107843137255e+00 3.73701519719691e-02 4.38908934035855e-04
5.33245098039216e+00 3.71168310361402e-02 4.36809958055815e-04
5.35382352941177e+00 3.68652272865912e-02 4.34717528123532e-04
5.37519607843137e+00 3.66153290825674e-02 4.32631674306546e-04
5.39656862745098e+00 3.63671248626935e-02 4.30552425238646e-04
5.41794117647059e+00 3.61206031439653e-02 4.28479808747700e-04
5.43931372549020e+00 3.58757525212183e-02 4.26413851669045e-04
5.46068627450980e+00 3.56325616666002e-02 4.24354579863004e-04
5.48205882352941e+00 3.53910193290466e-02 4.22302018231860e-04
5.50343137254902e+00 3.51511143337607e-02 4.20256190736663e-04
5.52480392156863e+00 3.49128355816964e-02 4.18217120413956e-04
5.54617647058824e+00 3.46761720490446e-02 4.16184829391960e-04
5.56754901960784e+00 3.44411127867231e-02 4.14159338726262e-04
5.58892156862745e+00 3.42076469202844e-02 4.12140668959247e-04
5.61029411764706e+00 3.39757636481634e-02 4.10128839771990e-04
5.63166666666667e+00 3.37454522424337e-02 4.08123869631294e-04
5.65303921568627e+00 3.35167020478902e-02 4.06125776358654e-04
5.67441176470588e+00 3.32895024815562e-02 4.04134576959399e-04
5.69578431372549e+00 3.30638430321937e-02 4.02150287637091e-04
5.71715686274510e+00 3.28397132598171e-02 4.00172923807763e-04
5.73852941176471e+00 3.26171027952105e-02 3.98202500113973e-04
5.75990196078431e+00 3.23960013394477e-02 3.96239030438565e-04
5.78127450980392e+00 3.21763986634159e-02 3.94282527752980e-04
5.80264705882353e+00 3.19582846077146e-02 3.92333004628866e-04
5.82401960784314e+00 3.17416490810623e-02 3.90390472917913e-04
5.84539215686275e+00 3.15264820609594e-02 3.88454943427292e-04
5.86676470588235e+00 3.13127735928458e-02 3.86526426440121e-04
5.88813725490196e+00 3.11005137896403e-02 3.84604931557868e-04
5.90950980392157e+00 3.08896928312831e-02 3.82690467712552e-04
5.93088235294118e+00 3.06803009642816e-02 3.80783043178762e-04
5.95225490196078e+00 3.04723285012594e-02 3.78882665585665e-04
5.97362745098039e+00 3.02657658205076e-02 3.76989341928633e-04
5.99500000000000e+00 3.00606033655403e-02 3.75103078429093e-04
6.01637254901961e+00 2.98568316449871e-02 3.73223881003040e-04
6.03774509803922e+00 2.96544412311430e-02 3.71351754966434e-04
6.05911764705882e+00 2.94534227605490e-02 3.69486704736534e-04
6.08049019607843e+00 2.92537669332182e-02 3.67628734308497e-04
6.10186274509804e+00 2.90554645122055e-02 3.65777847109975e-04
6.12323529411765e+00 2.88585063231803e-02 3.63934046011519e-04
6.14460784313725e+00 2.86628832540018e-02 3.62097333336720e-04
6.16598039215686e+00 2.84685862542978e-02 3.60267710872378e-04
6.18735294117647e+00 2.82756063350457e-02 3.58445179878522e-04
6.20872549019608e+00 2.80839345681570e-02 3.56629740958894e-04
6.23009803921569e+00 2.78935620863664e-02 3.54821394490288e-04
6.25147058823529e+00 2.77044800819089e-02 3.53020140351377e-04
6.27284313725490e+00 2.75166798070305e-02 3.51225977647778e-04
6.29421568627451e+00 2.73301525732754e-02 3.49438905148858e-04
6.31558823529412e+00 2.71448897510840e-02 3.47658921153522e-04
6.33696078431373e+00 2.69608827693942e-02 3.45886023499096e-04
6.35833333333333e+00 2.67781231152442e-02 3.44120209569967e-04
6.37970588235294e+00 2.65966023333792e-02 3.42361476306209e-04
6.40107843137255e+00 2.64163120258599e-02 3.40609820212147e-04
6.42245098039216e+00 2.62372438516742e-02 3.38865237236731e-04
6.44382352941177e+00 2.60593895266244e-02 3.37127723167232e-04
6.46519607843137e+00 2.58827408221197e-02 3.35397273379563e-04
6.48656862745098e+00 2.57072895656242e-02 3.33673882585125e-04
6.50794117647059e+00 2.55330276400014e-02 3.31957545231422e-04
6.52931372549020e+00 2.53599469831381e-02 3.30248255378146e-04
6.55068627450980e+00 2.51880395875721e-02 3.28546006704790e-04
6.57205882352941e+00 2.50172975001207e-02 3.26850792517989e-04
6.59343137254902e+00 2.48477128215141e-02 3.25162605758869e-04
6.61480392156863e+00 2.46792777060288e-02 3.23481439010376e-04
6.63617647058824e+00 2.45119843611254e-02 3.21807284504270e-04
6.65754901960784e+00 2.43458250470875e-02 3.20140134011578e-04
6.67892156862745e+00 2.41807920769087e-02 3.18479979200904e-04
6.70029411764706e+00 2.40168778151988e-02 3.16826811410203e-04
6.72166666666667e+00 2.38540746785725e-02 3.15180621415461e-04
6.74303921568627e+00 2.36923751350501e-02 3.13541399795284e-04
