Energy (eV)          EEDF (eV^-(3/2))     First Anisotropy
2.25000000000000e-01 6.53204554756939e-02 1.06130727692034e-04
6.75000000000000e-01 6.09676216155885e-02 1.69984216774770e-04
1.12500000000000e+00 5.69048525211970e-02 2.10862692627789e-04
1.57500000000000e+00 5.31128188151476e-02 2.34645623983116e-04
2.02500000000000e+00 4.95734791938860e-02 2.49098727924671e-04
2.47500000000000e+00 4.62699945928266e-02 2.57435726051141e-04
2.92500000000000e+00 4.31866480713795e-02 2.61444458122683e-04
3.37500000000000e+00 4.03087700366911e-02 2.62267600712579e-04
3.82500000000000e+00 3.76226684503359e-02 2.60696082879721e-04
4.27500000000000e+00 3.51155636859044e-02 2.57305855084233e-04
4.72500000000000e+00 3.27755277275607e-02 2.52530958660519e-04
5.17500000000000e+00 3.05914274202953e-02 2.46706458455846e-04
5.62500000000000e+00 2.85528715018754e-02 2.40095506269374e-04
6.07500000000000e+00 2.66501611644880e-02 2.32907349125046e-04
6.52500000000000e+00 2.48742439108633e-02 2.25309835798315e-04
6.97500000000000e+00 2.32166704853399e-02 2.17438407327831e-04
7.42500000000000e+00 2.16695546749643e-02 2.09402745125887e-04
7.87500000000000e+00 2.02255357893708e-02 2.01291803295010e-04
8.32500000000000e+00 1.88777436409311e-02 1.93177692993782e-04
8.77500000000000e+00 1.76197658585638e-02 1.85118730369066e-04
9.22500000000000e+00 1.64456173796891e-02 1.77161861604317e-04
9.67500000000000e+00 1.53497119751837e-02 1.69344615248930e-04
1.01250000000000e+01 1.43268356718605e-02 1.61696689818236e-04
1.05750000000000e+01 1.33721219460236e-02 1.54241255884874e-04
1.10250000000000e+01 1.24810285700796e-02 1.46996031817876e-04
1.14750000000000e+01 1.16493160020474e-02 1.39974178050512e-04
1.19250000000000e+01 1.08730272151514e-02 1.33185044416620e-04
1.23750000000000e+01 1.01484688715325e-02 1.26634797480315e-04
1.28250000000000e+01 9.47219375050836e-03 1.20326949092531e-04
1.32750000000000e+01 8.84098434778178e-03 1.14262803095772e-04
1.37250000000000e+01 8.25183756756743e-03 1.08441833790333e-04
1.41750000000000e+01 7.70195043480671e-03 1.02862007208262e-04
1.46250000000000e+01 7.18870675949410e-03 9.75200542282187e-05
1.50750000000000e+01 6.70966468966806e-03 9.24117029703656e-05
1.55250000000000e+01 6.26254509384753e-03 8.75318766368582e-05
1.59750000000000e+01 5.84522071764127e-03 8.28748619376142e-05
1.64250000000000e+01 5.45570606294057e-03 7.84344524082929e-05
1.68750000000000e+01 5.09214794154386e-03 7.42040702467417e-05
1.73250000000000e+01 4.75281665827014e-03 7.01768697341575e-05
1.77750000000000e+01 4.43609778161344e-03 6.63458248437323e-05
1.82250000000000e+01 4.14048446278551e-03 6.27038032538210e-05
1.86750000000000e+01 3.86457026660332e-03 5.92436286600354e-05
1.91250000000000e+01 3.60704248011282e-03 5.59581330095364e-05
1.95750000000000e+01 3.36667586711367e-03 5.28402000519377e-05
2.00250000000000e+01 3.14232683887079e-03 4.98828014073263e-05
2.04750000000000e+01 2.93292801327890e-03 4.70790261869811e-05
2.09250000000000e+01 2.73748313659419e-03 4.44221050616354e-05
2.13750000000000e+01 2.55506234357240e-03 4.19054295516704e-05
2.18250000000000e+01 2.38479773346253e-03 3.95225672102256e-05
2.22750000000000e+01 2.22587924080799e-03 3.72672732812246e-05
2.27250000000000e+01 2.07755078141003e-03 3.51334993375567e-05
2.31750000000000e+01 1.93910665511695e-03 3.31153993383007e-05
2.36250000000000e+01 1.80988818832473e-03 3.12073334864072e-05
2.40750000000000e+01 1.68928060021527e-03 2.94038702183900e-05
2.45250000000000e+01 1.57671007782259e-03 2.76997866142506e-05
2.49750000000000e+01 1.47164104601125e-03 2.60900674781511e-05
2.54250000000000e+01 1.37357361937834e-03 2.45699033075055e-05
2.58750000000000e+01 1.28204122395598e-03 2.31346873395033e-05
2.63250000000000e+01 1.19660837739911e-03 2.17800118390686e-05
2.67750000000000e+01 1.11686861709753e-03 2.05016637704101e-05
2.72250000000000e+01 1.04244256635460e-03 1.92956199752085e-05
2.76750000000000e+01 9.72976129432310e-04 1.81580419637882e-05
2.81250000000000e+01 9.08138806875093e-04 1.70852704109979e-05
2.85750000000000e+01 8.47622123097412e-04 1.60738194357385e-05
2.90250000000000e+01 7.91138158753944e-04 1.51203707318805e-05
2.94750000000000e+01 7.38418180909903e-04 1.42217676085203e-05
2.99250000000000e+01 6.89211364494270e-04 1.33750089889559e-05
3.03750000000000e+01 6.43283598953005e-04 1.25772434102703e-05
3.08250000000000e+01 6.00416374424671e-04 1.18257630588627e-05
3.12750000000000e+01 5.60405742139251e-04 1.11179978715462e-05
3.17250000000000e+01 5.23061344094050e-04 1.04515097268434e-05
3.21750000000000e+01 4.88205507390199e-04 9.82398674676042e-06
3.26250000000000e+01 4.55672398920892e-04 9.23323772553461e-06
3.30750000000000e+01 4.25307236389626e-04 8.67718669856070e-06
3.35250000000000e+01 3.96965551904723e-04 8.15386766184726e-06
3.39750000000000e+01 3.70512504646547e-04 7.66141944988535e-06
3.44250000000000e+01 3.45822239337297e-04 7.19808077767758e-06
3.48750000000000e+01 3.22777287461187e-04 6.76218545084139e-06
3.53250000000000e+01 3.01268008386195e-04 6.35215774612455e-06
3.57750000000000e+01 2.81192067728429e-04 5.96650796332528e-06
3.62250000000000e+01 2.62453950477314e-04 5.60382814846509e-06
3.66750000000000e+01 2.44964506565219e-04 5.26278798709405e-06
3.71250000000000e+01 2.28640526719480e-04 4.94213086579545e-06
3.75750000000000e+01 2.13404346578851e-04 4.64067009927850e-06
3.80250000000000e+01 1.99183477190906e-04 4.35728531988833e-06
3.84750000000000e+01 1.85910260132405e-04 4.09091902590747e-06
3.89250000000000e+01 1.73521545611799e-04 3.84057328465632e-06
3.93750000000000e+01 1.61958392022385e-04 3.60530658611324e-06
3.98250000000000e+01 1.51165785516683e-04 3.38423084255580e-06
4.02750000000000e+01 1.41092378267855e-04 3.17650852956418e-06
4.07250000000000e+01 1.31690244172895e-04 2.98134996361831e-06
4.11750000000000e+01 1.22914650835309e-04 2.79801071145501e-06
4.16250000000000e+01 1.14723846742441e-04 2.62578912632271e-06
4.20750000000000e+01 1.07078862624913e-04 2.46402400627556e-06
4.25250000000000e+01 9.99433260530933e-05 2.31209236967920e-06
4.29750000000000e+01 9.32832883885246e-05 2.16940734315463e-06
4.34250000000000e+01 8.70670632669756e-05 2.03541615725898e-06
4.38750000000000e+01 8.12650758446899e-05 1.90959824529067e-06
4.43250000000000e+01 7.58497220905817e-05 1.79146344070826e-06
4.47750000000000e+01 7.07952374549394e-05 1.68055026876363e-06
4.52250000000000e+01 6.60775742898020e-05 1.57642432807075e-06
4.56750000000000e+01 6.16742874378151e-05 1.47867675795724e-06
4.61250000000000e+01 5.75644274452321e-05 1.38692278757729e-06
4.65750000000000e+01 5.37284408910031e-05 1.30080036289856e-06
4.70250000000000e+01 5.01480773577488e-05 1.21996884781203e-06
4.74750000000000e+01 4.68063026020148e-05 1.14410779575073e-06
4.79250000000000e+01 4.36872175107000e-05 1.07291578834058e-06
4.83750000000000e+01 4.07759824580772e-05 1.00610933774280e-06
4.88250000000000e+01 3.80587467035224e-05 9.43421849482366e-07
4.92750000000000e+01 3.55225824940474e-05 8.84602642690031e-07
4.97250000000000e+01 3.31554235581178e-05 8.29416024815791e-07
5.01750000000000e+01 3.09460076981284e-05 7.77640417999721e-07
5.06250000000000e+01 2.88838232084098e-05 7.29067534410566e-07
5.10750000000000e+01 2.69590588638396e-05 6.83501597983932e-07
5.15250000000000e+01 2.51625572411187e-05 6.40758610109715e-07
5.19750000000000e+01 2.34857711506328e-05 6.00665656932606e-07
5.24250000000000e+01 2.19207229716122e-05 5.63060256039911e-07
5.28750000000000e+01 2.04599666971216e-05 5.27789740417555e-07
5.33250000000000e+01 1.90965525083015e-05 4.94710677657868e-07
5.37750000000000e+01 1.78239937093164e-05 4.63688322501658e-07
5.42250000000000e+01 1.66362358656958e-05 4.34596100892205e-07
5.46750000000000e+01 1.55276279992403e-05 4.07315123810007e-07
5.51250000000000e+01 1.44928957024442e-05 3.81733729244655e-07
5.55750000000000e+01 1.35271160445242e-05 3.57747050744079e-07
5.60250000000000e+01 1.26256941496628e-05 3.35256611061587e-07
5.64750000000000e+01 1.17843413360351e-05 3.14169939497843e-07
5.69250000000000e+01 1.09990547116092e-05 2.94400211608212e-07
5.73750000000000e+01 1.02660981296454e-05 2.75865910015788e-07
5.78250000000000e+01 9.58198441328502e-06 2.58490505137177e-07
5.82750000000000e+01 8.94345876466003e-06 2.42202154691601e-07
5.87250000000000e+01 8.34748327958849e-06 2.26933420924498e-07
5.91750000000000e+01 7.79122249418212e-06 2.12621004534369e-07
5.96250000000000e+01 7.27202989460100e-06 1.99205494346443e-07
6.00750000000000e+01 6.78743532577321e-06 1.86631131828873e-07
6.05250000000000e+01 6.33513323917405e-06 1.74845589596636e-07
6.09750000000000e+01 5.91297172375132e-06 1.63799763095394e-07
6.14250000000000e+01 5.51894226780952e-06 1.53447574702175e-07
6.18750000000000e+01 5.15117020314293e-06 1.43745789522088e-07
6.23250000000000e+01 4.80790578595402e-06 1.34653842200480e-07
6.27750000000000e+01 4.48751587212284e-06 1.26133674107993e-07
6.32250000000000e+01 4.18847614722103e-06 1.18149580292090e-07
6.36750000000000e+01 3.90936387430327e-06 1.10668065622790e-07
6.41250000000000e+01 3.64885112497238e-06 1.03657709592721e-07
6.45750000000000e+01 3.40569846151379e-06 9.70890392622545e-08
6.50250000000000e+01 3.17874904004070e-06 9.09344098694678e-08
6.54750000000000e+01 2.96692310659481e-06 8.51678926521164e-08
6.59250000000000e+01 2.76921286001663e-06 7.97651694547437e-08
6.63750000000000e+01 2.58467765714454e-06 7.47034337185744e-08
6.68250000000000e+01 2.41243953753055e-06 6.99612974750265e-08
6.72750000000000e+01 2.25167904638067e-06 6.55187039855755e-08
6.77250000000000e+01 2.10163133584671e-06 6.13568456914017e-08
6.81750000000000e+01 1.96158252612087e-06 5.74580871557930e-08
6.86250000000000e+01 1.83086630902014e-06 5.38058927007266e-08
6.90750000000000e+01 1.70886077790157e-06 5.03847584564795e-08
6.95250000000000e+01 1.59498546882608e-06 4.71801485595501e-08
6.99750000000000e+01 1.48869859889363e-06 4.41784352496935e-08
7.04250000000000e+01 1.38949448861061e-06 4.13668426315043e-08
7.08750000000000e+01 1.29690115602589e-06 3.87333938797881e-08
7.13250000000000e+01 1.21047807118912e-06 3.62668616809759e-08
7.17750000000000e+01 1.12981406024785e-06 3.39567217151172e-08
7.22250000000000e+01 1.05452534921163e-06 3.17931089945511e-08
7.26750000000000e+01 9.84253738076120e-07 2.97667768862619e-08
7.31250000000000e+01 9.18664896620140e-07 2.78690586552058e-08
7.35750000000000e+01 8.57446773767623e-07 2.60918313755756e-08
7.40250000000000e+01 8.00308112946772e-07 2.44274820660927e-08
7.44750000000000e+01 7.46977066382903e-07 2.28688759140076e-08
7.49250000000000e+01 6.97199901732244e-07 2.14093264605851e-08
7.53750000000000e+01 6.50739794903263e-07 2.00425676284645e-08
7.58250000000000e+01 6.07375703322128e-07 1.87627274784676e-08
7.62750000000000e+01 5.66901314281679e-07 1.75643035901714e-08
7.67250000000000e+01 5.29124063370459e-07 1.64421399669283e-08
7.71750000000000e+01 4.93864218311822e-07 1.53914053719929e-08
7.76250000000000e+01 4.60954023854292e-07 1.44075730080488e-08
7.80750000000000e+01 4.30236903644852e-07 1.34864014577242e-08
7.85250000000000e+01 4.01566715287902e-07 1.26239168076697e-08
7.89750000000000e+01 3.74807055045718e-07 1.18163958834590e-08
7.94250000000000e+01 3.49830608872369e-07 1.10603505269844e-08
7.98750000000000e+01 3.26518546693536e-07 1.03525128521657e-08
8.03250000000000e+01 3.04759957050402e-07 9.68982141869052e-09
8.07750000000000e+01 2.84451319417812e-07 9.06940826717325e-09
8.12250000000000e+01 2.65496011686183e-07 8.48858676256510e-09
8.16750000000000e+01 2.47803850463897e-07 7.94484019589224e-09
8.21250000000000e+01 2.31290662013094e-07 7.43581109744370e-09
8.25750000000000e+01 2.15877881777504e-07 6.95929121739604e-09
8.30250000000000e+01 2.01492180596999e-07 6.51321213255303e-09
8.34750000000000e+01 1.88065115830521e-07 6.09563644040892e-09
8.39250000000000e+01 1.75532805727520e-07 5.70474950412009e-09
8.43750000000000e+01 1.63835625498680e-07 5.33885171420375e-09
8.48250000000000e+01 1.52917923639931e-07 4.99635123488132e-09
8.52750000000000e+01 1.42727757160094e-07 4.67575720495479e-09
8.57250000000000e+01 1.33216644452471e-07 4.37567336495671e-09
8.61750000000000e+01 1.24339334634609e-07 4.09479208405385e-09
8.66250000000000e+01 1.16053592258835e-07 3.83188876181854e-09
8.70750000000000e+01 1.08319996369283e-07 3.58581658151597e-09
8.75250000000000e+01 1.01101752949386e-07 3.35550159299679e-09
8.79750000000000e+01 9.43645198675173e-08 3.13993810463760e-09
8.84250000000000e+01 8.80762434879344e-08 2.93818436504264e-09
8.88750000000000e+01 8.22070061696590e-08 2.74935851641246e-09
8.93250000000000e+01 7.67288839277544e-08 2.57263480260594e-09
8.97750000000000e+01 7.16158135797883e-08 2.40724001597309e-09
9.02250000000000e+01 6.68434687454093e-08 2.25245016802350e-09
9.06750000000000e+01 6.23891441090812e-08 2.10758736992138e-09
9.11250000000000e+01 5.82316473953341e-08 1.97201690966810e-09
9.15750000000000e+01 5.43511985425833e-08 1.84514451364918e-09
9.20250000000000e+01 5.07293355958192e-08 1.72641378098889e-09
9.24750000000000e+01 4.73488268704319e-08 1.61530377987423e-09
9.29250000000000e+01 4.41935889692767e-08 1.51132679568483e-09
9.33750000000000e+01 4.12486102629297e-08 1.41402622139844e-09
9.38250000000000e+01 3.84998794690767e-08 1.32297458133527e-09
9.42750000000000e+01 3.59343189912395e-08 1.23777167986208e-09
9.47250000000000e+01 3.35397226996857e-08 1.15804286719950e-09
9.51750000000000e+01 3.13046978585029e-08 1.08343741496687e-09
9.56250000000000e+01 2.92186109225446e-08 1.01362699455853e-09
9.60750000000000e+01 2.72715369463678e-08 9.48304251877791e-10
9.65250000000000e+01 2.54542123644642e-08 8.87181472359131e-10
9.69750000000000e+01 2.37579909181296e-08 8.29989330589305e-10
9.74250000000000e+01 2.21748025192848e-08 7.76475719194131e-10
9.78750000000000e+01 2.06971148555346e-08 7.26404651991767e-10
9.83250000000000e+01 1.93178975537956e-08 6.79555236726734e-10
9.87750000000000e+01 1.80305887319918e-08 6.35720712992660e-10
9.92250000000000e+01 1.68290637796841e-08 5.94707551227345e-10
9.96750000000000e+01 1.57076062191004e-08 5.56334608922082e-10
1.00125000000000e+02 1.46608805079323e-08 5.20432340429504e-10
1.00575000000000e+02 1.36839066545036e-08 4.86842056981400e-10
1.01025000000000e+02 1.27720365245359e-08 4.55415233740909e-10
1.01475000000000e+02 1.19209317267881e-08 4.26012860913304e-10
1.01925000000000e+02 1.11265429723556e-08 3.98504836126722e-10
1.02375000000000e+02 1.03850908094271e-08 3.72769395469778e-10
1.02825000000000e+02 9.69304764184218e-09 3.48692580737603e-10
1.03275000000000e+02 9.04712094589817e-09 3.26167740592016e-10
1.03725000000000e+02 8.44423760555804e-09 3.05095063486244e-10
1.04175000000000e+02 7.88152929153104e-09 2.85381140340087e-10
1.04625000000000e+02 7.35631881466424e-09 2.66938555078538e-10
1.05075000000000e+02 6.86610738871856e-09 2.49685501265906e-10
1.05525000000000e+02 6.40856274192995e-09 2.33545423179150e-10
1.05975000000000e+02 5.98150802079397e-09 2.18446679768745e-10
1.06425000000000e+02 5.58291143328150e-09 2.04322230053415e-10
1.06875000000000e+02 5.21087658221146e-09 1.91109338586994e-10
1.07325000000000e+02 4.86363344278950e-09 1.78749299721770e-10
1.07775000000000e+02 4.53952994138684e-09 1.67187179473359e-10
1.08225000000000e+02 4.23702409549360e-09 1.56371573867802e-10
1.08675000000000e+02 3.95467667745107e-09 1.46254382722396e-10
1.09125000000000e+02 3.69114436705923e-09 1.36790597878212e-10
1.09575000000000e+02 3.44517336048180e-09 1.27938104964451e-10
1.10025000000000e+02 3.21559340504196e-09 1.19657497833084e-10
1.10475000000000e+02 3.00131223152826e-09 1.11911904856837e-10
1.10925000000000e+02 2.80131035752128e-09 1.04666826334773e-10
1.11375000000000e+02 2.61463623701695e-09 9.78899822976557e-11
1.11825000000000e+02 2.44040173327000e-09 9.15511700502083e-11
1.12275000000000e+02 2.27777789331871e-09 8.56221308294441e-11
1.12725000000000e+02 2.12599100408745e-09 8.00764249976973e-11
1.13175000000000e+02 1.98431891130323e-09 7.48893152258952e-11
1.13625000000000e+02 1.85208758371287e-09 7.00376571572078e-11
1.14075000000000e+02 1.72866790625432e-09 6.54997970736357e-11
1.14525000000000e+02 1.61347268692502e-09 6.12554761184415e-11
1.14975000000000e+02 1.50595386310716e-09 5.72857406557701e-11
1.15425000000000e+02 1.40559989405805e-09 5.35728583754418e-11
1.15875000000000e+02 1.31193332716025e-09 5.01002397758452e-11
1.16325000000000e+02 1.22450852635215e-09 4.68523646812328e-11
1.16775000000000e+02 1.14290955193180e-09 4.38147134715996e-11
1.17225000000000e+02 1.06674818164662e-09 4.09737027238294e-11
1.17675000000000e+02 9.95662063654085e-10 3.83166249819919e-11
1.18125000000000e+02 9.29312992565576e-10 3.58315923926493e-11
1.18575000000000e+02 8.67385300371581e-10 3.35074839578753e-11
1.19025000000000e+02 8.09584354592577e-10 3.13338961744564e-11
1.19475000000000e+02 7.55635156510376e-10 2.93010968425153e-11
1.19925000000000e+02 7.05281032810730e-10 2.73999818406217e-11
1.20375000000000e+02 6.58282414412436e-10 2.56220346774128e-11
1.20825000000000e+02 6.14415696673012e-10 2.39592886418691e-11
1.21275000000000e+02 5.73472175548142e-10 2.24042913857479e-11
1.21725000000000e+02 5.35257054643481e-10 2.09500717823128e-11
1.22175000000000e+02 4.99588518434689e-10 1.95901089154516e-11
1.22625000000000e+02 4.66296867246358e-10 1.83183030626017e-11
1.23075000000000e+02 4.35223709874335e-10 1.71289485436283e-11
1.23525000000000e+02 4.06221210010196e-10 1.60167083159789e-11
1.23975000000000e+02 3.79151382882595e-10 1.49765902040848e-11
1.24425000000000e+02 3.53885438769128e-10 1.40039246581530e-11
1.24875000000000e+02 3.30303170255342e-10 1.30943439441926e-11
1.25325000000000e+02 3.08292380325673e-10 1.22437626734076e-11
1.25775000000000e+02 2.87748348565335e-10 1.14483595849638e-11
1.26225000000000e+02 2.68573332933530e-10 1.07045605016443e-11
1.26675000000000e+02 2.50676104737564e-10 1.00090223830630e-11
1.27125000000000e+02 2.33971514595420e-10 9.35861840592831e-12
1.27575000000000e+02 2.18380087321788e-10 8.75042400536710e-12
1.28025000000000e+02 2.03827643810129e-10 8.18170381554884e-12
1.28475000000000e+02 1.90244948111822e-10 7.64989945180517e-12
1.28925000000000e+02 1.77567378033300e-10 7.15261808014870e-12
1.29375000000000e+02 1.65734617683977e-10 6.68762172356126e-12
1.29825000000000e+02 1.54690370512217e-10 6.25281725766957e-12
1.30275000000000e+02 1.44382091464047e-10 5.84624705146593e-12
1.30725000000000e+02 1.34760736990323e-10 5.46608021157585e-12
1.31175000000000e+02 1.25780531712946e-10 5.11060439123771e-12
1.31625000000000e+02 1.17398750640014e-10 4.77821812765206e-12
1.32075000000000e+02 1.09575515893749e-10 4.46742367369127e-12
1.32525000000000e+02 1.02273606984101e-10 4.17682029214389e-12
1.32975000000000e+02 9.54582837253614e-11 3.90509798271199e-12
1.33425000000000e+02 8.90971209532892e-11 3.65103161389254e-12
1.33875000000000e+02 8.31598542563781e-11 3.41347543366461e-12
1.34325000000000e+02 7.76182359873071e-11 3.19135793457967e-12
1.34775000000000e+02 7.24459008695201e-11 2.98367705042067e-12
1.35225000000000e+02 6.76182405595329e-11 2.78949566306356e-12
1.35675000000000e+02 6.31122865681765e-11 2.60793739954822e-12
1.36125000000000e+02 5.89066009837501e-11 2.43818270065195e-12
1.36575000000000e+02 5.49811744771809e-11 2.27946514346120e-12
1.37025000000000e+02 5.13173311039302e-11 2.13106800156381e-12
1.37475000000000e+02 4.78976394497245e-11 1.99232102753726e-12
1.37925000000000e+02 4.47058296973690e-11 1.86259744339489e-12
1.38375000000000e+02 4.17267162200759e-11 1.74131112557469e-12
1.38825000000000e+02 3.89461253330280e-11 1.62791397191880e-12
1.39275000000000e+02 3.63508278594459e-11 1.52189343890020e-12
1.39725000000000e+02 3.39284761903254e-11 1.42277023810886e-12
1.40175000000000e+02 3.16675455383982e-11 1.33009618171773e-12
1.40625000000000e+02 2.95572791068194e-11 1.24345216731081e-12
1.41075000000000e+02 2.75876369117115e-11 1.16244629307518e-12
1.41525000000000e+02 2.57492480150799e-11 1.08671209493880e-12
1.41975000000000e+02 2.40333659408365e-11 1.01590689777823e-12
