Energy (eV)          EEDF (eV^-(3/2))     First Anisotropy
1.49000000000000e-02 1.38126518099661e+00 1.59339033355991e-03
4.47000000000000e-02 1.33441712502955e+00 2.59524514283342e-03
7.45000000000000e-02 1.28915800388695e+00 3.33222278780878e-03
1.04300000000000e-01 1.24543392602892e+00 3.83805536263772e-03
1.34100000000000e-01 1.20319282774266e+00 4.21730275042566e-03
1.63900000000000e-01 1.16238441114841e+00 4.51124672448547e-03
1.93700000000000e-01 1.12296008430813e+00 4.74211080117066e-03
2.23500000000000e-01 1.08487290336546e+00 4.92381122035266e-03
2.53300000000000e-01 1.04807751664809e+00 5.06588993496711e-03
2.83100000000000e-01 1.01253011066605e+00 5.17529853102499e-03
3.12900000000000e-01 9.78188357941507e-01 5.25732540640380e-03
3.42700000000000e-01 9.45011366608027e-01 5.31612573336510e-03
3.72500000000000e-01 9.12959631719286e-01 5.35504655117463e-03
4.02300000000000e-01 8.81994988209208e-01 5.37683742022187e-03
4.32100000000000e-01 8.52080565447555e-01 5.38379304639059e-03
4.61900000000000e-01 8.23180743336842e-01 5.37785338679150e-03
4.91700000000000e-01 7.95261109898302e-01 5.36067606136944e-03
5.21500000000000e-01 7.68288420296401e-01 5.33369008978151e-03
5.51300000000000e-01 7.42230557253105e-01 5.29813665746870e-03
5.81100000000000e-01 7.17056492804770e-01 5.25510063941665e-03
6.10900000000000e-01 6.92736251356116e-01 5.20553538961983e-03
6.40700000000000e-01 6.69240873987289e-01 5.15028252610768e-03
6.70500000000000e-01 6.46542383971509e-01 5.09008793137685e-03
7.00300000000000e-01 6.24613753462258e-01 5.02561484554680e-03
7.30100000000000e-01 6.03428871310319e-01 4.95745469445748e-03
7.59900000000000e-01 5.82962511972365e-01 4.88613613038346e-03
7.89700000000000e-01 5.63190305474067e-01 4.81213264582750e-03
8.19500000000000e-01 5.44088708391953e-01 4.73586903601675e-03
8.49300000000000e-01 5.25634975819475e-01 4.65772692341283e-03
8.79100000000000e-01 5.07807134283888e-01 4.57804951116315e-03
9.08900000000000e-01 4.90583955581711e-01 4.49714569746974e-03
9.38700000000000e-01 4.73944931501594e-01 4.41529365621153e-03
9.68500000000000e-01 4.57870249404513e-01 4.33274396863635e-03
9.98300000000000e-01 4.42340768632202e-01 4.24972237497854e-03
1.02810000000000e+00 4.27337997715730e-01 4.16643220233130e-03
1.05790000000000e+00 4.12844072357104e-01 4.08305651518428e-03
1.08770000000000e+00 3.98841734157645e-01 3.99976002712269e-03
1.11750000000000e+00 3.85314310067847e-01 3.91669080582227e-03
1.14730000000000e+00 3.72245692534217e-01 3.83398179832133e-03
1.17710000000000e+00 3.59620320319481e-01 3.75175219935246e-03
1.20690000000000e+00 3.47423159973297e-01 3.67010868207199e-03
1.23670000000000e+00 3.35639687931429e-01 3.58914650768373e-03
1.26650000000000e+00 3.24255873222055e-01 3.50895052809584e-03
1.29630000000000e+00 3.13258160758623e-01 3.42959609378200e-03
1.32610000000000e+00 3.02633455199356e-01 3.35114987736975e-03
1.35590000000000e+00 2.92369105354200e-01 3.27367062208940e-03
1.38570000000000e+00 2.82452889120625e-01 3.19720982304118e-03
1.41550000000000e+00 2.72872998930364e-01 3.12181234823835e-03
1.44530000000000e+00 2.63618027689749e-01 3.04751700553217e-03
1.47510000000000e+00 2.54676955196904e-01 2.97435706079210e-03
1.50490000000000e+00 2.46039135019626e-01 2.90236071208645e-03
1.53470000000000e+00 2.37694281818326e-01 2.83155152406585e-03
1.56450000000000e+00 2.29632459098927e-01 2.76194882628069e-03
1.59430000000000e+00 2.21844067381156e-01 2.69356807875543e-03
1.62410000000000e+00 2.14319832768124e-01 2.62642120778564e-03
1.65390000000000e+00 2.07050795903584e-01 2.56051691461163e-03
1.68370000000000e+00 2.00028301303731e-01 2.49586095934890e-03
1.71350000000000e+00 1.93243987050830e-01 2.43245642231473e-03
1.74330000000000e+00 1.86689774836400e-01 2.37030394467786e-03
1.77310000000000e+00 1.80357860342109e-01 2.30940195017019e-03
1.80290000000000e+00 1.74240703946906e-01 2.24974684943278e-03
1.83270000000000e+00 1.68331021749347e-01 2.19133322842041e-03
1.86250000000000e+00 1.62621776894413e-01 2.13415402215689e-03
1.89230000000000e+00 1.57106171194489e-01 2.07820067501563e-03
1.92210000000000e+00 1.51777637034540e-01 2.02346328859448e-03
1.95190000000000e+00 1.46629829551830e-01 1.96993075815939e-03
1.98170000000000e+00 1.41656619080886e-01 1.91759089854640e-03
2.01150000000000e+00 1.36852083854698e-01 1.86643056033541e-03
2.04130000000000e+00 1.32210502953479e-01 1.81643573703969e-03
2.07110000000000e+00 1.27726349492572e-01 1.76759166399337e-03
2.10090000000000e+00 1.23394284041405e-01 1.71988290956280e-03
2.13070000000000e+00 1.19209148265655e-01 1.67329345925615e-03
2.16050000000000e+00 1.15165958785048e-01 1.62780679325995e-03
2.19030000000000e+00 1.11259901239481e-01 1.58340595788880e-03
2.22010000000000e+00 1.07486324556403e-01 1.54007363139613e-03
2.24990000000000e+00 1.03840735412632e-01 1.49779218455910e-03
2.27970000000000e+00 1.00318792883999e-01 1.45654373641896e-03
2.30950000000000e+00 9.69163032764746e-02 1.41631020552865e-03
2.33930000000000e+00 9.36292151325889e-02 1.37707335703314e-03
2.36910000000000e+00 9.04536144072322e-02 1.33881484588343e-03
2.39890000000000e+00 8.73857198070695e-02 1.30151625646276e-03
2.42870000000000e+00 8.44218782880290e-02 1.26515913888296e-03
2.45850000000000e+00 8.15585607055011e-02 1.22972504218993e-03
2.48830000000000e+00 7.87923576120685e-02 1.19519554470022e-03
2.51810000000000e+00 7.61199751977642e-02 1.16155228167408e-03
2.54790000000000e+00 7.35382313680222e-02 1.12877697051597e-03
2.57770000000000e+00 7.10440519546517e-02 1.09685143367994e-03
2.60750000000000e+00 6.86344670553232e-02 1.06575761944446e-03
2.63730000000000e+00 6.63066074972067e-02 1.03547762070995e-03
2.66710000000000e+00 6.40577014205522e-02 1.00599369196125e-03
2.69690000000000e+00 6.18850709781448e-02 9.77288264527646e-04
2.72670000000000e+00 5.97861291467020e-02 9.49343960263424e-04
2.75650000000000e+00 5.77583766464203e-02 9.22143603763924e-04
2.78630000000000e+00 5.57993989649984e-02 8.95670233223737e-04
2.81610000000000e+00 5.39068634825981e-02 8.69907110036535e-04
2.84590000000000e+00 5.20785166943161e-02 8.44837727229191e-04
2.87570000000000e+00 5.03121815268605e-02 8.20445816816477e-04
2.90550000000000e+00 4.86057547462374e-02 7.96715356156786e-04
2.93530000000000e+00 4.69572044533607e-02 7.73630573383857e-04
2.96510000000000e+00 4.53645676646015e-02 7.51175951984357e-04
2.99490000000000e+00 4.38259479743991e-02 7.29336234586472e-04
3.02470000000000e+00 4.23395132971474e-02 7.08096426020230e-04
3.05450000000000e+00 4.09034936856698e-02 6.87441795706155e-04
3.08430000000000e+00 3.95161792236839e-02 6.67357879425048e-04
3.11410000000000e+00 3.81759179897481e-02 6.47830480518152e-04
3.14390000000000e+00 3.68811140902631e-02 6.28845670563562e-04
3.17370000000000e+00 3.56302257591889e-02 6.10389789571640e-04
3.20350000000000e+00 3.44217635222123e-02 5.92449445739345e-04
3.23330000000000e+00 3.32542884231805e-02 5.75011514800694e-04
3.26310000000000e+00 3.21264103106884e-02 5.58063139007947e-04
3.29290000000000e+00 3.10367861827786e-02 5.41591725775803e-04
3.32270000000000e+00 2.99841185877850e-02 5.25584946018786e-04
3.35250000000000e+00 2.89671540794132e-02 5.10030732209756e-04
3.38230000000000e+00 2.79846817242212e-02 4.94917276185680e-04
3.41210000000000e+00 2.70355316597198e-02 4.80233026725003e-04
3.44190000000000e+00 2.61185737013793e-02 4.65966686919192e-04
3.47170000000000e+00 2.52327159968805e-02 4.52107211359527e-04
3.50150000000000e+00 2.43769037260103e-02 4.38643803158728e-04
3.53130000000000e+00 2.35501178446522e-02 4.25565910825601e-04
3.56110000000000e+00 2.27513738713763e-02 4.12863225009647e-04
3.59090000000000e+00 2.19797207151847e-02 4.00525675131330e-04
3.62070000000000e+00 2.12342395430161e-02 3.88543425912591e-04
3.65050000000000e+00 2.05140426856601e-02 3.76906873821167e-04
3.68030000000000e+00 1.98182725807807e-02 3.65606643441242e-04
3.71010000000000e+00 1.91461007517878e-02 3.54633583782071e-04
3.73990000000000e+00 1.84967268213428e-02 3.43978764535366e-04
3.76970000000000e+00 1.78693775583227e-02 3.33633472291350e-04
3.79950000000000e+00 1.72633059571081e-02 3.23589206722742e-04
3.82930000000000e+00 1.66777903480985e-02 3.13837676745171e-04
3.85910000000000e+00 1.61121335383969e-02 3.04370796661812e-04
3.88890000000000e+00 1.55656619816385e-02 2.95180682299535e-04
3.91870000000000e+00 1.50377249759769e-02 2.86259647143180e-04
3.94850000000000e+00 1.45276938892717e-02 2.77600198474055e-04
3.97830000000000e+00 1.40349614105556e-02 2.69195033518307e-04
4.00810000000000e+00 1.35589408268884e-02 2.61037035610272e-04
4.03790000000000e+00 1.30990653247392e-02 2.53119270375501e-04
4.06770000000000e+00 1.26547873150621e-02 2.45434981937749e-04
4.09750000000000e+00 1.22255777812640e-02 2.37977589153838e-04
4.12730000000000e+00 1.18109256492867e-02 2.30740681879919e-04
4.15710000000000e+00 1.14103371790545e-02 2.23718017272357e-04
4.18690000000000e+00 1.10233353765609e-02 2.16903516126129e-04
4.21670000000000e+00 1.06494594258965e-02 2.10291259253347e-04
4.24650000000000e+00 1.02882641405399e-02 2.03875483904217e-04
4.27630000000000e+00 9.93931943325924e-03 1.97650580232555e-04
4.30610000000000e+00 9.60220980399330e-03 1.91611087807679e-04
4.33590000000000e+00 9.27653384510155e-03 1.85751692174309e-04
4.36570000000000e+00 8.96190376339486e-03 1.80067221461907e-04
4.39550000000000e+00 8.65794491837719e-03 1.74552643044696e-04
4.42530000000000e+00 8.36429537614872e-03 1.69203060253398e-04
4.45510000000000e+00 8.08060547843911e-03 1.64013709139607e-04
4.48490000000000e+00 7.80653742625782e-03 1.58979955293538e-04
4.51470000000000e+00 7.54176487766557e-03 1.54097290715746e-04
4.54450000000000e+00 7.28597255918818e-03 1.49361330743301e-04
4.57430000000000e+00 7.03885589040995e-03 1.44767811030769e-04
4.60410000000000e+00 6.80012062129963e-03 1.40312584586237e-04
4.63390000000000e+00 6.56948248183716e-03 1.35991618862541e-04
4.66370000000000e+00 6.34666684352388e-03 1.31800992903714e-04
4.69350000000000e+00 6.13140839237324e-03 1.27736894546642e-04
4.72330000000000e+00 5.92345081299265e-03 1.23795617677783e-04
4.75310000000000e+00 5.72254648338019e-03 1.19973559544770e-04
4.78290000000000e+00 5.52845618007288e-03 1.16267218122636e-04
4.81270000000000e+00 5.34094879329537e-03 1.12673189534324e-04
4.84250000000000e+00 5.15980105176979e-03 1.09188165525119e-04
4.87230000000000e+00 4.98479725685928e-03 1.05808930990556e-04
4.90210000000000e+00 4.81572902572841e-03 1.02532361557335e-04
4.93190000000000e+00 4.65239504321486e-03 9.93554212167328e-05
4.96170000000000e+00 4.49460082211670e-03 9.62751600099344e-05
4.99150000000000e+00 4.34215847161008e-03 9.32887117647060e-05
5.02130000000000e+00 4.19488647352133e-03 9.03932918827847e-05
5.05110000000000e+00 4.05260946618725e-03 8.75861951773392e-05
5.08090000000000e+00 3.91515803564619e-03 8.48647937598199e-05
5.11070000000000e+00 3.78236851391115e-03 8.22265349755205e-05
5.14050000000000e+00 3.65408278408490e-03 7.96689393871205e-05
5.17030000000000e+00 3.53014809208497e-03 7.71895988054878e-05
5.20010000000000e+00 3.41041686475420e-03 7.47861743670084e-05
5.22990000000000e+00 3.29474653414057e-03 7.24563946566742e-05
5.25970000000000e+00 3.18299936773672e-03 7.01980538761771e-05
5.28950000000000e+00 3.07504230447735e-03 6.80090100562384e-05
5.31930000000000e+00 2.97074679629892e-03 6.58871833123923e-05
5.34910000000000e+00 2.86998865507325e-03 6.38305541434477e-05
5.37890000000000e+00 2.77264790473257e-03 6.18371617718460e-05
5.40870000000000e+00 2.67860863840999e-03 5.99051025251304e-05
5.43850000000000e+00 2.58775888042542e-03 5.80325282577391e-05
5.46830000000000e+00 2.49999045295233e-03 5.62176448123440e-05
5.49810000000000e+00 2.41519884720687e-03 5.44587105199545e-05
5.52790000000000e+00 2.33328309900574e-03 5.27540347380044e-05
5.55770000000000e+00 2.25414566854483e-03 5.11019764256538e-05
5.58750000000000e+00 2.17769232425530e-03 4.95009427555352e-05
5.61730000000000e+00 2.10383203059893e-03 4.79493877611795e-05
5.64710000000000e+00 2.03247683966908e-03 4.64458110193674e-05
5.67690000000000e+00 1.96354178646818e-03 4.49887563666581e-05
5.70670000000000e+00 1.89694478773711e-03 4.35768106493506e-05
5.73650000000000e+00 1.83260654421591e-03 4.22086025061456e-05
5.76630000000000e+00 1.77045044621953e-03 4.08828011827824e-05
5.79610000000000e+00 1.71040248241613e-03 3.95981153779341e-05
5.82590000000000e+00 1.65239115169932e-03 3.83532921196536e-05
5.85570000000000e+00 1.59634737804941e-03 3.71471156716763e-05
5.88550000000000e+00 1.54220442828233e-03 3.59784064688849e-05
5.91530000000000e+00 1.48989783258818e-03 3.48460200812666e-05
5.94510000000000e+00 1.43936530776487e-03 3.37488462056917e-05
5.97490000000000e+00 1.39054668305550e-03 3.26858076848571e-05
6.00470000000000e+00 1.34338382850097e-03 3.16558595527493e-05
6.03450000000000e+00 1.29782058572276e-03 3.06579881059918e-05
6.06430000000000e+00 1.25380270105324e-03 2.96912100004538e-05
6.09410000000000e+00 1.21127776093406e-03 2.87545713725042e-05
6.12390000000000e+00 1.17019512950558e-03 2.78471469843128e-05
6.15370000000000e+00 1.13050588831303e-03 2.69680393926035e-05
6.18350000000000e+00 1.09216277805772e-03 2.61163781402817e-05
6.21330000000000e+00 1.05512014232382e-03 2.52913189703662e-05
6.24310000000000e+00 1.01933387321373e-03 2.44920430616693e-05
6.27290000000000e+00 9.84761358827338e-04 2.37177562856753e-05
6.30270000000000e+00 9.51361432522640e-04 2.29676884840837e-05
6.33250000000000e+00 9.19094323897231e-04 2.22410927664909e-05
6.36230000000000e+00 8.87921611432367e-04 2.15372448276967e-05
6.39210000000000e+00 8.57806176743191e-04 2.08554422841321e-05
6.42190000000000e+00 8.28712160380634e-04 2.01950040289151e-05
6.45170000000000e+00 8.00604919132379e-04 1.95552696050534e-05
6.48150000000000e+00 7.73450984772037e-04 1.89355985963198e-05
6.51130000000000e+00 7.47218024207415e-04 1.83353700353425e-05
6.54110000000000e+00 7.21874800980432e-04 1.77539818284555e-05
6.57090000000000e+00 6.97391138072827e-04 1.71908501968695e-05
6.60070000000000e+00 6.73737881973381e-04 1.66454091337330e-05
6.63050000000000e+00 6.50886867963865e-04 1.61171098766594e-05
6.66030000000000e+00 6.28810886582370e-04 1.56054203953126e-05
6.69010000000000e+00 6.07483651224098e-04 1.51098248936448e-05
6.71990000000000e+00 5.86879766841029e-04 1.46298233263956e-05
6.74970000000000e+00 5.66974699703189e-04 1.41649309294700e-05
6.77950000000000e+00 5.47744748185529e-04 1.37146777638180e-05
6.80930000000000e+00 5.29167014545608e-04 1.32786082724543e-05
6.83910000000000e+00 5.11219377658488e-04 1.28562808502567e-05
6.86890000000000e+00 4.93880466676380e-04 1.24472674261990e-05
6.89870000000000e+00 4.77129635581664e-04 1.20511530576772e-05
6.92850000000000e+00 4.60946938602985e-04 1.16675355365981e-05
6.95830000000000e+00 4.45313106465168e-04 1.12960250069072e-05
6.98810000000000e+00 4.30209523444644e-04 1.09362435932406e-05
7.01790000000000e+00 4.15618205203095e-04 1.05878250403943e-05
7.04770000000000e+00 4.01521777372901e-04 1.02504143633107e-05
7.07750000000000e+00 3.87903454868902e-04 9.92366750729110e-06
7.10730000000000e+00 3.74747021901846e-04 9.60725101814977e-06
7.13710000000000e+00 3.62036812669702e-04 9.30084172203095e-06
7.16690000000000e+00 3.49757692703871e-04 9.00412641462019e-06
7.19670000000000e+00 3.37895040848074e-04 8.71680155948643e-06
7.22650000000000e+00 3.26434731848453e-04 8.43857299529763e-06
7.25630000000000e+00 3.15363119534161e-04 8.16915565166100e-06
7.28610000000000e+00 3.04667020568415e-04 7.90827327334401e-06
7.31590000000000e+00 2.94333698750656e-04 7.65565815264003e-06
7.34570000000000e+00 2.84350849851134e-04 7.41105086964699e-06
7.37550000000000e+00 2.74706586959853e-04 7.17420004023493e-06
7.40530000000000e+00 2.65389426332430e-04 6.94486207148396e-06
7.43510000000000e+00 2.56388273716019e-04 6.72280092437920e-06
7.46490000000000e+00 2.47692411139018e-04 6.50778788355631e-06
7.49470000000000e+00 2.39291484148821e-04 6.29960133389495e-06
7.52450000000000e+00 2.31175489482428e-04 6.09802654376489e-06
7.55430000000000e+00 2.23334763155230e-04 5.90285545473334e-06
7.58410000000000e+00 2.15759968953775e-04 5.71388647754778e-06
7.61390000000000e+00 2.08442087318837e-04 5.53092429421347e-06
7.64370000000000e+00 2.01372404605518e-04 5.35377966598996e-06
7.67350000000000e+00 1.94542502707627e-04 5.18226924713539e-06
7.70330000000000e+00 1.87944249033962e-04 5.01621540423220e-06
7.73310000000000e+00 1.81569786824559e-04 4.85544604093260e-06
7.76290000000000e+00 1.75411525795388e-04 4.69979442796611e-06
7.79270000000000e+00 1.69462133100353e-04 4.54909903825652e-06
7.82250000000000e+00 1.63714524599824e-04 4.40320338699906e-06
7.85230000000000e+00 1.58161856425319e-04 4.26195587655337e-06
7.88210000000000e+00 1.52797516830283e-04 4.12520964601149e-06
7.91190000000000e+00 1.47615118317257e-04 3.99282242530417e-06
7.94170000000000e+00 1.42608490032079e-04 3.86465639371243e-06
7.97150000000000e+00 1.37771670416038e-04 3.74057804265518e-06
8.00130000000000e+00 1.33098900107249e-04 3.62045804262752e-06
8.03110000000000e+00 1.28584615082792e-04 3.50417111416747e-06
8.06090000000000e+00 1.24223440033441e-04 3.39159590273225e-06
8.09070000000000e+00 1.20010181963107e-04 3.28261485736915e-06
8.12050000000000e+00 1.15939824005364e-04 3.17711411306906e-06
8.15030000000000e+00 1.12007519449700e-04 3.07498337669346e-06
8.18010000000000e+00 1.08208585970378e-04 2.97611581636914e-06
8.20990000000000e+00 1.04538500051034e-04 2.88040795424815e-06
8.23970000000000e+00 1.00992891598377e-04 2.78775956253302e-06
8.26950000000000e+00 9.75675387385730e-05 2.69807356267017e-06
8.29930000000000e+00 9.42583627901184e-05 2.61125592761734e-06
8.32910000000000e+00 9.10614234072204e-05 2.52721558709357e-06
8.35890000000000e+00 8.79729138878952e-05 2.44586433572304e-06
8.38870000000000e+00 8.49891566412015e-05 2.36711674398592e-06
8.41850000000000e+00 8.21065988082107e-05 2.29089007189300e-06
8.44830000000000e+00 7.93218080315001e-05 2.21710418530223e-06
8.47810000000000e+00 7.66314683681301e-05 2.14568147479823e-06
8.50790000000000e+00 7.40323763412414e-05 2.07654677705828e-06
8.53770000000000e+00 7.15214371255684e-05 2.00962729862964e-06
8.56750000000000e+00 6.90956608623278e-05 1.94485254204641e-06
8.59730000000000e+00 6.67521590990944e-05 1.88215423421523e-06
8.62710000000000e+00 6.44881413504248e-05 1.82146625700183e-06
8.65690000000000e+00 6.23009117751337e-05 1.76272457995195e-06
8.68670000000000e+00 6.01878659662661e-05 1.70586719508259e-06
8.71650000000000e+00 5.81464878499436e-05 1.65083405368104e-06
8.74630000000000e+00 5.61743466893911e-05 1.59756700505086e-06
8.77610000000000e+00 5.42690941905783e-05 1.54600973714642e-06
8.80590000000000e+00 5.24284617060275e-05 1.49610771903848e-06
8.83570000000000e+00 5.06502575334601e-05 1.44780814515572e-06
8.86550000000000e+00 4.89323643060634e-05 1.40105988124822e-06
8.89530000000000e+00 4.72727364712718e-05 1.35581341202073e-06
8.92510000000000e+00 4.56693978550592e-05 1.31202079038514e-06
8.95490000000000e+00 4.41204393088433e-05 1.26963558828295e-06
8.98470000000000e+00 4.26240164361983e-05 1.22861284902990e-06
9.01450000000000e+00 4.11783473966713e-05 1.18890904113674e-06
9.04430000000000e+00 3.97817107840854e-05 1.15048201356094e-06
9.07410000000000e+00 3.84324435768044e-05 1.11329095234586e-06
9.10390000000000e+00 3.71289391575172e-05 1.07729633860520e-06
9.13370000000000e+00 3.58696454001856e-05 1.04245990781147e-06
9.16350000000000e+00 3.46530628218760e-05 1.00874461034880e-06
9.19330000000000e+00 3.34777427972753e-05 9.76114573291492e-07
9.22310000000000e+00 3.23422858337648e-05 9.44535063370763e-07
9.25290000000000e+00 3.12453399049973e-05 9.13972451093304e-07
9.28270000000000e+00 3.01855988409949e-05 8.84394175976547e-07
9.31250000000000e+00 2.91618007728487e-05 8.55768712866250e-07
9.34230000000000e+00 2.81727266301698e-05 8.28065539303277e-07
9.37210000000000e+00 2.72171986895015e-05 8.01255103907475e-07
9.40190000000000e+00 2.62940791719646e-05 7.75308795747275e-07
