Energy (eV)          EEDF (eV^-(3/2))     First Anisotropy
2.36363636363636e-04 2.14078174853588e+02 6.42896271159609e-02
7.09090909090909e-04 2.10745173151043e+02 1.05689343655935e-01
1.18181818181818e-03 2.07464063242136e+02 1.38279418459555e-01
1.65454545454545e-03 2.04234037217487e+02 1.62295115672421e-01
2.12727272727273e-03 2.01054299749586e+02 1.81718730689414e-01
2.60000000000000e-03 1.97924067890966e+02 1.98076154307063e-01
3.07272727272727e-03 1.94842570882861e+02 2.12167086795648e-01
3.54545454545455e-03 1.91809049969882e+02 2.24480391072891e-01
4.01818181818182e-03 1.88822758207848e+02 2.35344182238988e-01
4.49090909090909e-03 1.85882960281912e+02 2.44993083680550e-01
4.96363636363636e-03 1.82988932324613e+02 2.53602760561677e-01
5.43636363636364e-03 1.80139961740252e+02 2.61309417827055e-01
5.90909090909091e-03 1.77335347026600e+02 2.68221612572365e-01
6.38181818181818e-03 1.74574397602588e+02 2.74427812597357e-01
6.85454545454545e-03 1.71856433640208e+02 2.80001447692903e-01
7.32727272727273e-03 1.69180785895036e+02 2.85004408755922e-01
7.80000000000000e-03 1.66546795542178e+02 2.89489545625500e-01
8.27272727272727e-03 1.63953814013605e+02 2.93502495742049e-01
8.74545454545455e-03 1.61401202839846e+02 2.97083052346458e-01
9.21818181818182e-03 1.58888333491317e+02 3.00266207939850e-01
9.69090909090909e-03 1.56414587224070e+02 3.03082963813871e-01
1.01636363636364e-02 1.53979354927103e+02 3.05560967231101e-01
1.06363636363636e-02 1.51582036973424e+02 3.07725019332506e-01
1.11090909090909e-02 1.49222043070370e+02 3.09597486005530e-01
1.15818181818182e-02 1.46898792119546e+02 3.11198631281193e-01
1.20545454545455e-02 1.44611712063817e+02 3.12546893603098e-01
1.25272727272727e-02 1.42360239755441e+02 3.13659116280303e-01
1.30000000000000e-02 1.40143820814355e+02 3.14550738503341e-01
1.34727272727273e-02 1.37961909494049e+02 3.15235956794516e-01
1.39454545454545e-02 1.35813968540014e+02 3.15727863762490e-01
1.44181818181818e-02 1.33699469064706e+02 3.16038567067576e-01
1.48909090909091e-02 1.31617890414884e+02 3.16179290099206e-01
1.53636363636364e-02 1.29568720045336e+02 3.16160459256065e-01
1.58363636363636e-02 1.27551453386784e+02 3.15991781235608e-01
1.63090909090909e-02 1.25565593727601e+02 3.15682311116686e-01
1.67818181818182e-02 1.23610652091197e+02 3.15240508971919e-01
1.72545454545455e-02 1.21686147110508e+02 3.14674292788086e-01
1.77272727272727e-02 1.19791604914628e+02 3.13991085121065e-01
1.82000000000000e-02 1.17926559010381e+02 3.13197853199878e-01
1.86727272727273e-02 1.16090550168884e+02 3.12301144799838e-01
1.91454545454545e-02 1.14283126308162e+02 3.11307121467612e-01
1.96181818181818e-02 1.12503842386186e+02 3.10221588454042e-01
2.00909090909091e-02 1.10752260289830e+02 3.09050020450424e-01
2.05636363636364e-02 1.09027948728194e+02 3.07797584917611e-01
2.10363636363636e-02 1.07330483122739e+02 3.06469164232006e-01
2.15090909090909e-02 1.05659445506455e+02 3.05069376119416e-01
2.19818181818182e-02 1.04014424420771e+02 3.03602589926134e-01
2.24545454545455e-02 1.02395014810988e+02 3.02072943697190e-01
2.29272727272727e-02 1.00800817929829e+02 3.00484359598279e-01
2.34000000000000e-02 9.92314412381459e+01 2.98840557048147e-01
2.38727272727273e-02 9.76864983091961e+01 2.97145064841401e-01
2.43454545454545e-02 9.61656087306725e+01 2.95401233154676e-01
2.48181818181818e-02 9.46683980138851e+01 2.93612244658000e-01
2.52909090909091e-02 9.31944975005925e+01 2.91781123870305e-01
2.57636363636364e-02 9.17435442730322e+01 2.89910745868859e-01
2.62363636363636e-02 9.03151810621069e+01 2.88003845138661e-01
2.67090909090909e-02 8.89090561618935e+01 2.86063024007519e-01
2.71818181818182e-02 8.75248233429385e+01 2.84090758727117e-01
2.76545454545455e-02 8.61621417647969e+01 2.82089406837901e-01
2.81272727272727e-02 8.48206758943392e+01 2.80061213865629e-01
2.86000000000000e-02 8.35000954223783e+01 2.78008318816156e-01
2.90727272727273e-02 8.22000751829790e+01 2.75932759353766e-01
2.95454545454545e-02 8.09202950714521e+01 2.73836477306315e-01
3.00181818181818e-02 7.96604399674966e+01 2.71721323841246e-01
3.04909090909091e-02 7.84201996569474e+01 2.69589063631771e-01
3.09636363636364e-02 7.71992687559543e+01 2.67441378806854e-01
3.14363636363636e-02 7.59973466340752e+01 2.65279873269524e-01
3.19090909090909e-02 7.48141373419824e+01 2.63106076919982e-01
3.23818181818182e-02 7.36493495385230e+01 2.60921448279189e-01
3.28545454545455e-02 7.25026964174251e+01 2.58727378284100e-01
3.33272727272727e-02 7.13738956382510e+01 2.56525193728818e-01
3.38000000000000e-02 7.02626692563441e+01 2.54316159933310e-01
3.42727272727273e-02 6.91687436548482e+01 2.52101483296645e-01
3.47454545454545e-02 6.80918494759524e+01 2.49882314229083e-01
3.52181818181818e-02 6.70317215559642e+01 2.47659749934788e-01
3.56909090909091e-02 6.59880988595480e+01 2.45434836516314e-01
3.61636363636364e-02 6.49607244158551e+01 2.43208570997502e-01
3.66363636363636e-02 6.39493452540195e+01 2.40981903718565e-01
3.71090909090909e-02 6.29537123421125e+01 2.38755740729108e-01
3.75818181818182e-02 6.19735805257768e+01 2.36530945005882e-01
3.80545454545455e-02 6.10087084667360e+01 2.34308338647230e-01
3.85272727272727e-02 6.00588585845081e+01 2.32088704845907e-01
3.90000000000000e-02 5.91237969975213e+01 2.29872789313999e-01
3.94727272727273e-02 5.82032934658587e+01 2.27661301662591e-01
3.99454545454545e-02 5.72971213335583e+01 2.25454917124814e-01
4.04181818181818e-02 5.64050574738223e+01 2.23254278199934e-01
4.08909090909091e-02 5.55268822337337e+01 2.21059995805589e-01
4.13636363636364e-02 5.46623793804682e+01 2.18872650397883e-01
4.18363636363636e-02 5.38113360471481e+01 2.16692793417676e-01
4.23090909090909e-02 5.29735426813410e+01 2.14520948762708e-01
4.27818181818182e-02 5.21487929934288e+01 2.12357613363076e-01
4.32545454545455e-02 5.13368839049820e+01 2.10203258551320e-01
4.37272727272727e-02 5.05376154995955e+01 2.08058331279526e-01
4.42000000000000e-02 4.97507909733796e+01 2.05923254927580e-01
4.46727272727273e-02 4.89762165867479e+01 2.03798430093840e-01
4.51454545454545e-02 4.82137016159651e+01 2.01684235677226e-01
4.56181818181818e-02 4.74630583069411e+01 1.99581029912472e-01
4.60909090909091e-02 4.67241018287455e+01 1.97489151034027e-01
4.65636363636364e-02 4.59966502283188e+01 1.95408917927855e-01
4.70363636363636e-02 4.52805243849961e+01 1.93340631056748e-01
4.75090909090909e-02 4.45755479670831e+01 1.91284573418005e-01
4.79818181818182e-02 4.38815473884149e+01 1.89241010802626e-01
4.84545454545455e-02 4.31983517649902e+01 1.87210192696711e-01
4.89272727272727e-02 4.25257928735249e+01 1.85192353070998e-01
4.94000000000000e-02 4.18637051098171e+01 1.83187710856520e-01
4.98727272727273e-02 4.12119254481569e+01 1.81196470414383e-01
5.03454545454545e-02 4.05702934006214e+01 1.79218822247059e-01
5.08181818181818e-02 3.99386509781268e+01 1.77254943679547e-01
5.12909090909091e-02 3.93168426513351e+01 1.75304999253421e-01
5.17636363636364e-02 3.87047153125260e+01 1.73369141117394e-01
5.22363636363636e-02 3.81021182373875e+01 1.71447509643487e-01
5.27090909090909e-02 3.75089030484183e+01 1.69540234074625e-01
5.31818181818182e-02 3.69249236783750e+01 1.67647432621070e-01
5.36545454545455e-02 3.63500363338339e+01 1.65769213075474e-01
5.41272727272727e-02 3.57840994602618e+01 1.63905673343187e-01
5.46000000000000e-02 3.52269737070004e+01 1.62056901727386e-01
5.50727272727273e-02 3.46785218930950e+01 1.60222977213426e-01
5.55454545454545e-02 3.41386089730881e+01 1.58403969951517e-01
5.60181818181818e-02 3.36071020042003e+01 1.56599941718799e-01
5.64909090909091e-02 3.30838701134499e+01 1.54810946156102e-01
5.69636363636364e-02 3.25687844655565e+01 1.53037029004998e-01
5.74363636363636e-02 3.20617182308281e+01 1.51278228529734e-01
5.79090909090909e-02 3.15625465543257e+01 1.49534575967202e-01
5.83818181818182e-02 3.10711465251070e+01 1.47806095538201e-01
5.88545454545455e-02 3.05873971456004e+01 1.46092804878003e-01
5.93272727272727e-02 3.01111793021773e+01 1.44394715401312e-01
5.98000000000000e-02 2.96423757356993e+01 1.42711832473453e-01
6.02727272727273e-02 2.91808710127543e+01 1.41044155582993e-01
6.07454545454545e-02 2.87265514969041e+01 1.39391678676632e-01
6.12181818181818e-02 2.82793053210364e+01 1.37754390479398e-01
6.16909090909091e-02 2.78390223597076e+01 1.36132274636217e-01
6.21636363636364e-02 2.74055942021258e+01 1.34525309855369e-01
6.26363636363636e-02 2.69789141251563e+01 1.32933470203067e-01
6.31090909090909e-02 2.65588770673468e+01 1.31356725422212e-01
6.35818181818182e-02 2.61453796030480e+01 1.29795040899671e-01
6.40545454545454e-02 2.57383199166679e+01 1.28248377973215e-01
6.45272727272727e-02 2.53375977778836e+01 1.26716694186942e-01
6.50000000000000e-02 2.49431145168672e+01 1.25199943392287e-01
6.54727272727273e-02 2.45547730000735e+01 1.23698075851331e-01
6.59454545454545e-02 2.41724776060688e+01 1.22211038472753e-01
6.64181818181818e-02 2.37961342022428e+01 1.20738775036962e-01
6.68909090909091e-02 2.34256501215444e+01 1.19281226278569e-01
6.73636363636364e-02 2.30609341397403e+01 1.17838329971331e-01
6.78363636363636e-02 2.27018964527206e+01 1.16410021136586e-01
6.83090909090909e-02 2.23484486546211e+01 1.14996232272100e-01
6.87818181818182e-02 2.20005037160480e+01 1.13596893298004e-01
6.92545454545455e-02 2.16579759624314e+01 1.12211931778427e-01
6.97272727272727e-02 2.13207810531487e+01 1.10841273102261e-01
7.02000000000000e-02 2.09888359606839e+01 1.09484840540134e-01
7.06727272727273e-02 2.06620589502492e+01 1.08142555303936e-01
7.11454545454545e-02 2.03403695594606e+01 1.06814336714747e-01
7.16181818181818e-02 2.00236885787265e+01 1.05500102362626e-01
7.20909090909091e-02 1.97119380316763e+01 1.04199768151872e-01
7.25636363636364e-02 1.94050411560203e+01 1.02913248348805e-01
7.30363636363636e-02 1.91029223844666e+01 1.01640455730522e-01
7.35090909090909e-02 1.88055073262979e+01 1.00381301750752e-01
7.39818181818182e-02 1.85127227490484e+01 9.91356964770504e-02
7.44545454545455e-02 1.82244965603020e+01 9.79035487522762e-02
7.49272727272727e-02 1.79407577901129e+01 9.66847663233817e-02
7.54000000000000e-02 1.76614365734722e+01 9.54792558705264e-02
7.58727272727273e-02 1.73864641331568e+01 9.42869230386414e-02
7.63454545454545e-02 1.71157727626386e+01 9.31076725576904e-02
7.68181818181818e-02 1.68492958095707e+01 9.19414083567009e-02
7.72909090909091e-02 1.65869676593220e+01 9.07880335854280e-02
7.77636363636364e-02 1.63287237188688e+01 8.96474506384150e-02
7.82363636363636e-02 1.60745004007464e+01 8.85195612616727e-02
7.87090909090909e-02 1.58242351075370e+01 8.74042666735886e-02
7.91818181818182e-02 1.55778662164513e+01 8.63014675004643e-02
7.96545454545455e-02 1.53353330640219e+01 8.52110638948524e-02
8.01272727272727e-02 1.50965759313010e+01 8.41329556276010e-02
8.06000000000000e-02 1.48615360291100e+01 8.30670420993271e-02
8.10727272727273e-02 1.46301554836047e+01 8.20132223541395e-02
8.15454545454545e-02 1.44023773219023e+01 8.09713951659978e-02
8.20181818181818e-02 1.41781454581769e+01 7.99414591202493e-02
8.24909090909091e-02 1.39574046798076e+01 7.89233126204005e-02
8.29636363636364e-02 1.37401006338206e+01 7.79168538970707e-02
8.34363636363636e-02 1.35261798133937e+01 7.69219810846141e-02
8.39090909090909e-02 1.33155895447945e+01 7.59385923095658e-02
8.43818181818182e-02 1.31082779744073e+01 7.49665856283892e-02
8.48545454545454e-02 1.29041940558600e+01 7.40058591144758e-02
8.53272727272727e-02 1.27032875375609e+01 7.30563109239282e-02
8.58000000000000e-02 1.25055089502900e+01 7.21178392959903e-02
8.62727272727273e-02 1.23108095950495e+01 7.11903425554952e-02
8.67454545454545e-02 1.21191415309765e+01 7.02737191748529e-02
8.72181818181818e-02 1.19304575636355e+01 6.93678678322758e-02
8.76909090909091e-02 1.17447112333658e+01 6.84726874093145e-02
8.81636363636364e-02 1.15618568038702e+01 6.75880769903118e-02
8.86363636363636e-02 1.13818492508648e+01 6.67139359173643e-02
8.91090909090909e-02 1.12046442510824e+01 6.58501638550815e-02
8.95818181818182e-02 1.10301981713563e+01 6.49966607325547e-02
9.00545454545455e-02 1.08584680577927e+01 6.41533268073872e-02
9.05272727272727e-02 1.06894116252788e+01 6.33200627125484e-02
9.10000000000000e-02 1.05229872470423e+01 6.24967694500846e-02
9.14727272727273e-02 1.03591539444272e+01 6.16833483865912e-02
9.19454545454545e-02 1.01978713767264e+01 6.08797012975625e-02
9.24181818181818e-02 1.00390998313268e+01 6.00857304087671e-02
9.28909090909091e-02 9.88280021390416e+00 5.93013383882444e-02
9.33636363636364e-02 9.72893403882077e+00 5.85264283399842e-02
9.38363636363636e-02 9.57746341957791e+00 5.77609038431551e-02
9.43090909090909e-02 9.42835105955882e+00 5.70046689994608e-02
9.47818181818182e-02 9.28156024284286e+00 5.62576283802546e-02
9.52545454545455e-02 9.13705482509866e+00 5.55196870736202e-02
9.57272727272727e-02 8.99479922475131e+00 5.47907507175057e-02
9.62000000000000e-02 8.85475841419851e+00 5.40707254895520e-02
9.66727272727273e-02 8.71689791120591e+00 5.33595180984455e-02
9.71454545454545e-02 8.58118377035541e+00 5.26570358154293e-02
9.76181818181818e-02 8.44758257474855e+00 5.19631865034561e-02
9.80909090909091e-02 8.31606142775746e+00 5.12778786060786e-02
9.85636363636364e-02 8.18658794494333e+00 5.06010211377942e-02
9.90363636363636e-02 8.05913024602599e+00 4.99325237118218e-02
9.95090909090909e-02 7.93365694709100e+00 4.92722965746100e-02
9.99818181818182e-02 7.81013715286027e+00 4.86202505408628e-02
1.00454545454545e-01 7.68854044899753e+00 4.79762971067923e-02
1.00927272727273e-01 7.56883689482716e+00 4.73403483839858e-02
1.01400000000000e-01 7.45099701573508e+00 4.67123169652872e-02
1.01872727272727e-01 7.33499179583975e+00 4.60921162919199e-02
1.02345454545455e-01 7.22079267133509e+00 4.54796604417730e-02
1.02818181818182e-01 7.10837152296312e+00 4.48748639770949e-02
1.03290909090909e-01 6.99770066925717e+00 4.42776421165141e-02
1.03763636363636e-01 6.88875285957796e+00 4.36879108889178e-02
1.04236363636364e-01 6.78150126785294e+00 4.31055869759583e-02
1.04709090909091e-01 6.67591948551555e+00 4.25305874964818e-02
1.05181818181818e-01 6.57198151501742e+00 4.19628304574615e-02
1.05654545454545e-01 6.46966176385016e+00 4.14022345269236e-02
1.06127272727273e-01 6.36893503781482e+00 4.08487188975985e-02
1.06600000000000e-01 6.26977653496311e+00 4.03022034368133e-02
1.07072727272727e-01 6.17216183936211e+00 3.97626088205888e-02
1.07545454545455e-01 6.07606691547253e+00 3.92298563927001e-02
1.08018181818182e-01 5.98146810183505e+00 3.87038680369398e-02
1.08490909090909e-01 5.88834210537776e+00 3.81845663154458e-02
1.08963636363636e-01 5.79666599556220e+00 3.76718745924677e-02
1.09436363636364e-01 5.70641719909711e+00 3.71657169023537e-02
1.09909090909091e-01 5.61757349401548e+00 3.66660177700096e-02
1.10381818181818e-01 5.53011300421450e+00 3.61727025786845e-02
1.10854545454545e-01 5.44401419440827e+00 3.56856973809923e-02
1.11327272727273e-01 5.35925586448140e+00 3.52049287845839e-02
1.11800000000000e-01 5.27581714438490e+00 3.47303240728080e-02
1.12272727272727e-01 5.19367748889442e+00 3.42618113126781e-02
1.12745454545455e-01 5.11281667286450e+00 3.37993192367614e-02
1.13218181818182e-01 5.03321478593128e+00 3.33427771360652e-02
1.13690909090909e-01 4.95485222771714e+00 3.28921149714644e-02
1.14163636363636e-01 4.87770970290938e+00 3.24472634734022e-02
1.14636363636364e-01 4.80176821679811e+00 3.20081540312593e-02
1.15109090909091e-01 4.72700907030637e+00 3.15747185437628e-02
1.15581818181818e-01 4.65341385539513e+00 3.11468897193655e-02
1.16054545454545e-01 4.58096445080325e+00 3.07246009189099e-02
1.16527272727273e-01 4.50964301730933e+00 3.03077860597687e-02
1.17000000000000e-01 4.43943199343233e+00 2.98963797131330e-02
1.17472727272727e-01 4.37031409102462e+00 2.94903171910614e-02
1.17945454545455e-01 4.30227229126691e+00 2.90895344475086e-02
1.18418181818182e-01 4.23528984022258e+00 2.86939679885094e-02
1.18890909090909e-01 4.16935024479860e+00 2.83035549620676e-02
1.19363636363636e-01 4.10443726860777e+00 2.79182332385854e-02
1.19836363636364e-01 4.04053492820349e+00 2.75379413181508e-02
1.20309090909091e-01 3.97762748890849e+00 2.71626182058506e-02
1.20781818181818e-01 3.91569946094786e+00 2.67922036574014e-02
1.21254545454545e-01 3.85473559585454e+00 2.64266380481006e-02
1.21727272727273e-01 3.79472088249227e+00 2.60658622924511e-02
1.22200000000000e-01 3.73564054343449e+00 2.57098179227079e-02
1.22672727272727e-01 3.67748003125893e+00 2.53584471591529e-02
1.23145454545455e-01 3.62022502516849e+00 2.50116928271569e-02
1.23618181818182e-01 3.56386142725949e+00 2.46694982818664e-02
1.24090909090909e-01 3.50837535911979e+00 2.43318074808110e-02
1.24563636363636e-01 3.45375315834976e+00 2.39985650488609e-02
1.25036363636364e-01 3.39998137538569e+00 2.36697162005282e-02
1.25509090909091e-01 3.34704676999815e+00 2.33452066359975e-02
1.25981818181818e-01 3.29493630803775e+00 2.30249827422070e-02
1.26454545454545e-01 3.24363715840283e+00 2.27089914836463e-02
1.26927272727273e-01 3.19313668970066e+00 2.23971803349601e-02
1.27400000000000e-01 3.14342246719778e+00 2.20894973444400e-02
1.27872727272727e-01 3.09448224970427e+00 2.17858911908159e-02
1.28345454545455e-01 3.04630398672341e+00 2.14863111137472e-02
1.28818181818182e-01 2.99887581531860e+00 2.11907068506675e-02
1.29290909090909e-01 2.95218605724833e+00 2.08990286954977e-02
1.29763636363636e-01 2.90622321604084e+00 2.06112275511604e-02
1.30236363636364e-01 2.86097597431475e+00 2.03272548644571e-02
1.30709090909091e-01 2.81643319083899e+00 2.00470625393397e-02
1.31181818181818e-01 2.77258389779421e+00 1.97706031016852e-02
1.31654545454545e-01 2.72941729821527e+00 1.94978296082605e-02
1.32127272727273e-01 2.68692276318778e+00 1.92286955902027e-02
1.32600000000000e-01 2.64508982927984e+00 1.89631551043908e-02
1.33072727272727e-01 2.60390819592205e+00 1.87011627793864e-02
1.33545454545455e-01 2.56336772300364e+00 1.84426737571733e-02
1.34018181818182e-01 2.52345842824153e+00 1.81876436401868e-02
1.34490909090909e-01 2.48417048476772e+00 1.79360285388395e-02
1.34963636363636e-01 2.44549421866923e+00 1.76877851140135e-02
1.35436363636364e-01 2.40742010672864e+00 1.74428705224715e-02
1.35909090909091e-01 2.36993877395509e+00 1.72012423444782e-02
1.36381818181818e-01 2.33304099127968e+00 1.69628587189509e-02
1.36854545454545e-01 2.29671767339878e+00 1.67276782675341e-02
1.37327272727273e-01 2.26095987641966e+00 1.64956600471933e-02
1.37800000000000e-01 2.22575879569788e+00 1.62667635918210e-02
1.38272727272727e-01 2.19110576363397e+00 1.60409489494261e-02
1.38745454545455e-01 2.15699224764644e+00 1.58181766332954e-02
1.39218181818182e-01 2.12340984796223e+00 1.55984075775586e-02
1.39690909090909e-01 2.09035029558510e+00 1.53816031756905e-02
1.40163636363636e-01 2.05780545022687e+00 1.51677253149204e-02
1.40636363636364e-01 2.02576729840227e+00 1.49567363304654e-02
1.41109090909091e-01 1.99422795135530e+00 1.47485989451058e-02
1.41581818181818e-01 1.96317964311978e+00 1.45432763801254e-02
1.42054545454545e-01 1.93261472870104e+00 1.43407322919665e-02
1.42527272727273e-01 1.90252568209841e+00 1.41409307324597e-02
1.43000000000000e-01 1.87290509448420e+00 1.39438361825451e-02
1.43472727272727e-01 1.84374567235077e+00 1.37494135824001e-02
1.43945454545455e-01 1.81504023580162e+00 1.35576282904918e-02
1.44418181818182e-01 1.78678171669543e+00 1.33684460462963e-02
1.44890909090909e-01 1.75896315693541e+00 1.31818330015127e-02
1.45363636363636e-01 1.73157770672946e+00 1.29977557479463e-02
1.45836363636364e-01 1.70461862298412e+00 1.28161812791311e-02
1.46309090909091e-01 1.67807926756262e+00 1.26370769398659e-02
1.46781818181818e-01 1.65195310565286e+00 1.24604105173520e-02
1.47254545454545e-01 1.62623370423451e+00 1.22861501883211e-02
1.47727272727273e-01 1.60091473041788e+00 1.21142644856656e-02
1.48200000000000e-01 1.57598994991057e+00 1.19447223257891e-02
1.48672727272727e-01 1.55145322545921e+00 1.17774930330271e-02
1.49145454545455e-01 1.52729851540884e+00 1.16125463053091e-02
