Energy (eV)          EEDF (eV^-(3/2))     First Anisotropy
1.59074074074074e-02 2.85644844662590e-01 2.04793740016654e-04
4.77222222222222e-02 2.82015656925181e-01 3.37157848644128e-04
7.95370370370370e-02 2.78432578907217e-01 4.42406199753581e-04
1.11351851851852e-01 2.74895024773427e-01 5.20751700154548e-04
1.43166666666667e-01 2.71402416136247e-01 5.84771943916540e-04
1.74981481481481e-01 2.67954181943000e-01 6.39264541907759e-04
2.06796296296296e-01 2.64549758406433e-01 6.86733164016517e-04
2.38611111111111e-01 2.61188588902327e-01 7.28702072853749e-04
2.70425925925926e-01 2.57870123878417e-01 7.66190297390348e-04
3.02240740740741e-01 2.54593820775992e-01 7.99923751021299e-04
3.34055555555556e-01 2.51359143905138e-01 8.30443961533700e-04
3.65870370370370e-01 2.48165564394736e-01 8.58169359260327e-04
3.97685185185185e-01 2.45012560092918e-01 8.83432348943548e-04
4.29500000000000e-01 2.41899615482011e-01 9.06502986937316e-04
4.61314814814815e-01 2.38826221600929e-01 9.27604782071784e-04
4.93129629629630e-01 2.35791875940832e-01 9.46925620454534e-04
5.24944444444444e-01 2.32796082384687e-01 9.64625549321288e-04
5.56759259259259e-01 2.29838351118648e-01 9.80842468082209e-04
5.88574074074074e-01 2.26918198552122e-01 9.95696377266011e-04
6.20388888888889e-01 2.24035147243351e-01 1.00929261521349e-03
6.52203703703704e-01 2.21188725806931e-01 1.02172436192239e-03
6.84018518518519e-01 2.18378468851465e-01 1.03307460606364e-03
7.15833333333333e-01 2.15603916898429e-01 1.04341771287888e-03
7.47648148148148e-01 2.12864616307076e-01 1.05282068586720e-03
7.79462962962963e-01 2.10160119200294e-01 1.06134419421511e-03
8.11277777777778e-01 2.07489983394680e-01 1.06904341887798e-03
8.43092592592593e-01 2.04853772318077e-01 1.07596875301371e-03
8.74907407407407e-01 2.02251054948548e-01 1.08216638770933e-03
9.06722222222222e-01 1.99681405740365e-01 1.08767880714436e-03
9.38537037037037e-01 1.97144404554485e-01 1.09254520726802e-03
9.70351851851852e-01 1.94639636592422e-01 1.09680185471479e-03
1.00216666666667e+00 1.92166692320527e-01 1.10048239282766e-03
1.03398148148148e+00 1.89725167420279e-01 1.10361811114439e-03
1.06579629629630e+00 1.87314662680144e-01 1.10623816989728e-03
1.09761111111111e+00 1.84934784003748e-01 1.10836980637370e-03
1.12942592592593e+00 1.82585142258061e-01 1.11003850991689e-03
1.16124074074074e+00 1.80265353296094e-01 1.11126817676548e-03
1.19305555555556e+00 1.77975037811153e-01 1.11208124805676e-03
1.22487037037037e+00 1.75713821354569e-01 1.11249883088642e-03
1.25668518518519e+00 1.73481334197745e-01 1.11254080741269e-03
1.28850000000000e+00 1.71277211345584e-01 1.11222593103526e-03
1.32031481481481e+00 1.69101092405636e-01 1.11157191383674e-03
1.35212962962963e+00 1.66952621597786e-01 1.11059550397322e-03
1.38394444444444e+00 1.64831447629907e-01 1.10931255661957e-03
1.41575925925926e+00 1.62737223704286e-01 1.10773809695933e-03
1.44757407407407e+00 1.60669607399263e-01 1.10588637838818e-03
1.47938888888889e+00 1.58628260672806e-01 1.10377093431716e-03
1.51120370370370e+00 1.56612849749681e-01 1.10140462640630e-03
1.54301851851852e+00 1.54623045122530e-01 1.09879968757086e-03
1.57483333333333e+00 1.52658521444170e-01 1.09596776232189e-03
1.60664814814815e+00 1.50718957526483e-01 1.09291994277740e-03
1.63846296296296e+00 1.48804036237483e-01 1.08966680268636e-03
1.67027777777778e+00 1.46913444498289e-01 1.08621842782023e-03
1.70209259259259e+00 1.45046873184637e-01 1.08258444489204e-03
1.73390740740741e+00 1.43204017122180e-01 1.07877404591228e-03
1.76572222222222e+00 1.41384575002380e-01 1.07479601887951e-03
1.79753703703704e+00 1.39588249335274e-01 1.07065876105180e-03
1.82935185185185e+00 1.37814746430486e-01 1.06637030585807e-03
1.86116666666667e+00 1.36063776309719e-01 1.06193834112259e-03
1.89298148148148e+00 1.34335052697693e-01 1.05737022677974e-03
1.92479629629630e+00 1.32628292938089e-01 1.05267301211250e-03
1.95661111111111e+00 1.30943217983526e-01 1.04785345113271e-03
1.98842592592593e+00 1.29279552314761e-01 1.04291801764867e-03
2.02024074074074e+00 1.27637023929838e-01 1.03787291868611e-03
2.05205555555556e+00 1.26015364266368e-01 1.03272410772497e-03
2.08387037037037e+00 1.24414308189951e-01 1.02747729646576e-03
2.11568518518519e+00 1.22833593919373e-01 1.02213796651246e-03
2.14750000000000e+00 1.21272963014411e-01 1.01671137973354e-03
2.17931481481481e+00 1.19732160303793e-01 1.01120258861844e-03
2.21112962962963e+00 1.18210933872467e-01 1.00561644543822e-03
2.24294444444444e+00 1.16709034992190e-01 9.99957611463920e-04
2.27475925925926e+00 1.15226218108344e-01 9.94230565096653e-04
2.30657407407407e+00 1.13762240773019e-01 9.88439610104304e-04
2.33838888888889e+00 1.12316863631450e-01 9.82588882862562e-04
2.37020370370370e+00 1.10889850357476e-01 9.76682359740658e-04
2.40201851851852e+00 1.09480967639657e-01 9.70723863572115e-04
2.43383333333333e+00 1.08089985118998e-01 9.64717070299651e-04
2.46564814814815e+00 1.06716675374807e-01 9.58665514775447e-04
2.49746296296296e+00 1.05360813864583e-01 9.52572596758280e-04
2.52927777777778e+00 1.04022178909655e-01 9.46441586128015e-04
2.56109259259259e+00 1.02700551637141e-01 9.40275628313947e-04
2.59290740740741e+00 1.01395715965425e-01 9.34077748138240e-04
2.62472222222222e+00 1.00107458552939e-01 9.27850858183344e-04
2.65653703703704e+00 9.88355687640266e-02 9.21597757915363e-04
2.68835185185185e+00 9.75798386487269e-02 9.15321141418616e-04
2.72016666666667e+00 9.63400628898424e-02 9.09023600746769e-04
2.75198148148148e+00 9.51160387878517e-02 9.02707629594243e-04
2.78379629629630e+00 9.39075662097231e-02 8.96375627201246e-04
2.81561111111111e+00 9.27144475738135e-02 8.90029901691214e-04
2.84742592592593e+00 9.15364878003548e-02 8.83672673645051e-04
2.87924074074074e+00 9.03734942963672e-02 8.77306079140896e-04
2.91105555555556e+00 8.92252769077499e-02 8.70932173032775e-04
2.94287037037037e+00 8.80916479042330e-02 8.64552931724688e-04
2.97468518518519e+00 8.69724219330091e-02 8.58170256183708e-04
3.00650000000000e+00 8.58674160037445e-02 8.51785974476318e-04
3.03831481481481e+00 8.47764494436921e-02 8.45401844542820e-04
3.07012962962963e+00 8.36993438827804e-02 8.39019556520143e-04
3.10194444444444e+00 8.26359232101506e-02 8.32640735300862e-04
3.13375925925926e+00 8.15860135593408e-02 8.26266942663948e-04
3.16557407407407e+00 8.05494432661926e-02 8.19899679639151e-04
3.19738888888889e+00 7.95260428541460e-02 8.13540388464417e-04
3.22920370370370e+00 7.85156449934640e-02 8.07190454773719e-04
3.26101851851852e+00 7.75180844866516e-02 8.00851209397970e-04
3.29283333333333e+00 7.65331982289492e-02 7.94523930392550e-04
3.32464814814815e+00 7.55608251938881e-02 7.88209844696348e-04
3.35646296296296e+00 7.46008063950059e-02 7.81910130013335e-04
3.38827777777778e+00 7.36529848715490e-02 7.75625916342814e-04
3.42009259259259e+00 7.27172056513657e-02 7.69358287727859e-04
3.45190740740741e+00 7.17933157367654e-02 7.63108283142236e-04
3.48372222222222e+00 7.08811640711338e-02 7.56876900229355e-04
3.51553703703704e+00 6.99806015145736e-02 7.50665093461028e-04
3.54735185185185e+00 6.90914808271331e-02 7.44473777653889e-04
3.57916666666667e+00 6.82136566346007e-02 7.38303828863907e-04
3.61098148148148e+00 6.73469854146545e-02 7.32156085552258e-04
3.64279629629630e+00 6.64913254636863e-02 7.26031349948393e-04
3.67461111111111e+00 6.56465368831395e-02 7.19930389130504e-04
3.70642592592593e+00 6.48124815473275e-02 7.13853936298590e-04
3.73824074074074e+00 6.39890230899649e-02 7.07802691776807e-04
3.77005555555556e+00 6.31760268729453e-02 7.01777324203604e-04
3.80187037037037e+00 6.23733599730698e-02 6.95778471462408e-04
3.83368518518519e+00 6.15808911517523e-02 6.89806741795246e-04
3.86550000000000e+00 6.07984908419478e-02 6.83862714667491e-04
3.89731481481481e+00 6.00260311187536e-02 6.77946941810909e-04
3.92912962962963e+00 5.92633856865405e-02 6.72059948027634e-04
3.96094444444444e+00 5.85104298504204e-02 6.66202232167904e-04
3.99275925925926e+00 5.77670405035814e-02 6.60374267878143e-04
4.02457407407407e+00 5.70330960995934e-02 6.54576504518084e-04
4.05638888888889e+00 5.63084766399489e-02 6.48809367857324e-04
4.08820370370370e+00 5.55930636471784e-02 6.43073260936297e-04
4.12001851851852e+00 5.48867401525984e-02 6.37368564715135e-04
4.15183333333333e+00 5.41893906702105e-02 6.31695638882437e-04
4.18364814814815e+00 5.35009011846565e-02 6.26054822460158e-04
4.21546296296296e+00 5.28211591258755e-02 6.20446434563801e-04
4.24727777777778e+00 5.21500533572671e-02 6.14870774966506e-04
4.27909259259259e+00 5.14874741510823e-02 6.09328124814210e-04
4.31090740740741e+00 5.08333131767939e-02 6.03818746818230e-04
4.34272222222222e+00 5.01874634786659e-02 5.98342887267121e-04
4.37453703703704e+00 4.95498194584389e-02 5.92900774522326e-04
4.40635185185185e+00 4.89202768623981e-02 5.87492620922196e-04
4.43816666666667e+00 4.82987327585612e-02 5.82118623037832e-04
4.46998148148148e+00 4.76850855255029e-02 5.76778962117307e-04
4.50179629629630e+00 4.70792348301961e-02 5.71473804664427e-04
4.53361111111111e+00 4.64810816170436e-02 5.66203302853761e-04
4.56542592592593e+00 4.58905280863510e-02 5.60967595076284e-04
4.59724074074074e+00 4.53074776835652e-02 5.55766806327213e-04
4.62905555555556e+00 4.47318350783595e-02 5.50601048720769e-04
4.66087037037037e+00 4.41635061540771e-02 5.45470421852639e-04
4.69268518518519e+00 4.36023979874085e-02 5.40375013285708e-04
4.72450000000000e+00 4.30484188380393e-02 5.35314898889003e-04
4.75631481481482e+00 4.25014781289019e-02 5.30290143296242e-04
4.78812962962963e+00 4.19614864360243e-02 5.25300800222702e-04
4.81994444444444e+00 4.14283554693398e-02 5.20346912898342e-04
4.85175925925926e+00 4.09019980627342e-02 5.15428514364129e-04
4.88357407407407e+00 4.03823281553961e-02 5.10545627881257e-04
4.91538888888889e+00 3.98692607820611e-02 5.05698267208244e-04
4.94720370370370e+00 3.93627120548857e-02 5.00886436987634e-04
4.97901851851852e+00 3.88625991538866e-02 4.96110133005265e-04
5.01083333333333e+00 3.83688403093223e-02 4.91369342555830e-04
5.04264814814815e+00 3.78813547923246e-02 4.86664044685335e-04
5.07446296296296e+00 3.74000628977736e-02 4.81994210536833e-04
5.10627777777778e+00 3.69248859351181e-02 4.77359803577197e-04
5.13809259259259e+00 3.64557462117292e-02 4.72760779924102e-04
5.16990740740741e+00 3.59925670239077e-02 4.68197088342458e-04
5.20172222222222e+00 3.55352726415690e-02 4.63668671419532e-04
5.23353703703704e+00 3.50837882959545e-02 4.59175464472645e-04
5.26535185185185e+00 3.46380401699726e-02 4.54717396664290e-04
5.29716666666667e+00 3.41979553827158e-02 4.50294391054945e-04
5.32898148148148e+00 3.37634619808955e-02 4.45906364782977e-04
5.36079629629630e+00 3.33344889237885e-02 4.41553229333792e-04
5.39261111111111e+00 3.29109660748505e-02 4.37234890708043e-04
5.42442592592593e+00 3.24928241870790e-02 4.32951249676432e-04
5.45624074074074e+00 3.20799948948034e-02 4.28702201936920e-04
5.48805555555556e+00 3.16724106994516e-02 4.24487638356039e-04
5.51987037037037e+00 3.12700049615142e-02 4.20307445115789e-04
5.55168518518519e+00 3.08727118867032e-02 4.16161503942184e-04
5.58350000000000e+00 3.04804665180867e-02 4.12049692242500e-04
5.61531481481482e+00 3.00932047226285e-02 4.07971883321728e-04
5.64712962962963e+00 2.97108631834914e-02 4.03927946510764e-04
5.67894444444444e+00 2.93333793869455e-02 3.99917747371473e-04
5.71075925925926e+00 2.89606916148377e-02 3.95941147816341e-04
5.74257407407407e+00 2.85927389318584e-02 3.91998006302744e-04
5.77438888888889e+00 2.82294611781732e-02 3.88088177944601e-04
5.80620370370370e+00 2.78707989570390e-02 3.84211514696478e-04
5.83801851851852e+00 2.75166936275947e-02 3.80367865457671e-04
5.86983333333333e+00 2.71670872928155e-02 3.76557076246661e-04
5.90164814814815e+00 2.68219227924613e-02 3.72778990298148e-04
5.93346296296296e+00 2.64811436913594e-02 3.69033448228379e-04
5.96527777777778e+00 2.61446942725060e-02 3.65320288125494e-04
5.99709259259259e+00 2.58125195256699e-02 3.61639345706202e-04
6.02890740740741e+00 2.54845651406440e-02 3.57990454258460e-04
6.06072222222222e+00 2.51607774966862e-02 3.54373445357659e-04
6.09253703703704e+00 2.48411036538059e-02 3.50788148098395e-04
6.12435185185185e+00 2.45254913456683e-02 3.47234389774810e-04
6.15616666666667e+00 2.42138889689734e-02 3.43711995865608e-04
6.18798148148148e+00 2.39062455770576e-02 3.40220790104419e-04
6.21979629629630e+00 2.36025108695607e-02 3.36760594609341e-04
6.25161111111111e+00 2.33026351861703e-02 3.33331229948232e-04
6.28342592592593e+00 2.30065694965677e-02 3.29932515261434e-04
6.31524074074074e+00 2.27142653943128e-02 3.26564268322367e-04
6.34705555555556e+00 2.24256750870609e-02 3.23226305653782e-04
6.37887037037037e+00 2.21407513905850e-02 3.19918442583873e-04
6.41068518518519e+00 2.18594477192569e-02 3.16640493356478e-04
6.44250000000000e+00 2.15817180802028e-02 3.13392271182888e-04
6.47431481481482e+00 2.13075170640424e-02 3.10173588346318e-04
6.50612962962963e+00 2.10367998391752e-02 3.06984256249770e-04
6.53794444444445e+00 2.07695221427689e-02 3.03824085514934e-04
6.56975925925926e+00 2.05056402751755e-02 3.00692886026383e-04
6.60157407407407e+00 2.02451110911616e-02 2.97590467025252e-04
6.63338888888889e+00 1.99878919944507e-02 2.94516637149873e-04
6.66520370370370e+00 1.97339409291899e-02 2.91471204524553e-04
6.69701851851852e+00 1.94832163746156e-02 2.88453976796886e-04
6.72883333333333e+00 1.92356773367493e-02 2.85464761221821e-04
6.76064814814815e+00 1.89912833431844e-02 2.82503364695873e-04
6.79246296296296e+00 1.87499944350054e-02 2.79569593836720e-04
6.82427777777778e+00 1.85117711616931e-02 2.76663255014508e-04
6.85609259259259e+00 1.82765745732604e-02 2.73784154427170e-04
6.88790740740741e+00 1.80443662152738e-02 2.70932098035247e-04
6.91972222222222e+00 1.78151081215267e-02 2.68106892009365e-04
6.95153703703704e+00 1.75887628078636e-02 2.65308342195321e-04
6.98335185185185e+00 1.73652932670202e-02 2.62536254539267e-04
7.01516666666667e+00 1.71446629612839e-02 2.59790435052802e-04
7.04698148148148e+00 1.69268358177864e-02 2.57070689835467e-04
7.07879629629630e+00 1.67117762213609e-02 2.54376825136696e-04
7.11061111111111e+00 1.64994490099427e-02 2.51708647376116e-04
7.14242592592593e+00 1.62898194676174e-02 2.49065963202096e-04
7.17424074074074e+00 1.60828533201271e-02 2.46448579509953e-04
7.20605555555556e+00 1.58785167281041e-02 2.43856303497319e-04
7.23787037037037e+00 1.56767762826813e-02 2.41288942680386e-04
7.26968518518519e+00 1.54775989989057e-02 2.38746304946214e-04
7.30150000000000e+00 1.52809523114506e-02 2.36228198567132e-04
7.33331481481482e+00 1.50868040682046e-02 2.33734432250186e-04
7.36512962962963e+00 1.48951225260829e-02 2.31264815149751e-04
7.39694444444445e+00 1.47058763447869e-02 2.28819156914239e-04
7.42875925925926e+00 1.45190345827132e-02 2.26397267697125e-04
7.46057407407407e+00 1.43345666908783e-02 2.23998958201027e-04
7.49238888888889e+00 1.41524425089235e-02 2.21624039687162e-04
7.52420370370370e+00 1.39726322592007e-02 2.19272324016975e-04
7.55601851851852e+00 1.37951065428700e-02 2.16943623660163e-04
7.58783333333333e+00 1.36198363341430e-02 2.14637751733920e-04
7.61964814814815e+00 1.34467929764712e-02 2.12354522009633e-04
7.65146296296296e+00 1.32759481769423e-02 2.10093748949874e-04
7.68327777777778e+00 1.31072740025570e-02 2.07855247713832e-04
7.71509259259259e+00 1.29407428747742e-02 2.05638834192189e-04
7.74690740740741e+00 1.27763275658752e-02 2.03444324948748e-04
7.77872222222222e+00 1.26140011938587e-02 2.01271537504446e-04
7.81053703703704e+00 1.24537372180648e-02 1.99120289965981e-04
7.84235185185185e+00 1.22955094354461e-02 1.96990401295661e-04
7.87416666666667e+00 1.21392919754711e-02 1.94881691274280e-04
7.90598148148148e+00 1.19850592966933e-02 1.92793980502803e-04
7.93779629629630e+00 1.18327861817895e-02 1.90727090430497e-04
7.96961111111111e+00 1.16824477342094e-02 1.88680843355654e-04
8.00142592592593e+00 1.15340193733452e-02 1.86655062452000e-04
8.03324074074074e+00 1.13874768312599e-02 1.84649571768576e-04
8.06505555555556e+00 1.12427961479843e-02 1.82664196254525e-04
8.09687037037037e+00 1.10999536683228e-02 1.80698761758134e-04
8.12868518518519e+00 1.09589260372745e-02 1.78753095050111e-04
8.16050000000000e+00 1.08196901969141e-02 1.76827023821842e-04
8.19231481481482e+00 1.06822233819339e-02 1.74920376707213e-04
8.22412962962963e+00 1.05465031165984e-02 1.73032983280172e-04
8.25594444444445e+00 1.04125072104040e-02 1.71164674075143e-04
8.28775925925926e+00 1.02802137551053e-02 1.69315280583927e-04
8.31957407407407e+00 1.01496011204893e-02 1.67484635274817e-04
8.35138888888889e+00 1.00206479514723e-02 1.65672571588859e-04
8.38320370370371e+00 9.89333316398514e-03 1.63878923957724e-04
8.41501851851852e+00 9.76763594213887e-03 1.62103527799405e-04
8.44683333333333e+00 9.64353573421841e-03 1.60346219534878e-04
8.47864814814815e+00 9.52101224991562e-03 1.58606836583277e-04
8.51046296296296e+00 9.40004545642806e-03 1.56885217377448e-04
8.54227777777778e+00 9.28061557575793e-03 1.55181201358609e-04
8.57409259259259e+00 9.16270308091332e-03 1.53494628990820e-04
8.60590740740741e+00 9.04628869327144e-03 1.51825341713159e-04
8.63772222222222e+00 8.93135337901074e-03 1.50173182121905e-04
8.66953703703704e+00 8.81787834601087e-03 1.48537993712708e-04
8.70135185185185e+00 8.70584504116935e-03 1.46919621053680e-04
8.73316666666667e+00 8.59523514685017e-03 1.45317909752342e-04
8.76498148148148e+00 8.48603057839853e-03 1.43732706448901e-04
8.79679629629630e+00 8.37821348068250e-03 1.42163858827344e-04
8.82861111111111e+00 8.27176622566707e-03 1.40611215608353e-04
8.86042592592593e+00 8.16667140904654e-03 1.39074626559536e-04
8.89224074074074e+00 8.06291184787654e-03 1.37553942488050e-04
8.92405555555556e+00 7.96047057729463e-03 1.36049015250023e-04
8.95587037037037e+00 7.85933084820899e-03 1.34559697742889e-04
8.98768518518519e+00 7.75947612410485e-03 1.33085843914041e-04
9.01950000000000e+00 7.66089007878858e-03 1.31627308752905e-04
9.05131481481482e+00 7.56355659327774e-03 1.30183948298881e-04
9.08312962962963e+00 7.46745975359909e-03 1.28755619633167e-04
9.11494444444445e+00 7.37258384776017e-03 1.27342180886012e-04
9.14675925925926e+00 7.27891336360003e-03 1.25943491228338e-04
9.17857407407407e+00 7.18643298584001e-03 1.24559410878336e-04
9.21038888888889e+00 7.09512759398610e-03 1.23189801092894e-04
9.24220370370371e+00 7.00498225945677e-03 1.21834524173579e-04
9.27401851851852e+00 6.91598224353575e-03 1.20493443457884e-04
9.30583333333333e+00 6.82811299457486e-03 1.19166423324638e-04
9.33764814814815e+00 6.74136014599605e-03 1.17853329185094e-04
9.36946296296296e+00 6.65570951356729e-03 1.16554027487782e-04
9.40127777777778e+00 6.57114709345262e-03 1.15268385709471e-04
9.43309259259259e+00 6.48765905955921e-03 1.13996272359489e-04
9.46490740740741e+00 6.40523176163431e-03 1.12737556942173e-04
9.49672222222222e+00 6.32385172276599e-03 1.11492110074641e-04
9.52853703703704e+00 6.24350563718721e-03 1.10259803307610e-04
9.56035185185185e+00 6.16418036835101e-03 1.09040509237236e-04
9.59216666666667e+00 6.08586294644904e-03 1.07834101477838e-04
9.62398148148148e+00 6.00854056661940e-03 1.06640454652546e-04
9.65579629629630e+00 5.93220058652980e-03 1.05459444395973e-04
9.68761111111111e+00 5.85683052462866e-03 1.04290947344786e-04
9.71942592592593e+00 5.78241805779125e-03 1.03134841139989e-04
9.75124074074074e+00 5.70895101961304e-03 1.01991004417425e-04
9.78305555555556e+00 5.63641739811718e-03 1.00859316809678e-04
9.81487037037037e+00 5.56480533408904e-03 9.97396589365413e-05
9.84668518518519e+00 5.49410311884340e-03 9.86319124065403e-05
9.87850000000000e+00 5.42429919259931e-03 9.75359598073833e-05
9.91031481481482e+00 5.35538214230536e-03 9.64516847071471e-05
9.94212962962963e+00 5.28734070005384e-03 9.53789716446876e-05
9.97394444444445e+00 5.22016374096265e-03 9.43177061305170e-05
1.00057592592593e+01 5.15384028162784e-03 9.32677747040071e-05
1.00375740740741e+01 5.08835947786737e-03 9.22290647097670e-05
