Energy (eV)          EEDF (eV^-(3/2))     First Anisotropy
9.70833333333333e-03 2.53748404207854e-01 1.36930107075532e-04
2.91250000000000e-02 2.51928554278461e-01 2.26059676956205e-04
4.85416666666667e-02 2.50121756078345e-01 2.98289713937348e-04
6.79583333333333e-02 2.48327915994463e-01 3.53081542231336e-04
8.73750000000000e-02 2.46546941093034e-01 3.98710883969736e-04
1.06791666666667e-01 2.44778739109035e-01 4.38308026654152e-04
1.26208333333333e-01 2.43023218434806e-01 4.73493557099823e-04
1.45625000000000e-01 2.41280288117457e-01 5.05246486691737e-04
1.65041666666667e-01 2.39549857873432e-01 5.34216367910218e-04
1.84458333333333e-01 2.37831838042421e-01 5.60862469304615e-04
2.03875000000000e-01 2.36126139618811e-01 5.85524893776227e-04
2.23291666666667e-01 2.34432674243797e-01 6.08464550609517e-04
2.42708333333333e-01 2.32751354175562e-01 6.29887253631719e-04
2.62125000000000e-01 2.31082092309709e-01 6.49959066909740e-04
2.81541666666667e-01 2.29424802172931e-01 6.68816518614701e-04
3.00958333333333e-01 2.27779397899457e-01 6.86573638325915e-04
3.20375000000000e-01 2.26145794245537e-01 7.03326955467235e-04
3.39791666666667e-01 2.24523906583872e-01 7.19159145910540e-04
3.59208333333333e-01 2.22913650884006e-01 7.34141743222153e-04
3.78625000000000e-01 2.21314943723114e-01 7.48337195914020e-04
3.98041666666667e-01 2.19727702280871e-01 7.61800459298298e-04
4.17458333333333e-01 2.18151844322584e-01 7.74580238257516e-04
4.36875000000000e-01 2.16587288207465e-01 7.86719973139199e-04
4.56291666666667e-01 2.15033952883795e-01 7.98258635351355e-04
4.75708333333333e-01 2.13491757874081e-01 8.09231369456034e-04
4.95125000000000e-01 2.11960623281507e-01 8.19670019141941e-04
5.14541666666667e-01 2.10440469785328e-01 8.29603565725992e-04
5.33958333333333e-01 2.08931218627582e-01 8.39058490286447e-04
5.53375000000000e-01 2.07432791618174e-01 8.48059077577057e-04
5.72791666666667e-01 2.05945111130456e-01 8.56627676366167e-04
5.92208333333333e-01 2.04468100089174e-01 8.64784917821921e-04
6.11625000000000e-01 2.03001681974497e-01 8.72549902291118e-04
6.31041666666667e-01 2.01545780817756e-01 8.79940363198667e-04
6.50458333333333e-01 2.00100321190394e-01 8.86972805888366e-04
6.69875000000000e-01 1.98665228207170e-01 8.93662628187156e-04
6.89291666666667e-01 1.97240427522021e-01 9.00024228623132e-04
7.08708333333333e-01 1.95825845317870e-01 9.06071098543961e-04
7.28125000000000e-01 1.94421408309144e-01 9.11815903110533e-04
7.47541666666667e-01 1.93027043737768e-01 9.17270555636156e-04
7.66958333333333e-01 1.91642679363681e-01 9.22446280892054e-04
7.86375000000000e-01 1.90268243466809e-01 9.27353671347273e-04
8.05791666666667e-01 1.88903664843170e-01 9.32002739978066e-04
8.25208333333333e-01 1.87548872796007e-01 9.36402965070353e-04
8.44625000000000e-01 1.86203797137304e-01 9.40563330371188e-04
8.64041666666667e-01 1.84868368183995e-01 9.44492363703886e-04
8.83458333333333e-01 1.83542516749638e-01 9.48198169474685e-04
9.02875000000000e-01 1.82226174145548e-01 9.51688458022800e-04
9.22291666666667e-01 1.80919272177105e-01 9.54970574577831e-04
9.41708333333333e-01 1.79621743135900e-01 9.58051523352612e-04
9.61125000000000e-01 1.78333519800553e-01 9.60937989436323e-04
9.80541666666667e-01 1.77054535433107e-01 9.63636360998720e-04
9.99958333333333e-01 1.75784723771602e-01 9.66152748185287e-04
1.01937500000000e+00 1.74524019026866e-01 9.68492996225099e-04
1.03879166666667e+00 1.73272355897580e-01 9.70662709050314e-04
1.05820833333333e+00 1.72029669526418e-01 9.72667260563455e-04
1.07762500000000e+00 1.70795895533352e-01 9.74511800468637e-04
1.09704166666667e+00 1.69570970011352e-01 9.76201280385494e-04
1.11645833333333e+00 1.68354829489188e-01 9.77740458660791e-04
1.13587500000000e+00 1.67147410962090e-01 9.79133904423183e-04
1.15529166666667e+00 1.65948651887611e-01 9.80386020473764e-04
1.17470833333333e+00 1.64758490150932e-01 9.81501046072877e-04
1.19412500000000e+00 1.63576864093164e-01 9.82483059174682e-04
1.21354166666667e+00 1.62403712507360e-01 9.83335996774755e-04
1.23295833333333e+00 1.61238974606074e-01 9.84063656214641e-04
1.25237500000000e+00 1.60082590047546e-01 9.84669696080835e-04
1.27179166666667e+00 1.58934498931861e-01 9.85157654507256e-04
1.29120833333333e+00 1.57794641770533e-01 9.85530949386728e-04
1.31062500000000e+00 1.56662959510796e-01 9.85792878283468e-04
1.33004166666667e+00 1.55539393531897e-01 9.85946635061685e-04
1.34945833333333e+00 1.54423885616514e-01 9.85995309287152e-04
1.36887500000000e+00 1.53316377973342e-01 9.85941885408104e-04
1.38829166666667e+00 1.52216813233505e-01 9.85789257991894e-04
1.40770833333333e+00 1.51125134423650e-01 9.85540230525348e-04
1.42712500000000e+00 1.50041284986989e-01 9.85197514052799e-04
1.44654166666667e+00 1.48965208779815e-01 9.84763741237811e-04
1.46595833333333e+00 1.47896850046138e-01 9.84241464717839e-04
1.48537500000000e+00 1.46836153437312e-01 9.83633155340555e-04
1.50479166666667e+00 1.45783064008664e-01 9.82941215220847e-04
1.52420833333333e+00 1.44737527195528e-01 9.82167975766721e-04
1.54362500000000e+00 1.43699488831594e-01 9.81315695620202e-04
1.56304166666667e+00 1.42668895145635e-01 9.80386572844768e-04
1.58245833333333e+00 1.41645692738836e-01 9.79382742711326e-04
1.60187500000000e+00 1.40629828601966e-01 9.78306275424721e-04
1.62129166666667e+00 1.39621250112202e-01 9.77159187550310e-04
1.64070833333333e+00 1.38619905011651e-01 9.75943439627758e-04
1.66012500000000e+00 1.37625741423445e-01 9.74660933745191e-04
1.67954166666667e+00 1.36638707848655e-01 9.73313524293527e-04
1.69895833333333e+00 1.35658753145915e-01 9.71903015460342e-04
1.71837500000000e+00 1.34685826546532e-01 9.70431158699488e-04
1.73779166666667e+00 1.33719877651482e-01 9.68899662885961e-04
1.75720833333333e+00 1.32760856412057e-01 9.67310191730313e-04
1.77662500000000e+00 1.31808713144067e-01 9.65664361180813e-04
1.79604166666667e+00 1.30863398524913e-01 9.63963749039653e-04
1.81545833333333e+00 1.29924863575190e-01 9.62209892329137e-04
1.83487500000000e+00 1.28993059672041e-01 9.60404284654998e-04
1.85429166666667e+00 1.28067938546315e-01 9.58548385335368e-04
1.87370833333333e+00 1.27149452265051e-01 9.56643616743145e-04
1.89312500000000e+00 1.26237553244056e-01 9.54691361652640e-04
1.91254166666667e+00 1.25332194245135e-01 9.52692971924850e-04
1.93195833333333e+00 1.24433328359407e-01 9.50649765845061e-04
1.95137500000000e+00 1.23540909019153e-01 9.48563025470285e-04
1.97079166666667e+00 1.22654889995125e-01 9.46434004908050e-04
1.99020833333333e+00 1.21775225380631e-01 9.44263927663958e-04
2.00962500000000e+00 1.20901869602714e-01 9.42053984003597e-04
2.02904166666667e+00 1.20034777419533e-01 9.39805338857128e-04
2.04845833333333e+00 1.19173903905164e-01 9.37519129188274e-04
2.06787500000000e+00 1.18319204460164e-01 9.35196461381204e-04
2.08729166666667e+00 1.17470634809014e-01 9.32838418799104e-04
2.10670833333333e+00 1.16628150985598e-01 9.30446059183604e-04
2.12612500000000e+00 1.15791709343193e-01 9.28020412074455e-04
2.14554166666667e+00 1.14961266551966e-01 9.25562486046857e-04
2.16495833333333e+00 1.14136779585101e-01 9.23073266148291e-04
2.18437500000000e+00 1.13318205728240e-01 9.20553711357334e-04
2.20379166666667e+00 1.12505502577043e-01 9.18004761521593e-04
2.22320833333333e+00 1.11698628023922e-01 9.15427334836890e-04
2.24262500000000e+00 1.10897540266966e-01 9.12822325350059e-04
2.26204166666667e+00 1.10102197807569e-01 9.10190609616948e-04
2.28145833333333e+00 1.09312559437723e-01 9.07533044227865e-04
2.30087500000000e+00 1.08528584248475e-01 9.04850463357939e-04
2.32029166666667e+00 1.07750231627611e-01 9.02143685162519e-04
2.33970833333333e+00 1.06977461247481e-01 8.99413509351815e-04
2.35912500000000e+00 1.06210233073014e-01 8.96660714791268e-04
2.37854166666667e+00 1.05448507359459e-01 8.93886065650038e-04
2.39795833333333e+00 1.04692244640712e-01 8.91090309026976e-04
2.41737500000000e+00 1.03941405736917e-01 8.88274172602698e-04
2.43679166666667e+00 1.03195951752262e-01 8.85438370555471e-04
2.45620833333333e+00 1.02455844063778e-01 8.82583601239723e-04
2.47562500000000e+00 1.01721044328557e-01 8.79710544890939e-04
2.49504166666667e+00 1.00991514481593e-01 8.76819869321844e-04
2.51445833333333e+00 1.00267216725041e-01 8.73912227654421e-04
2.53387500000000e+00 9.95481135350585e-02 8.70988256078376e-04
2.55329166666667e+00 9.88341676597060e-02 8.68048579339175e-04
2.57270833333333e+00 9.81253421086278e-02 8.65093808524046e-04
2.59212500000000e+00 9.74216001595535e-02 8.62124538874131e-04
2.61154166666667e+00 9.67229053562446e-02 8.59141355075239e-04
2.63095833333333e+00 9.60292214985824e-02 8.56144829097880e-04
2.65037500000000e+00 9.53405126487444e-02 8.53135518063216e-04
2.66979166666667e+00 9.46567431292003e-02 8.50113969346376e-04
2.68920833333333e+00 9.39778775131834e-02 8.47080718470074e-04
2.70862500000000e+00 9.33038806305625e-02 8.44036287024267e-04
2.72804166666667e+00 9.26347175658842e-02 8.40981187591133e-04
2.74745833333333e+00 9.19703536492103e-02 8.37915921691898e-04
2.76687500000000e+00 9.13107544617015e-02 8.34840977759478e-04
2.78629166666667e+00 9.06558858337059e-02 8.31756835893711e-04
2.80570833333333e+00 9.00057138359428e-02 8.28663965860798e-04
2.82512500000000e+00 8.93602047848165e-02 8.25562825118246e-04
2.84454166666667e+00 8.87193252405478e-02 8.22453863408261e-04
2.86395833333333e+00 8.80830419986892e-02 8.19337520809052e-04
2.88337500000000e+00 8.74513220951821e-02 8.16214225811138e-04
2.90279166666667e+00 8.68241328045318e-02 8.13084399756266e-04
2.92220833333333e+00 8.62014416316375e-02 8.09948454939770e-04
2.94162500000000e+00 8.55832163166073e-02 8.06806792737506e-04
2.96104166666667e+00 8.49694248329754e-02 8.03659807896912e-04
2.98045833333333e+00 8.43600353798321e-02 8.00507886689419e-04
2.99987500000000e+00 8.37550163864100e-02 7.97351405087155e-04
3.01929166666667e+00 8.31543365103424e-02 7.94190732912570e-04
3.03870833333333e+00 8.25579646300790e-02 7.91026232039943e-04
3.05812500000000e+00 8.19658698492563e-02 7.87858254620651e-04
3.07754166666667e+00 8.13780214949954e-02 7.84687147097559e-04
3.09695833333333e+00 8.07943891105912e-02 7.81513248454526e-04
3.11637500000000e+00 8.02149424596774e-02 7.78336888489075e-04
3.13579166666667e+00 7.96396515245637e-02 7.75158391697117e-04
3.15520833333333e+00 7.90684864991857e-02 7.71978075569440e-04
3.17462500000000e+00 7.85014177930759e-02 7.68796248910968e-04
3.19404166666667e+00 7.79384160297387e-02 7.65613215600756e-04
3.21345833333333e+00 7.73794520398496e-02 7.62429272934522e-04
3.23287500000000e+00 7.68244968650426e-02 7.59244709989297e-04
3.25229166666667e+00 7.62735217563215e-02 7.56059811263909e-04
3.27170833333333e+00 7.57264981674980e-02 7.52874855066233e-04
3.29112500000000e+00 7.51833977588047e-02 7.49690111922022e-04
3.31054166666667e+00 7.46441923953425e-02 7.46505848100855e-04
3.32995833333333e+00 7.41088541407464e-02 7.43322324046896e-04
3.34937500000000e+00 7.35773552606332e-02 7.40139792830939e-04
3.36879166666667e+00 7.30496682210843e-02 7.36958503565916e-04
3.38820833333333e+00 7.25257656825294e-02 7.33778699880330e-04
3.40762500000000e+00 7.20056205030377e-02 7.30600618412284e-04
3.42704166666667e+00 7.14892057368347e-02 7.27424492118930e-04
3.44645833333333e+00 7.09764946283947e-02 7.24250548791314e-04
3.46587500000000e+00 7.04674606155838e-02 7.21079009589327e-04
3.48529166666667e+00 6.99620773282088e-02 7.17910092249208e-04
3.50470833333333e+00 6.94603185823115e-02 7.14744009638564e-04
3.52412500000000e+00 6.89621583831690e-02 7.11580968331240e-04
3.54354166666667e+00 6.84675709238759e-02 7.08421171716556e-04
3.56295833333333e+00 6.79765305798303e-02 7.05264818593613e-04
3.58237500000000e+00 6.74890119115994e-02 7.02112101784921e-04
3.60179166666667e+00 6.70049896635340e-02 6.98963211150936e-04
3.62120833333333e+00 6.65244387584385e-02 6.95818332222657e-04
3.64062500000000e+00 6.60473343003086e-02 6.92677644852938e-04
3.66004166666667e+00 6.55736515729767e-02 6.89541326139786e-04
3.67945833333333e+00 6.51033660349586e-02 6.86409549096218e-04
3.69887500000000e+00 6.46364533220700e-02 6.83282481338159e-04
3.71829166666667e+00 6.41728892461017e-02 6.80160287919844e-04
3.73770833333333e+00 6.37126497898363e-02 6.77043130039739e-04
3.75712500000000e+00 6.32557111095489e-02 6.73931163764212e-04
3.77654166666667e+00 6.28020495337117e-02 6.70824542778169e-04
3.79595833333333e+00 6.23516415581739e-02 6.67723417126034e-04
3.81537500000000e+00 6.19044638485520e-02 6.64627931970104e-04
3.83479166666667e+00 6.14604932389635e-02 6.61538230259428e-04
3.85420833333333e+00 6.10197067273632e-02 6.58454451504840e-04
3.87362500000000e+00 6.05820814778287e-02 6.55376730571095e-04
3.89304166666667e+00 6.01475948193222e-02 6.52305200266792e-04
3.91245833333333e+00 5.97162242411773e-02 6.49239990152570e-04
3.93187500000000e+00 5.92879473952850e-02 6.46181225366010e-04
3.95129166666667e+00 5.88627420948821e-02 6.43129029135295e-04
3.97070833333333e+00 5.84405863101839e-02 6.40083521619853e-04
3.99012500000000e+00 5.80214581704738e-02 6.37044818766889e-04
4.00954166666667e+00 5.76053359629195e-02 6.34013034751463e-04
4.02895833333333e+00 5.71921981283445e-02 6.30988280848557e-04
4.04837500000000e+00 5.67820232632269e-02 6.27970664320508e-04
4.06779166666667e+00 5.63747901185419e-02 6.24960290785953e-04
4.08720833333333e+00 5.59704775956676e-02 6.21957263122337e-04
4.10662500000000e+00 5.55690647482966e-02 6.18961680383461e-04
4.12604166666667e+00 5.51705307813050e-02 6.15973640099677e-04
4.14545833333333e+00 5.47748550467860e-02 6.12993237209946e-04
4.16487500000000e+00 5.43820170458804e-02 6.10020563008665e-04
4.18429166666667e+00 5.39919964276692e-02 6.07055707379406e-04
4.20370833333333e+00 5.36047729853328e-02 6.04098757755744e-04
4.22312500000000e+00 5.32203266579013e-02 6.01149798096468e-04
4.24254166666667e+00 5.28386375291729e-02 5.98208911055044e-04
4.26195833333333e+00 5.24596858239915e-02 5.95276176968428e-04
4.28137500000000e+00 5.20834519099230e-02 5.92351672859814e-04
4.30079166666667e+00 5.17099162961966e-02 5.89435474545929e-04
4.32020833333333e+00 5.13390596300985e-02 5.86527655653050e-04
4.33962500000000e+00 5.09708626985760e-02 5.83628286646662e-04
4.35904166666667e+00 5.06053064272022e-02 5.80737436878514e-04
4.37845833333333e+00 5.02423718766806e-02 5.77855173628944e-04
4.39787500000000e+00 4.98820402443814e-02 5.74981561162655e-04
4.41729166666667e+00 4.95242928633282e-02 5.72116662717674e-04
4.43670833333333e+00 4.91691111988104e-02 5.69260539573272e-04
4.45612500000000e+00 4.88164768498534e-02 5.66413250130998e-04
4.47554166666667e+00 4.84663715482281e-02 5.63574851847326e-04
4.49495833333333e+00 4.81187771551664e-02 5.60745400326494e-04
4.51437500000000e+00 4.77736756627691e-02 5.57924948426175e-04
4.53379166666667e+00 4.74310491930371e-02 5.55113548135525e-04
4.55320833333333e+00 4.70908799946863e-02 5.52311249692293e-04
4.57262500000000e+00 4.67531504444961e-02 5.49518100712414e-04
4.59204166666667e+00 4.64178430463618e-02 5.46734148015214e-04
4.61145833333333e+00 4.60849404282057e-02 5.43959436764055e-04
4.63087500000000e+00 4.57544253432684e-02 5.41194009619079e-04
4.65029166666667e+00 4.54262806691821e-02 5.38437908511385e-04
4.66970833333333e+00 4.51004894049745e-02 5.35691173806508e-04
4.68912500000000e+00 4.47770346723056e-02 5.32953843479689e-04
4.70854166666667e+00 4.44558997145614e-02 5.30225954840538e-04
4.72795833333333e+00 4.41370678939470e-02 5.27507543718749e-04
4.74737500000000e+00 4.38205226926720e-02 5.24798643661321e-04
4.76679166666667e+00 4.35062477120631e-02 5.22099287609107e-04
4.78620833333333e+00 4.31942266697448e-02 5.19409507104214e-04
4.80562500000000e+00 4.28844434007739e-02 5.16729331508555e-04
4.82504166666667e+00 4.25768818567724e-02 5.14058789633838e-04
4.84445833333333e+00 4.22715261031910e-02 5.11397908969944e-04
4.86387500000000e+00 4.19683603203968e-02 5.08746714924215e-04
4.88329166666667e+00 4.16673688028241e-02 5.06105232406374e-04
4.90270833333333e+00 4.13685359563197e-02 5.03473485077278e-04
4.92212500000000e+00 4.10718462991842e-02 5.00851494608296e-04
4.94154166666667e+00 4.07772844613420e-02 4.98239282222575e-04
4.96095833333333e+00 4.04848351817640e-02 4.95636867963687e-04
4.98037500000000e+00 4.01944833094654e-02 4.93044269974458e-04
4.99979166666667e+00 3.99062138026942e-02 4.90461505995825e-04
5.01920833333333e+00 3.96200117264292e-02 4.87888592654840e-04
5.03862500000000e+00 3.93358622533358e-02 4.85325544762523e-04
5.05804166666667e+00 3.90537506629723e-02 4.82772376771638e-04
5.07745833333333e+00 3.87736623393608e-02 4.80229102083376e-04
5.09687500000000e+00 3.84955827719033e-02 4.77695732363693e-04
5.11629166666667e+00 3.82194975546049e-02 4.75172278961257e-04
5.13570833333333e+00 3.79453923837156e-02 4.72658752232329e-04
5.15512500000000e+00 3.76732530586078e-02 4.70155160875088e-04
5.17454166666667e+00 3.74030654810167e-02 4.67661513308903e-04
5.19395833333333e+00 3.71348156527501e-02 4.65177817016910e-04
5.21337500000000e+00 3.68684896765295e-02 4.62704077897798e-04
5.23279166666667e+00 3.66040737552467e-02 4.60240301607641e-04
5.25220833333333e+00 3.63415541897398e-02 4.57786492919636e-04
5.27162500000000e+00 3.60809173795992e-02 4.55342655092881e-04
5.29104166666667e+00 3.58221498224406e-02 4.52908791177762e-04
5.31045833333333e+00 3.55652381117444e-02 4.50484903392489e-04
5.32987500000000e+00 3.53101689376284e-02 4.48070992508403e-04
5.34929166666667e+00 3.50569290861362e-02 4.45667059120036e-04
5.36870833333333e+00 3.48055054371393e-02 4.43273103037886e-04
5.38812500000000e+00 3.45558849650764e-02 4.40889122689744e-04
5.40754166666667e+00 3.43080547382584e-02 4.38515116356548e-04
5.42695833333333e+00 3.40620019168294e-02 4.36151081580982e-04
5.44637500000000e+00 3.38177137534758e-02 4.33797014584411e-04
5.46579166666667e+00 3.35751775927462e-02 4.31452911469420e-04
5.48520833333333e+00 3.33343808690701e-02 4.29118767643810e-04
5.50462500000000e+00 3.30953111074377e-02 4.26794577252794e-04
5.52404166666667e+00 3.28579559227343e-02 4.24480334349100e-04
5.54345833333333e+00 3.26223030178156e-02 4.22176032332039e-04
5.56287500000000e+00 3.23883401841589e-02 4.19881663394408e-04
5.58229166666667e+00 3.21560553012116e-02 4.17597219661296e-04
5.60170833333333e+00 3.19254363345213e-02 4.15322692643670e-04
5.62112500000000e+00 3.16964713363595e-02 4.13058072699586e-04
5.64054166666667e+00 3.14691484450848e-02 4.10803350142623e-04
5.65995833333333e+00 3.12434558833247e-02 4.08558514709561e-04
5.67937500000000e+00 3.10193819585741e-02 4.06323555035604e-04
5.69879166666667e+00 3.07969150625719e-02 4.04098459733208e-04
5.71820833333333e+00 3.05760436695341e-02 4.01883216873583e-04
5.73762500000000e+00 3.03567563367268e-02 3.99677813475450e-04
5.75704166666667e+00 3.01390417038568e-02 3.97482236555107e-04
5.77645833333333e+00 2.99228884913538e-02 3.95296472621420e-04
5.79587500000000e+00 2.97082855009199e-02 3.93120507177735e-04
5.81529166666667e+00 2.94952216149328e-02 3.90954325744048e-04
5.83470833333333e+00 2.92836857947763e-02 3.88797913364999e-04
5.85412500000000e+00 2.90736670813667e-02 3.86651254124661e-04
5.87354166666667e+00 2.88651545945692e-02 3.84514332141677e-04
5.89295833333333e+00 2.86581375315743e-02 3.82387131089851e-04
5.91237500000000e+00 2.84526051674026e-02 3.80269633725443e-04
5.93179166666667e+00 2.82485468543336e-02 3.78161822855976e-04
5.95120833333333e+00 2.80459520203271e-02 3.76063680873138e-04
5.97062500000000e+00 2.78448101695071e-02 3.73975189292301e-04
5.99004166666667e+00 2.76451108816030e-02 3.71896329695725e-04
6.00945833333333e+00 2.74468438104142e-02 3.69827083277443e-04
6.02887500000000e+00 2.72499986842740e-02 3.67767430394569e-04
6.04829166666667e+00 2.70545653055028e-02 3.65717351485699e-04
6.06770833333333e+00 2.68605335489155e-02 3.63676826627481e-04
6.08712500000000e+00 2.66678933622651e-02 3.61645835097411e-04
6.10654166666667e+00 2.64766347657086e-02 3.59624356268072e-04
6.12595833333333e+00 2.62867478503543e-02 3.57612369175043e-04
