Energy (eV)          EEDF (eV^-(3/2))     First Anisotropy
6.86923076923077e-05 2.70738533533181e+02 0.00000000000000e+00
2.06076923076923e-04 2.69303567146239e+02 0.00000000000000e+00
3.43461538461538e-04 2.67876206357368e+02 0.00000000000000e+00
4.80846153846154e-04 2.66456410855611e+02 0.00000000000000e+00
6.18230769230769e-04 2.65044140543521e+02 0.00000000000000e+00
7.55615384615385e-04 2.63639355536156e+02 0.00000000000000e+00
8.93000000000000e-04 2.62242016159963e+02 0.00000000000000e+00
1.03038461538462e-03 2.60852082951666e+02 0.00000000000000e+00
1.16776923076923e-03 2.59469516657149e+02 0.00000000000000e+00
1.30515384615385e-03 2.58094278230351e+02 0.00000000000000e+00
1.44253846153846e-03 2.56726328832162e+02 0.00000000000000e+00
1.57992307692308e-03 2.55365629829326e+02 0.00000000000000e+00
1.71730769230769e-03 2.54012142793352e+02 0.00000000000000e+00
1.85469230769231e-03 2.52665829499426e+02 0.00000000000000e+00
1.99207692307692e-03 2.51326651925333e+02 0.00000000000000e+00
2.12946153846154e-03 2.49994572250384e+02 0.00000000000000e+00
2.26684615384615e-03 2.48669552854345e+02 0.00000000000000e+00
2.40423076923077e-03 2.47351556316378e+02 0.00000000000000e+00
2.54161538461538e-03 2.46040545413983e+02 0.00000000000000e+00
2.67900000000000e-03 2.44736483121945e+02 0.00000000000000e+00
2.81638461538462e-03 2.43439332611291e+02 0.00000000000000e+00
2.95376923076923e-03 2.42149057248248e+02 0.00000000000000e+00
3.09115384615385e-03 2.40865620593209e+02 0.00000000000000e+00
3.22853846153846e-03 2.39588986399704e+02 0.00000000000000e+00
3.36592307692308e-03 2.38319118613377e+02 0.00000000000000e+00
3.50330769230769e-03 2.37055981370965e+02 0.00000000000000e+00
3.64069230769231e-03 2.35799538999290e+02 0.00000000000000e+00
3.77807692307692e-03 2.34549756014246e+02 0.00000000000000e+00
3.91546153846154e-03 2.33306597119802e+02 0.00000000000000e+00
4.05284615384615e-03 2.32070027207002e+02 0.00000000000000e+00
4.19023076923077e-03 2.30840011352972e+02 0.00000000000000e+00
4.32761538461538e-03 2.29616514819940e+02 0.00000000000000e+00
4.46500000000000e-03 2.28399503054247e+02 0.00000000000000e+00
4.60238461538462e-03 2.27188941685378e+02 0.00000000000000e+00
4.73976923076923e-03 2.25984796524986e+02 0.00000000000000e+00
4.87715384615385e-03 2.24787033565931e+02 0.00000000000000e+00
5.01453846153846e-03 2.23595618981316e+02 0.00000000000000e+00
5.15192307692308e-03 2.22410519123533e+02 0.00000000000000e+00
5.28930769230769e-03 2.21231700523314e+02 0.00000000000000e+00
5.42669230769231e-03 2.20059129888783e+02 0.00000000000000e+00
5.56407692307692e-03 2.18892774104519e+02 0.00000000000000e+00
5.70146153846154e-03 2.17732600230617e+02 0.00000000000000e+00
5.83884615384615e-03 2.16578575501763e+02 0.00000000000000e+00
5.97623076923077e-03 2.15430667326301e+02 0.00000000000000e+00
6.11361538461538e-03 2.14288843285322e+02 0.00000000000000e+00
6.25100000000000e-03 2.13153071131740e+02 0.00000000000000e+00
6.38838461538462e-03 2.12023318789386e+02 0.00000000000000e+00
6.52576923076923e-03 2.10899554352101e+02 0.00000000000000e+00
6.66315384615385e-03 2.09781746082834e+02 0.00000000000000e+00
6.80053846153846e-03 2.08669862412747e+02 0.00000000000000e+00
6.93792307692308e-03 2.07563871940324e+02 0.00000000000000e+00
7.07530769230769e-03 2.06463743430480e+02 0.00000000000000e+00
7.21269230769231e-03 2.05369445813686e+02 0.00000000000000e+00
7.35007692307692e-03 2.04280948185085e+02 0.00000000000000e+00
7.48746153846154e-03 2.03198219803621e+02 0.00000000000000e+00
7.62484615384615e-03 2.02121230091174e+02 0.00000000000000e+00
7.76223076923077e-03 2.01049948631692e+02 0.00000000000000e+00
7.89961538461539e-03 1.99984345170335e+02 0.00000000000000e+00
8.03700000000000e-03 1.98924389612619e+02 0.00000000000000e+00
8.17438461538462e-03 1.97870052023566e+02 0.00000000000000e+00
8.31176923076923e-03 1.96821302626860e+02 0.00000000000000e+00
8.44915384615385e-03 1.95778111804005e+02 0.00000000000000e+00
8.58653846153846e-03 1.94740450093489e+02 0.00000000000000e+00
8.72392307692308e-03 1.93708288189951e+02 0.00000000000000e+00
8.86130769230769e-03 1.92681596943355e+02 0.00000000000000e+00
8.99869230769231e-03 1.91660347358164e+02 0.00000000000000e+00
9.13607692307692e-03 1.90644510592525e+02 0.00000000000000e+00
9.27346153846154e-03 1.89634057957452e+02 0.00000000000000e+00
9.41084615384615e-03 1.88628960916015e+02 0.00000000000000e+00
9.54823076923077e-03 1.87629191082537e+02 0.00000000000000e+00
9.68561538461538e-03 1.86634720221788e+02 0.00000000000000e+00
9.82300000000000e-03 1.85645520248192e+02 0.00000000000000e+00
9.96038461538462e-03 1.84661563225033e+02 0.00000000000000e+00
1.00977692307692e-02 1.83682821363662e+02 0.00000000000000e+00
1.02351538461538e-02 1.82709267022718e+02 0.00000000000000e+00
1.03725384615385e-02 1.81740872707342e+02 0.00000000000000e+00
1.05099230769231e-02 1.80777611068405e+02 0.00000000000000e+00
1.06473076923077e-02 1.79819454901734e+02 0.00000000000000e+00
1.07846923076923e-02 1.78866377147341e+02 0.00000000000000e+00
1.09220769230769e-02 1.77918350888663e+02 0.00000000000000e+00
1.10594615384615e-02 1.76975349351800e+02 0.00000000000000e+00
1.11968461538462e-02 1.76037345904757e+02 0.00000000000000e+00
1.13342307692308e-02 1.75104314056697e+02 0.00000000000000e+00
1.14716153846154e-02 1.74176227457186e+02 0.00000000000000e+00
1.16090000000000e-02 1.73253059895454e+02 0.00000000000000e+00
1.17463846153846e-02 1.72334785299654e+02 0.00000000000000e+00
1.18837692307692e-02 1.71421377736123e+02 0.00000000000000e+00
1.20211538461538e-02 1.70512811408653e+02 0.00000000000000e+00
1.21585384615385e-02 1.69609060657760e+02 0.00000000000000e+00
1.22959230769231e-02 1.68710099959961e+02 0.00000000000000e+00
1.24333076923077e-02 1.67815903927050e+02 0.00000000000000e+00
1.25706923076923e-02 1.66926447305387e+02 0.00000000000000e+00
1.27080769230769e-02 1.66041704975178e+02 0.00000000000000e+00
1.28454615384615e-02 1.65161651949771e+02 0.00000000000000e+00
1.29828461538462e-02 1.64286263374947e+02 0.00000000000000e+00
1.31202307692308e-02 1.63415514528218e+02 0.00000000000000e+00
1.32576153846154e-02 1.62549380818133e+02 0.00000000000000e+00
1.33950000000000e-02 1.61687837783578e+02 0.00000000000000e+00
1.35323846153846e-02 1.60830861093087e+02 0.00000000000000e+00
1.36697692307692e-02 1.59978426544159e+02 0.00000000000000e+00
1.38071538461538e-02 1.59130510062567e+02 0.00000000000000e+00
1.39445384615385e-02 1.58287087701685e+02 0.00000000000000e+00
1.40819230769231e-02 1.57448135641806e+02 0.00000000000000e+00
1.42193076923077e-02 1.56613630189474e+02 0.00000000000000e+00
1.43566923076923e-02 1.55783547776812e+02 0.00000000000000e+00
1.44940769230769e-02 1.54957864960858e+02 0.00000000000000e+00
1.46314615384615e-02 1.54136558422903e+02 0.00000000000000e+00
1.47688461538462e-02 1.53319604967828e+02 0.00000000000000e+00
1.49062307692308e-02 1.52506981523457e+02 0.00000000000000e+00
1.50436153846154e-02 1.51698665139899e+02 0.00000000000000e+00
1.51810000000000e-02 1.50894632988900e+02 0.00000000000000e+00
1.53183846153846e-02 1.50094862363205e+02 0.00000000000000e+00
1.54557692307692e-02 1.49299330675906e+02 0.00000000000000e+00
1.55931538461538e-02 1.48508015459815e+02 0.00000000000000e+00
1.57305384615385e-02 1.47720894366822e+02 0.00000000000000e+00
1.58679230769231e-02 1.46937945167265e+02 0.00000000000000e+00
1.60053076923077e-02 1.46159145749306e+02 0.00000000000000e+00
1.61426923076923e-02 1.45384474118303e+02 0.00000000000000e+00
1.62800769230769e-02 1.44613908396191e+02 0.00000000000000e+00
1.64174615384615e-02 1.43847426820860e+02 0.00000000000000e+00
1.65548461538462e-02 1.43085007745546e+02 0.00000000000000e+00
1.66922307692308e-02 1.42326629638217e+02 0.00000000000000e+00
1.68296153846154e-02 1.41572271080962e+02 0.00000000000000e+00
1.69670000000000e-02 1.40821910769394e+02 0.00000000000000e+00
1.71043846153846e-02 1.40075527512038e+02 0.00000000000000e+00
1.72417692307692e-02 1.39333100229743e+02 0.00000000000000e+00
1.73791538461538e-02 1.38594607955077e+02 0.00000000000000e+00
1.75165384615385e-02 1.37860029831742e+02 0.00000000000000e+00
1.76539230769231e-02 1.37129345113982e+02 0.00000000000000e+00
1.77913076923077e-02 1.36402533165998e+02 0.00000000000000e+00
1.79286923076923e-02 1.35679573461363e+02 0.00000000000000e+00
1.80660769230769e-02 1.34960445582446e+02 0.00000000000000e+00
1.82034615384615e-02 1.34245129219832e+02 0.00000000000000e+00
1.83408461538462e-02 1.33533604171750e+02 0.00000000000000e+00
1.84782307692308e-02 1.32825850343503e+02 0.00000000000000e+00
1.86156153846154e-02 1.32121847746899e+02 0.00000000000000e+00
1.87530000000000e-02 1.31421576499688e+02 0.00000000000000e+00
1.88903846153846e-02 1.30725016824999e+02 0.00000000000000e+00
1.90277692307692e-02 1.30032149050783e+02 0.00000000000000e+00
1.91651538461538e-02 1.29342953609255e+02 0.00000000000000e+00
1.93025384615385e-02 1.28657411036346e+02 0.00000000000000e+00
1.94399230769231e-02 1.27975501971148e+02 0.00000000000000e+00
1.95773076923077e-02 1.27297207155369e+02 0.00000000000000e+00
1.97146923076923e-02 1.26622507432793e+02 0.00000000000000e+00
1.98520769230769e-02 1.25951383748731e+02 0.00000000000000e+00
1.99894615384615e-02 1.25283817149491e+02 0.00000000000000e+00
2.01268461538462e-02 1.24619788781838e+02 0.00000000000000e+00
2.02642307692308e-02 1.23959279892463e+02 0.00000000000000e+00
2.04016153846154e-02 1.23302271827454e+02 0.00000000000000e+00
2.05390000000000e-02 1.22648746031766e+02 0.00000000000000e+00
2.06763846153846e-02 1.21998684048701e+02 0.00000000000000e+00
2.08137692307692e-02 1.21352067519385e+02 0.00000000000000e+00
2.09511538461538e-02 1.20708878182250e+02 0.00000000000000e+00
2.10885384615385e-02 1.20069097872516e+02 0.00000000000000e+00
2.12259230769231e-02 1.19432708521681e+02 0.00000000000000e+00
2.13633076923077e-02 1.18799692157011e+02 0.00000000000000e+00
2.15006923076923e-02 1.18170030901028e+02 0.00000000000000e+00
2.16380769230769e-02 1.17543706971010e+02 0.00000000000000e+00
2.17754615384615e-02 1.16920702678487e+02 0.00000000000000e+00
2.19128461538462e-02 1.16301000428740e+02 0.00000000000000e+00
2.20502307692308e-02 1.15684582720307e+02 0.00000000000000e+00
2.21876153846154e-02 1.15071432144485e+02 0.00000000000000e+00
2.23250000000000e-02 1.14461531384842e+02 0.00000000000000e+00
2.24623846153846e-02 1.13854863216727e+02 0.00000000000000e+00
2.25997692307692e-02 1.13251410506782e+02 0.00000000000000e+00
2.27371538461538e-02 1.12651156212459e+02 0.00000000000000e+00
2.28745384615385e-02 1.12054083381539e+02 0.00000000000000e+00
2.30119230769231e-02 1.11460175151652e+02 0.00000000000000e+00
2.31493076923077e-02 1.10869414749805e+02 0.00000000000000e+00
2.32866923076923e-02 1.10281785491901e+02 0.00000000000000e+00
2.34240769230769e-02 1.09697270782274e+02 0.00000000000000e+00
2.35614615384615e-02 1.09115854113219e+02 0.00000000000000e+00
2.36988461538462e-02 1.08537519064524e+02 0.00000000000000e+00
2.38362307692308e-02 1.07962249303008e+02 0.00000000000000e+00
2.39736153846154e-02 1.07390028582056e+02 0.00000000000000e+00
2.41110000000000e-02 1.06820840741168e+02 0.00000000000000e+00
2.42483846153846e-02 1.06254669705495e+02 0.00000000000000e+00
2.43857692307692e-02 1.05691499485387e+02 0.00000000000000e+00
2.45231538461538e-02 1.05131314175944e+02 0.00000000000000e+00
2.46605384615385e-02 1.04574097956564e+02 0.00000000000000e+00
2.47979230769231e-02 1.04019835090499e+02 0.00000000000000e+00
2.49353076923077e-02 1.03468509924407e+02 0.00000000000000e+00
2.50726923076923e-02 1.02920106887911e+02 0.00000000000000e+00
2.52100769230769e-02 1.02374610493162e+02 0.00000000000000e+00
2.53474615384615e-02 1.01832005334399e+02 0.00000000000000e+00
2.54848461538462e-02 1.01292276087513e+02 0.00000000000000e+00
2.56222307692308e-02 1.00755407509619e+02 0.00000000000000e+00
2.57596153846154e-02 1.00221384438619e+02 0.00000000000000e+00
2.58970000000000e-02 9.96901917927780e+01 0.00000000000000e+00
2.60343846153846e-02 9.91618145702980e+01 0.00000000000000e+00
2.61717692307692e-02 9.86362378488925e+01 0.00000000000000e+00
2.63091538461538e-02 9.81134467853663e+01 0.00000000000000e+00
2.64465384615385e-02 9.75934266151960e+01 0.00000000000000e+00
2.65839230769231e-02 9.70761626521129e+01 0.00000000000000e+00
2.67213076923077e-02 9.65616402876886e+01 0.00000000000000e+00
2.68586923076923e-02 9.60498449909218e+01 0.00000000000000e+00
2.69960769230769e-02 9.55407623078287e+01 0.00000000000000e+00
2.71334615384615e-02 9.50343778610341e+01 0.00000000000000e+00
2.72708461538462e-02 9.45306773493659e+01 0.00000000000000e+00
2.74082307692308e-02 9.40296465474508e+01 0.00000000000000e+00
2.75456153846154e-02 9.35312713053127e+01 0.00000000000000e+00
2.76830000000000e-02 9.30355375479732e+01 0.00000000000000e+00
2.78203846153846e-02 9.25424312750541e+01 0.00000000000000e+00
2.79577692307692e-02 9.20519385603816e+01 0.00000000000000e+00
2.80951538461538e-02 9.15640455515936e+01 0.00000000000000e+00
2.82325384615385e-02 9.10787384697480e+01 0.00000000000000e+00
2.83699230769231e-02 9.05960036089339e+01 0.00000000000000e+00
2.85073076923077e-02 9.01158273358841e+01 0.00000000000000e+00
2.86446923076923e-02 8.96381960895907e+01 0.00000000000000e+00
2.87820769230769e-02 8.91630963809214e+01 0.00000000000000e+00
2.89194615384615e-02 8.86905147922392e+01 0.00000000000000e+00
2.90568461538462e-02 8.82204379770230e+01 0.00000000000000e+00
2.91942307692308e-02 8.77528526594908e+01 0.00000000000000e+00
2.93316153846154e-02 8.72877456342250e+01 0.00000000000000e+00
2.94690000000000e-02 8.68251037657990e+01 0.00000000000000e+00
2.96063846153846e-02 8.63649139884067e+01 0.00000000000000e+00
2.97437692307692e-02 8.59071633054932e+01 0.00000000000000e+00
2.98811538461538e-02 8.54518387893878e+01 0.00000000000000e+00
3.00185384615385e-02 8.49989275809391e+01 0.00000000000000e+00
3.01559230769231e-02 8.45484168891515e+01 0.00000000000000e+00
3.02933076923077e-02 8.41002939908242e+01 0.00000000000000e+00
3.04306923076923e-02 8.36545462301919e+01 0.00000000000000e+00
3.05680769230769e-02 8.32111610185672e+01 0.00000000000000e+00
3.07054615384615e-02 8.27701258339853e+01 0.00000000000000e+00
3.08428461538462e-02 8.23314282208500e+01 0.00000000000000e+00
3.09802307692308e-02 8.18950557895824e+01 0.00000000000000e+00
3.11176153846154e-02 8.14609962162705e+01 0.00000000000000e+00
3.12550000000000e-02 8.10292372423216e+01 0.00000000000000e+00
3.13923846153846e-02 8.05997666741158e+01 0.00000000000000e+00
3.15297692307692e-02 8.01725723826619e+01 0.00000000000000e+00
3.16671538461538e-02 7.97476423032545e+01 0.00000000000000e+00
3.18045384615385e-02 7.93249644351336e+01 0.00000000000000e+00
3.19419230769231e-02 7.89045268411454e+01 0.00000000000000e+00
3.20793076923077e-02 7.84863176474055e+01 0.00000000000000e+00
3.22166923076923e-02 7.80703250429631e+01 0.00000000000000e+00
3.23540769230769e-02 7.76565372794680e+01 0.00000000000000e+00
3.24914615384615e-02 7.72449426708384e+01 0.00000000000000e+00
3.26288461538462e-02 7.68355295929310e+01 0.00000000000000e+00
3.27662307692308e-02 7.64282864832127e+01 0.00000000000000e+00
3.29036153846154e-02 7.60232018404339e+01 0.00000000000000e+00
3.30410000000000e-02 7.56202642243042e+01 0.00000000000000e+00
3.31783846153846e-02 7.52194622551685e+01 0.00000000000000e+00
3.33157692307692e-02 7.48207846136865e+01 0.00000000000000e+00
3.34531538461538e-02 7.44242200405121e+01 0.00000000000000e+00
3.35905384615385e-02 7.40297573359764e+01 0.00000000000000e+00
3.37279230769231e-02 7.36373853597706e+01 0.00000000000000e+00
3.38653076923077e-02 7.32470930306318e+01 0.00000000000000e+00
3.40026923076923e-02 7.28588693260299e+01 0.00000000000000e+00
3.41400769230769e-02 7.24727032818562e+01 0.00000000000000e+00
3.42774615384615e-02 7.20885839921142e+01 0.00000000000000e+00
3.44148461538462e-02 7.17065006086109e+01 0.00000000000000e+00
3.45522307692308e-02 7.13264423406510e+01 0.00000000000000e+00
3.46896153846154e-02 7.09483984547321e+01 0.00000000000000e+00
3.48270000000000e-02 7.05723582742413e+01 0.00000000000000e+00
3.49643846153846e-02 7.01983111791537e+01 0.00000000000000e+00
3.51017692307692e-02 6.98262466057327e+01 0.00000000000000e+00
3.52391538461538e-02 6.94561540462316e+01 0.00000000000000e+00
3.53765384615385e-02 6.90880230485966e+01 0.00000000000000e+00
3.55139230769231e-02 6.87218432161720e+01 0.00000000000000e+00
3.56513076923077e-02 6.83576042074061e+01 0.00000000000000e+00
3.57886923076923e-02 6.79952957355598e+01 0.00000000000000e+00
3.59260769230769e-02 6.76349075684154e+01 0.00000000000000e+00
3.60634615384615e-02 6.72764295279881e+01 0.00000000000000e+00
3.62008461538462e-02 6.69198514902383e+01 0.00000000000000e+00
3.63382307692308e-02 6.65651633847856e+01 0.00000000000000e+00
3.64756153846154e-02 6.62123551946249e+01 0.00000000000000e+00
3.66130000000000e-02 6.58614169558428e+01 0.00000000000000e+00
3.67503846153846e-02 6.55123387573369e+01 0.00000000000000e+00
3.68877692307692e-02 6.51651107405353e+01 0.00000000000000e+00
3.70251538461538e-02 6.48197230991185e+01 0.00000000000000e+00
3.71625384615385e-02 6.44761660787425e+01 0.00000000000000e+00
3.72999230769231e-02 6.41344299767629e+01 0.00000000000000e+00
3.74373076923077e-02 6.37945051419617e+01 0.00000000000000e+00
3.75746923076923e-02 6.34563819742736e+01 0.00000000000000e+00
3.77120769230769e-02 6.31200509245159e+01 0.00000000000000e+00
3.78494615384615e-02 6.27855024941184e+01 0.00000000000000e+00
3.79868461538462e-02 6.24527272348550e+01 0.00000000000000e+00
3.81242307692308e-02 6.21217157485770e+01 0.00000000000000e+00
3.82616153846154e-02 6.17924586869479e+01 0.00000000000000e+00
3.83990000000000e-02 6.14649467511789e+01 0.00000000000000e+00
3.85363846153846e-02 6.11391706917669e+01 0.00000000000000e+00
3.86737692307692e-02 6.08151213082326e+01 0.00000000000000e+00
3.88111538461538e-02 6.04927894488614e+01 0.00000000000000e+00
3.89485384615385e-02 6.01721660104442e+01 0.00000000000000e+00
3.90859230769231e-02 5.98532419380208e+01 0.00000000000000e+00
3.92233076923077e-02 5.95360082246241e+01 0.00000000000000e+00
3.93606923076923e-02 5.92204559110256e+01 0.00000000000000e+00
3.94980769230769e-02 5.89065760854825e+01 0.00000000000000e+00
3.96354615384615e-02 5.85943598834857e+01 0.00000000000000e+00
3.97728461538462e-02 5.82837984875101e+01 0.00000000000000e+00
3.99102307692308e-02 5.79748831267648e+01 0.00000000000000e+00
4.00476153846154e-02 5.76676050769461e+01 0.00000000000000e+00
4.01850000000000e-02 5.73619556599906e+01 0.00000000000000e+00
4.03223846153846e-02 5.70579262438304e+01 0.00000000000000e+00
4.04597692307692e-02 5.67555082421490e+01 0.00000000000000e+00
4.05971538461538e-02 5.64546931141395e+01 0.00000000000000e+00
4.07345384615385e-02 5.61554723642624e+01 0.00000000000000e+00
4.08719230769231e-02 5.58578375420065e+01 0.00000000000000e+00
4.10093076923077e-02 5.55617802416500e+01 0.00000000000000e+00
4.11466923076923e-02 5.52672921020227e+01 0.00000000000000e+00
4.12840769230769e-02 5.49743648062705e+01 0.00000000000000e+00
4.14214615384615e-02 5.46829900816203e+01 0.00000000000000e+00
4.15588461538462e-02 5.43931596991459e+01 0.00000000000000e+00
4.16962307692308e-02 5.41048654735364e+01 0.00000000000000e+00
4.18336153846154e-02 5.38180992628645e+01 0.00000000000000e+00
4.19710000000000e-02 5.35328529683565e+01 0.00000000000000e+00
4.21083846153846e-02 5.32491185341640e+01 0.00000000000000e+00
4.22457692307692e-02 5.29668879471360e+01 0.00000000000000e+00
4.23831538461538e-02 5.26861532365929e+01 0.00000000000000e+00
4.25205384615385e-02 5.24069064741011e+01 0.00000000000000e+00
4.26579230769231e-02 5.21291397732492e+01 0.00000000000000e+00
4.27953076923077e-02 5.18528452894255e+01 0.00000000000000e+00
4.29326923076923e-02 5.15780152195960e+01 0.00000000000000e+00
4.30700769230769e-02 5.13046418020844e+01 0.00000000000000e+00
4.32074615384615e-02 5.10327173163528e+01 0.00000000000000e+00
4.33448461538462e-02 5.07622340827837e+01 0.00000000000000e+00
