Energy (eV)          EEDF (eV^-(3/2))     First Anisotropy
1.91129032258065e-02 6.25485748551326e-02 2.97975451137705e-05
5.73387096774194e-02 6.22012881783859e-02 4.92331308167254e-05
9.55645161290322e-02 6.18559297325477e-02 6.50699561597554e-05
1.33790322580645e-01 6.15124888114931e-02 7.71480825959035e-05
1.72016129032258e-01 6.11709547663532e-02 8.72601787887381e-05
2.10241935483871e-01 6.08313170119327e-02 9.60827261071251e-05
2.48467741935484e-01 6.04935650176937e-02 1.03965166064628e-04
2.86693548387097e-01 6.01576883149328e-02 1.11118140613907e-04
3.24919354838710e-01 5.98236764902066e-02 1.17681105413562e-04
3.63145161290323e-01 5.94915191903719e-02 1.23752452241727e-04
4.01370967741935e-01 5.91612061175746e-02 1.29404888621627e-04
4.39596774193548e-01 5.88327270330939e-02 1.34694073007946e-04
4.77822580645161e-01 5.85060717540119e-02 1.39663817839637e-04
5.16048387096774e-01 5.81812301533909e-02 1.44349399533119e-04
5.54274193548387e-01 5.78581921618365e-02 1.48779759202632e-04
5.92500000000000e-01 5.75369477646323e-02 1.52979018403310e-04
6.30725806451613e-01 5.72174870038157e-02 1.56967554971264e-04
6.68951612903226e-01 5.68997999756326e-02 1.60762786251314e-04
7.07177419354839e-01 5.65838768323342e-02 1.64379751816022e-04
7.45403225806452e-01 5.62697077798877e-02 1.67831555362254e-04
7.83629032258064e-01 5.59572830795488e-02 1.71129705343395e-04
8.21854838709677e-01 5.56465930461674e-02 1.74284381790617e-04
8.60080645161290e-01 5.53376280480305e-02 1.77304647351570e-04
8.98306451612903e-01 5.50303785076323e-02 1.80198617083763e-04
9.36532258064516e-01 5.47248348999458e-02 1.82973595917488e-04
9.74758064516129e-01 5.44209877534986e-02 1.85636191235414e-04
1.01298387096774e+00 5.41188276487636e-02 1.88192405711358e-04
1.05120967741935e+00 5.38183452202570e-02 1.90647715411651e-04
1.08943548387097e+00 5.35195311507981e-02 1.93007134211299e-04
1.12766129032258e+00 5.32223761772423e-02 1.95275267754789e-04
1.16588709677419e+00 5.29268710904867e-02 1.97456362346989e-04
1.20411290322581e+00 5.26330067273451e-02 1.99554343659002e-04
1.24233870967742e+00 5.23407739780984e-02 2.01572849759913e-04
1.28056451612903e+00 5.20501637859576e-02 2.03515263272870e-04
1.31879032258064e+00 5.17611671397375e-02 2.05384735909848e-04
1.35701612903226e+00 5.14737750806194e-02 2.07184209732404e-04
1.39524193548387e+00 5.11879787016397e-02 2.08916439190539e-04
1.43346774193548e+00 5.09037691410587e-02 2.10584007275576e-04
1.47169354838710e+00 5.06211375884576e-02 2.12189339667425e-04
1.50991935483871e+00 5.03400752842494e-02 2.13734720502470e-04
1.54814516129032e+00 5.00605735136357e-02 2.15222302968093e-04
1.58637096774194e+00 4.97826236139043e-02 2.16654120324542e-04
1.62459677419355e+00 4.95062169668881e-02 2.18032095916834e-04
1.66282258064516e+00 4.92313450040488e-02 2.19358050401881e-04
1.70104838709677e+00 4.89579992060529e-02 2.20633711498500e-04
1.73927419354839e+00 4.86861710976029e-02 2.21860719982535e-04
1.77750000000000e+00 4.84158522520885e-02 2.23040635025863e-04
1.81572580645161e+00 4.81470342911954e-02 2.24174941829502e-04
1.85395161290323e+00 4.78797088801123e-02 2.25265055877346e-04
1.89217741935484e+00 4.76138677318097e-02 2.26312326733711e-04
1.93040322580645e+00 4.73495026066683e-02 2.27318044183123e-04
1.96862903225806e+00 4.70866053080217e-02 2.28283441270035e-04
2.00685483870968e+00 4.68251676861126e-02 2.29209697018707e-04
2.04508064516129e+00 4.65651816377284e-02 2.30097941491118e-04
2.08330645161290e+00 4.63066391020498e-02 2.30949257692026e-04
2.12153225806452e+00 4.60495320655325e-02 2.31764684605357e-04
2.15975806451613e+00 4.57938525566829e-02 2.32545220093165e-04
2.19798387096774e+00 4.55395926494922e-02 2.33291822178167e-04
2.23620967741935e+00 4.52867444630972e-02 2.34005412853371e-04
2.27443548387097e+00 4.50353001581076e-02 2.34686879327617e-04
2.31266129032258e+00 4.47852519398022e-02 2.35337075135770e-04
2.35088709677419e+00 4.45365920578072e-02 2.35956823439327e-04
2.38911290322581e+00 4.42893128026414e-02 2.36546917898382e-04
2.42733870967742e+00 4.40434065086966e-02 2.37108123439510e-04
2.46556451612903e+00 4.37988655539327e-02 2.37641179158653e-04
2.50379032258064e+00 4.35556823566182e-02 2.38146798911801e-04
2.54201612903226e+00 4.33138493781228e-02 2.38625671827043e-04
2.58024193548387e+00 4.30733591226177e-02 2.39078464891010e-04
2.61846774193548e+00 4.28342041340004e-02 2.39505823324911e-04
2.65669354838710e+00 4.25963769985150e-02 2.39908370903782e-04
2.69491935483871e+00 4.23598703444576e-02 2.40286712286696e-04
2.73314516129032e+00 4.21246768392698e-02 2.40641433013323e-04
2.77137096774194e+00 4.18907891928467e-02 2.40973100539190e-04
2.80959677419355e+00 4.16582001538620e-02 2.41282265276727e-04
2.84782258064516e+00 4.14269025121014e-02 2.41569460466114e-04
2.88604838709677e+00 4.11968890981852e-02 2.41835204161421e-04
2.92427419354839e+00 4.09681527809337e-02 2.42079999259275e-04
2.96250000000000e+00 4.07406864695650e-02 2.42304333498923e-04
3.00072580645161e+00 4.05144831134274e-02 2.42508681293607e-04
3.03895161290323e+00 4.02895356994946e-02 2.42693503678124e-04
3.07717741935484e+00 4.00658372544393e-02 2.42859248233288e-04
3.11540322580645e+00 3.98433808443737e-02 2.43006350786053e-04
3.15362903225806e+00 3.96221595724645e-02 2.43135235293067e-04
3.19185483870968e+00 3.94021665808948e-02 2.43246313707419e-04
3.23008064516129e+00 3.91833950506078e-02 2.43339987565894e-04
3.26830645161290e+00 3.89658381990368e-02 2.43416647639950e-04
3.30653225806452e+00 3.87494892826157e-02 2.43476674488412e-04
3.34475806451613e+00 3.85343415939072e-02 2.43520439034039e-04
3.38298387096774e+00 3.83203884633740e-02 2.43548302175228e-04
3.42120967741935e+00 3.81076232591331e-02 2.43560616206742e-04
3.45943548387097e+00 3.78960393848735e-02 2.43557724599282e-04
3.49766129032258e+00 3.76856302815346e-02 2.43539961772086e-04
3.53588709677419e+00 3.74763894270682e-02 2.43507654435123e-04
3.57411290322581e+00 3.72683103344472e-02 2.43461121344564e-04
3.61233870967742e+00 3.70613865532577e-02 2.43400673051634e-04
3.65056451612903e+00 3.68556116694683e-02 2.43326613175167e-04
3.68879032258064e+00 3.66509793035236e-02 2.43239238138087e-04
3.72701612903226e+00 3.64474831118581e-02 2.43138836899052e-04
3.76524193548387e+00 3.62451167866686e-02 2.43025692162566e-04
3.80346774193548e+00 3.60438740540899e-02 2.42900080100397e-04
3.84169354838710e+00 3.58437486756348e-02 2.42762270071042e-04
3.87991935483871e+00 3.56447344479701e-02 2.42612525773322e-04
3.91814516129032e+00 3.54468252011691e-02 2.42451104805072e-04
3.95637096774194e+00 3.52500148005790e-02 2.42278258981038e-04
3.99459677419355e+00 3.50542971446108e-02 2.42094234676374e-04
4.03282258064516e+00 3.48596661660528e-02 2.41899272376776e-04
4.07104838709677e+00 3.46661158318569e-02 2.41693607742138e-04
4.10927419354839e+00 3.44736401415169e-02 2.41477471310029e-04
4.14750000000000e+00 3.42822331283212e-02 2.41251088198957e-04
4.18572580645161e+00 3.40918888591435e-02 2.41014679128209e-04
4.22395161290323e+00 3.39026014328855e-02 2.40768460117929e-04
4.26217741935484e+00 3.37143649816711e-02 2.40512642188944e-04
4.30040322580645e+00 3.35271736706415e-02 2.40247432342317e-04
4.33862903225806e+00 3.33410216964586e-02 2.39973033257128e-04
4.37685483870968e+00 3.31559032884447e-02 2.39689642989179e-04
4.41508064516129e+00 3.29718127083819e-02 2.39397455913078e-04
4.45330645161290e+00 3.27887442490716e-02 2.39096662287493e-04
4.49153225806452e+00 3.26066922358295e-02 2.38787448480876e-04
4.52975806451613e+00 3.24256510246666e-02 2.38469997220516e-04
4.56798387096774e+00 3.22456150033381e-02 2.38144487157150e-04
4.60620967741935e+00 3.20665785911485e-02 2.37811093745059e-04
4.64443548387097e+00 3.18885362376082e-02 2.37469988943051e-04
4.68266129032258e+00 3.17114824234361e-02 2.37121340917545e-04
4.72088709677419e+00 3.15354116603692e-02 2.36765314891822e-04
4.75911290322581e+00 3.13603184898681e-02 2.36402072849340e-04
4.79733870967742e+00 3.11861974840754e-02 2.36031773238603e-04
4.83556451612903e+00 3.10130432456301e-02 2.35654571793480e-04
4.87379032258064e+00 3.08408504064192e-02 2.35270621239171e-04
4.91201612903226e+00 3.06696136284950e-02 2.34880070999929e-04
4.95024193548387e+00 3.04993276038931e-02 2.34483067992137e-04
4.98846774193548e+00 3.03299870534283e-02 2.34079756333056e-04
5.02669354838710e+00 3.01615867275736e-02 2.33670277052153e-04
5.06491935483871e+00 2.99941214062807e-02 2.33254768858462e-04
5.10314516129032e+00 2.98275858978187e-02 2.32833367740698e-04
5.14137096774193e+00 2.96619750399381e-02 2.32406207130496e-04
5.17959677419355e+00 2.94972836984062e-02 2.31973418085743e-04
5.21782258064516e+00 2.93335067678208e-02 2.31535128893407e-04
5.25604838709677e+00 2.91706391714356e-02 2.31091465793043e-04
5.29427419354839e+00 2.90086758600710e-02 2.30642552697731e-04
5.33250000000000e+00 2.88476118128925e-02 2.30188510917511e-04
5.37072580645161e+00 2.86874420372418e-02 2.29729459860752e-04
5.40895161290323e+00 2.85281615675824e-02 2.29265516759471e-04
5.44717741935484e+00 2.83697654662475e-02 2.28796796396947e-04
5.48540322580645e+00 2.82122488232737e-02 2.28323411787997e-04
5.52362903225806e+00 2.80556067553819e-02 2.27845473908649e-04
5.56185483870968e+00 2.78998344066955e-02 2.27363091428343e-04
5.60008064516129e+00 2.77449269485764e-02 2.26876371370085e-04
5.63830645161290e+00 2.75908795786401e-02 2.26385418746055e-04
5.67653225806452e+00 2.74376875217144e-02 2.25890336688686e-04
5.71475806451613e+00 2.72853460286000e-02 2.25391226599180e-04
5.75298387096774e+00 2.71338503767373e-02 2.24888187786651e-04
5.79120967741935e+00 2.69831958700476e-02 2.24381318093664e-04
5.82943548387097e+00 2.68333778380047e-02 2.23870713639471e-04
5.86766129032258e+00 2.66843916362758e-02 2.23356468566151e-04
5.90588709677419e+00 2.65362326465653e-02 2.22838675646398e-04
5.94411290322581e+00 2.63888962757172e-02 2.22317426031761e-04
5.98233870967742e+00 2.62423779563293e-02 2.21792809003154e-04
6.02056451612903e+00 2.60966731466015e-02 2.21264912561702e-04
6.05879032258064e+00 2.59517773294653e-02 2.20733823181747e-04
6.09701612903226e+00 2.58076860131755e-02 2.20199625566062e-04
6.13524193548387e+00 2.56643947311603e-02 2.19662403220428e-04
6.17346774193548e+00 2.55218990411783e-02 2.19122238211072e-04
6.21169354838710e+00 2.53801945258880e-02 2.18579210924882e-04
6.24991935483871e+00 2.52392767926999e-02 2.18033400628296e-04
6.28814516129032e+00 2.50991414729602e-02 2.17484885144436e-04
6.32637096774194e+00 2.49597842227180e-02 2.16933740957779e-04
6.36459677419355e+00 2.48212007217006e-02 2.16380043333621e-04
6.40282258064516e+00 2.46833866738434e-02 2.15823865998919e-04
6.44104838709677e+00 2.45463378071473e-02 2.15265281673993e-04
6.47927419354839e+00 2.44100498729063e-02 2.14704361843616e-04
6.51750000000000e+00 2.42745186462180e-02 2.14141176530648e-04
6.55572580645161e+00 2.41397399258431e-02 2.13575794813676e-04
6.59395161290323e+00 2.40057095334571e-02 2.13008284602829e-04
6.63217741935484e+00 2.38724233141408e-02 2.12438712417845e-04
6.67040322580645e+00 2.37398771362431e-02 2.11867143892188e-04
6.70862903225806e+00 2.36080668906546e-02 2.11293643553324e-04
6.74685483870968e+00 2.34769884912802e-02 2.10718274605352e-04
6.78508064516129e+00 2.33466378749045e-02 2.10141099420119e-04
6.82330645161290e+00 2.32170110004863e-02 2.09562179246463e-04
6.86153225806452e+00 2.30881038498022e-02 2.08981574298968e-04
6.89975806451613e+00 2.29599124265633e-02 2.08399343859696e-04
6.93798387096774e+00 2.28324327568574e-02 2.07815545990959e-04
6.97620967741935e+00 2.27056608890182e-02 2.07230238003605e-04
7.01443548387097e+00 2.25795928929561e-02 2.06643476249909e-04
7.05266129032258e+00 2.24542248605848e-02 2.06055315918893e-04
7.09088709677419e+00 2.23295529056926e-02 2.05465811492778e-04
7.12911290322581e+00 2.22055731632927e-02 2.04875016544301e-04
7.16733870967742e+00 2.20822817900343e-02 2.04282983536126e-04
7.20556451612903e+00 2.19596749640759e-02 2.03689764265831e-04
7.24379032258064e+00 2.18377488844553e-02 2.03095409667472e-04
7.28201612903226e+00 2.17164997714846e-02 2.02499969615190e-04
7.32024193548387e+00 2.15959238666269e-02 2.01903493357115e-04
7.35846774193548e+00 2.14760174318832e-02 2.01306029320895e-04
7.39669354838710e+00 2.13567767501747e-02 2.00707624921561e-04
7.43491935483871e+00 2.12381981252201e-02 2.00108326984709e-04
7.47314516129032e+00 2.11202778809409e-02 1.99508181490493e-04
7.51137096774193e+00 2.10030123619854e-02 1.98907233647778e-04
7.54959677419355e+00 2.08863979329851e-02 1.98305527979345e-04
7.58782258064516e+00 2.07704309789126e-02 1.97703108069069e-04
7.62604838709677e+00 2.06551079049631e-02 1.97100016966361e-04
7.66427419354839e+00 2.05404251359884e-02 1.96496297003163e-04
7.70250000000000e+00 2.04263791168421e-02 1.95891989612981e-04
7.74072580645161e+00 2.03129663122635e-02 1.95287135725602e-04
7.77895161290323e+00 2.02001832063270e-02 1.94681775587952e-04
7.81717741935484e+00 2.00880263027756e-02 1.94075948586879e-04
7.85540322580645e+00 1.99764921249061e-02 1.93469693634347e-04
7.89362903225806e+00 1.98655772150348e-02 1.92863048992029e-04
7.93185483870968e+00 1.97552781348181e-02 1.92256052097911e-04
7.97008064516129e+00 1.96455914651411e-02 1.91648739942215e-04
8.00830645161290e+00 1.95365138055965e-02 1.91041148837084e-04
8.04653225806452e+00 1.94280417749296e-02 1.90433314481178e-04
8.08475806451613e+00 1.93201720103901e-02 1.89825272033978e-04
8.12298387096774e+00 1.92129011680337e-02 1.89217055888358e-04
8.16120967741935e+00 1.91062259226129e-02 1.88608700030381e-04
8.19943548387097e+00 1.90001429670813e-02 1.88000237874133e-04
8.23766129032258e+00 1.88946490128854e-02 1.87391702098591e-04
8.27588709677419e+00 1.87897407898569e-02 1.86783124998940e-04
8.31411290322581e+00 1.86854150457309e-02 1.86174538324966e-04
8.35233870967742e+00 1.85816685464270e-02 1.85565973121228e-04
8.39056451612903e+00 1.84784980759440e-02 1.84957460070151e-04
8.42879032258064e+00 1.83759004358908e-02 1.84349029333877e-04
8.46701612903226e+00 1.82738724457579e-02 1.83740710397800e-04
8.50524193548387e+00 1.81724109428140e-02 1.83132532405652e-04
8.54346774193548e+00 1.80715127816493e-02 1.82524524004590e-04
8.58169354838710e+00 1.79711748344379e-02 1.81916713192091e-04
8.61991935483871e+00 1.78713939908360e-02 1.81309127643289e-04
8.65814516129032e+00 1.77721671575374e-02 1.80701794508048e-04
8.69637096774193e+00 1.76734912586401e-02 1.80094740466150e-04
8.73459677419355e+00 1.75753632350936e-02 1.79487991790915e-04
8.77282258064516e+00 1.74777800449459e-02 1.78881574148789e-04
8.81104838709677e+00 1.73807386632442e-02 1.78275512913053e-04
8.84927419354839e+00 1.72842360816111e-02 1.77669833017975e-04
8.88750000000000e+00 1.71882693084830e-02 1.77064558814666e-04
8.92572580645161e+00 1.70928353690127e-02 1.76459714377607e-04
8.96395161290322e+00 1.69979313046564e-02 1.75855323361896e-04
9.00217741935484e+00 1.69035541734041e-02 1.75251408862106e-04
9.04040322580645e+00 1.68097010496842e-02 1.74647993711803e-04
9.07862903225806e+00 1.67163690239611e-02 1.74045100343780e-04
9.11685483870968e+00 1.66235552029576e-02 1.73442750651910e-04
9.15508064516129e+00 1.65312567095616e-02 1.72840966283865e-04
9.19330645161290e+00 1.64394706824337e-02 1.72239768458283e-04
9.23153225806452e+00 1.63481942763209e-02 1.71639178013562e-04
9.26975806451613e+00 1.62574246615704e-02 1.71039215464045e-04
9.30798387096774e+00 1.61671590243394e-02 1.70439900819456e-04
9.34620967741935e+00 1.60773945665042e-02 1.69841253865748e-04
9.38443548387097e+00 1.59881285052848e-02 1.69243294033411e-04
9.42266129032258e+00 1.58993580734485e-02 1.68646040267386e-04
9.46088709677419e+00 1.58110805192198e-02 1.68049511301582e-04
9.49911290322581e+00 1.57232931059153e-02 1.67453725530009e-04
9.53733870967742e+00 1.56359931121400e-02 1.66858700879329e-04
9.57556451612903e+00 1.55491778316992e-02 1.66264455077257e-04
9.61379032258064e+00 1.54628445732424e-02 1.65671005526396e-04
9.65201612903226e+00 1.53769906604530e-02 1.65078369179451e-04
9.69024193548387e+00 1.52916134319622e-02 1.64486562801646e-04
9.72846774193548e+00 1.52067102410013e-02 1.63895602847139e-04
9.76669354838710e+00 1.51222784555856e-02 1.63305505336899e-04
9.80491935483871e+00 1.50383154584296e-02 1.62716286115284e-04
9.84314516129032e+00 1.49548186466079e-02 1.62127960688587e-04
9.88137096774194e+00 1.48717854318170e-02 1.61540544267310e-04
9.91959677419355e+00 1.47892132399567e-02 1.60954051814874e-04
9.95782258064516e+00 1.47070995113028e-02 1.60368497888125e-04
9.99604838709677e+00 1.46254417004250e-02 1.59783896923058e-04
1.00342741935484e+01 1.45442372757817e-02 1.59200262960991e-04
1.00725000000000e+01 1.44634837202114e-02 1.58617609730081e-04
1.01107258064516e+01 1.43831785303654e-02 1.58035950849443e-04
1.01489516129032e+01 1.43033192167943e-02 1.57455299592760e-04
1.01871774193548e+01 1.42239033038710e-02 1.56875668972657e-04
1.02254032258065e+01 1.41449283297138e-02 1.56297071744578e-04
1.02636290322581e+01 1.40663918461100e-02 1.55719520410429e-04
1.03018548387097e+01 1.39882914184400e-02 1.55143027222221e-04
1.03400806451613e+01 1.39106246256020e-02 1.54567604185652e-04
1.03783064516129e+01 1.38333890599368e-02 1.53993263427330e-04
1.04165322580645e+01 1.37565823264194e-02 1.53420016102518e-04
1.04547580645161e+01 1.36802020447972e-02 1.52847873131456e-04
1.04929838709677e+01 1.36042458472926e-02 1.52276845942329e-04
1.05312096774194e+01 1.35287113792744e-02 1.51706945361586e-04
1.05694354838710e+01 1.34535962991850e-02 1.51138181989899e-04
1.06076612903226e+01 1.33788982784681e-02 1.50570566205407e-04
1.06458870967742e+01 1.33046150014958e-02 1.50004108166899e-04
1.06841129032258e+01 1.32307441654974e-02 1.49438817817094e-04
1.07223387096774e+01 1.31572834804875e-02 1.48874704885494e-04
1.07605645161290e+01 1.30842306691956e-02 1.48311778891450e-04
1.07987903225806e+01 1.30115834669953e-02 1.47750049147409e-04
1.08370161290323e+01 1.29393396218341e-02 1.47189524761740e-04
1.08752419354839e+01 1.28674968941632e-02 1.46630214641701e-04
1.09134677419355e+01 1.27960530568687e-02 1.46072127496289e-04
1.09516935483871e+01 1.27250058952022e-02 1.45515272164757e-04
1.09899193548387e+01 1.26543532060723e-02 1.44959656638069e-04
1.10281451612903e+01 1.25840927999055e-02 1.44405288717988e-04
1.10663709677419e+01 1.25142224986393e-02 1.43852176682210e-04
1.11045967741935e+01 1.24447401363047e-02 1.43300328290221e-04
1.11428225806452e+01 1.23756435589586e-02 1.42749751119665e-04
1.11810483870968e+01 1.23069306246172e-02 1.42200452568969e-04
1.12192741935484e+01 1.22385992031897e-02 1.41652439859884e-04
1.12575000000000e+01 1.21706471764121e-02 1.41105720040084e-04
1.12957258064516e+01 1.21030724377814e-02 1.40560299985614e-04
1.13339516129032e+01 1.20358728924905e-02 1.40016186403237e-04
1.13721774193548e+01 1.19690464573635e-02 1.39473385832949e-04
1.14104032258065e+01 1.19025910607907e-02 1.38931904650415e-04
1.14486290322581e+01 1.18365046426646e-02 1.38391749069278e-04
1.14868548387097e+01 1.17707851543162e-02 1.37852925143492e-04
1.15250806451613e+01 1.17054305584508e-02 1.37315438769594e-04
1.15633064516129e+01 1.16404388290858e-02 1.36779295978882e-04
1.16015322580645e+01 1.15758079509330e-02 1.36244502066094e-04
1.16397580645161e+01 1.15115359210070e-02 1.35711062175785e-04
1.16779838709677e+01 1.14476207468845e-02 1.35178981894133e-04
1.17162096774194e+01 1.13840604472044e-02 1.34648266363835e-04
1.17544354838710e+01 1.13208530516068e-02 1.34118920583241e-04
1.17926612903226e+01 1.12579966006718e-02 1.33590949408417e-04
1.18308870967742e+01 1.11954891458587e-02 1.33064357555203e-04
1.18691129032258e+01 1.11333287494457e-02 1.32539149601317e-04
1.19073387096774e+01 1.10715134844694e-02 1.32015329988189e-04
1.19455645161290e+01 1.10100414346659e-02 1.31492903022886e-04
1.19837903225806e+01 1.09489106944107e-02 1.30971872880242e-04
1.20220161290323e+01 1.08881193686599e-02 1.30452243604679e-04
1.20602419354839e+01 1.08276655728914e-02 1.29934019112076e-04
