Energy (eV)          EEDF (eV^-(3/2))     First Anisotropy
1.35500000000000e-03 9.82739328147787e+00 6.34571499247616e-03
4.06500000000000e-03 9.71486635228182e+00 1.04537308795662e-02
6.77500000000000e-03 9.60362789392742e+00 1.37344385323171e-02
9.48500000000000e-03 9.49366315300191e+00 1.61872124414245e-02
1.21950000000000e-02 9.38495754501763e+00 1.82003425532310e-02
1.49050000000000e-02 9.27749665248317e+00 1.99216503801957e-02
1.76150000000000e-02 9.17126622299192e+00 2.14281354524345e-02
2.03250000000000e-02 9.06625216733195e+00 2.27665923279908e-02
2.30350000000000e-02 8.96244055761746e+00 2.39682506896982e-02
2.57450000000000e-02 8.85981762544157e+00 2.50553195909093e-02
2.84550000000000e-02 8.75836976005022e+00 2.60443396473215e-02
3.11650000000000e-02 8.65808350653701e+00 2.69480712538308e-02
3.38750000000000e-02 8.55894556405871e+00 2.77766358260494e-02
3.65850000000000e-02 8.46094278407116e+00 2.85382442576108e-02
3.92950000000000e-02 8.36406216858544e+00 2.92396826343776e-02
4.20050000000000e-02 8.26829086844391e+00 2.98866478842941e-02
4.47150000000000e-02 8.17361618161606e+00 3.04839867615002e-02
4.74250000000000e-02 8.08002555151390e+00 3.10358703764531e-02
5.01350000000000e-02 7.98750656532651e+00 3.15459244684918e-02
5.28450000000000e-02 7.89604695237383e+00 3.20173285086351e-02
5.55550000000000e-02 7.80563458247917e+00 3.24528923593634e-02
5.82650000000000e-02 7.71625746436038e+00 3.28551164572851e-02
6.09750000000000e-02 7.62790374403952e+00 3.32262396879289e-02
6.36850000000000e-02 7.54056170327064e+00 3.35682779238911e-02
6.63950000000000e-02 7.45421975798560e+00 3.38830553812334e-02
6.91050000000000e-02 7.36886645675772e+00 3.41722303818336e-02
7.18150000000000e-02 7.28449047928295e+00 3.44373167083442e-02
7.45250000000000e-02 7.20108063487853e+00 3.46797014502739e-02
7.72350000000000e-02 7.11862586099871e+00 3.49006600296738e-02
7.99450000000000e-02 7.03711522176761e+00 3.51013689397796e-02
8.26550000000000e-02 6.95653790652874e+00 3.52829166139556e-02
8.53650000000000e-02 6.87688322841125e+00 3.54463127545639e-02
8.80750000000000e-02 6.79814062291254e+00 3.55924963843514e-02
9.07850000000000e-02 6.72029964649706e+00 3.57223428312362e-02
9.34950000000000e-02 6.64334997521123e+00 3.58366698171157e-02
9.62050000000000e-02 6.56728140331418e+00 3.59362427897237e-02
9.89150000000000e-02 6.49208384192418e+00 3.60217796115450e-02
1.01625000000000e-01 6.41774731768057e+00 3.60939546998754e-02
1.04335000000000e-01 6.34426197142096e+00 3.61534026961087e-02
1.07045000000000e-01 6.27161805687370e+00 3.62007217294183e-02
1.09755000000000e-01 6.19980593936517e+00 3.62364763294953e-02
1.12465000000000e-01 6.12881609454197e+00 3.62612000344154e-02
1.15175000000000e-01 6.05863910710775e+00 3.62753977326547e-02
1.17885000000000e-01 5.98926566957442e+00 3.62795477724306e-02
1.20595000000000e-01 5.92068658102773e+00 3.62741038667195e-02
1.23305000000000e-01 5.85289274590698e+00 3.62594968182457e-02
1.26015000000000e-01 5.78587517279867e+00 3.62361360853565e-02
1.28725000000000e-01 5.71962497324397e+00 3.62044112068563e-02
1.31435000000000e-01 5.65413336055987e+00 3.61646931014501e-02
1.34145000000000e-01 5.58939164867382e+00 3.61173352554218e-02
1.36855000000000e-01 5.52539125097168e+00 3.60626748104157e-02
1.39565000000000e-01 5.46212367915892e+00 3.60010335617224e-02
1.42275000000000e-01 5.39958054213481e+00 3.59327188761836e-02
1.44985000000000e-01 5.33775354487951e+00 3.58580245377382e-02
1.47695000000000e-01 5.27663448735393e+00 3.57772315276952e-02
1.50405000000000e-01 5.21621526341216e+00 3.56906087459841e-02
1.53115000000000e-01 5.15648785972637e+00 3.55984136789383e-02
1.55825000000000e-01 5.09744435472398e+00 3.55008930185513e-02
1.58535000000000e-01 5.03907691753710e+00 3.53982832375911e-02
1.61245000000000e-01 4.98137780696384e+00 3.52908111244947e-02
1.63955000000000e-01 4.92433937044169e+00 3.51786942815657e-02
1.66665000000000e-01 4.86795404303252e+00 3.50621415896055e-02
1.69375000000000e-01 4.81221434641924e+00 3.49413536418064e-02
1.72085000000000e-01 4.75711288791402e+00 3.48165231494606e-02
1.74795000000000e-01 4.70264235947776e+00 3.46878353217670e-02
1.77505000000000e-01 4.64879553675082e+00 3.45554682218069e-02
1.80215000000000e-01 4.59556527809492e+00 3.44195931005673e-02
1.82925000000000e-01 4.54294452364590e+00 3.42803747107037e-02
1.85635000000000e-01 4.49092629437740e+00 3.41379716015882e-02
1.88345000000000e-01 4.43950369117525e+00 3.39925363970399e-02
1.91055000000000e-01 4.38866989392241e+00 3.38442160570143e-02
1.93765000000000e-01 4.33841816059448e+00 3.36931521244205e-02
1.96475000000000e-01 4.28874182636548e+00 3.35394809581177e-02
1.99185000000000e-01 4.23963430272390e+00 3.33833339530703e-02
2.01895000000000e-01 4.19108907659890e+00 3.32248377485520e-02
2.04605000000000e-01 4.14309970949647e+00 3.30641144252068e-02
2.07315000000000e-01 4.09565983664548e+00 3.29012816917235e-02
2.10025000000000e-01 4.04876316615357e+00 3.27364530618076e-02
2.12735000000000e-01 4.00240347817266e+00 3.25697380220873e-02
2.15445000000000e-01 3.95657462407396e+00 3.24012421915340e-02
2.18155000000000e-01 3.91127052563257e+00 3.22310674729373e-02
2.20865000000000e-01 3.86648517422127e+00 3.20593121969348e-02
2.23575000000000e-01 3.82221263001364e+00 3.18860712590506e-02
2.26285000000000e-01 3.77844702119624e+00 3.17114362501735e-02
2.28995000000000e-01 3.73518254318986e+00 3.15354955808683e-02
2.31705000000000e-01 3.69241345787964e+00 3.13583345998793e-02
2.34415000000000e-01 3.65013409285408e+00 3.11800357071750e-02
2.37125000000000e-01 3.60833884065266e+00 3.10006784618488e-02
2.39835000000000e-01 3.56702215802214e+00 3.08203396851597e-02
2.42545000000000e-01 3.52617856518141e+00 3.06390935589962e-02
2.45255000000000e-01 3.48580264509465e+00 3.04570117200159e-02
2.47965000000000e-01 3.44588904275293e+00 3.02741633496913e-02
2.50675000000000e-01 3.40643246446394e+00 3.00906152604954e-02
2.53385000000000e-01 3.36742767714993e+00 2.99064319784266e-02
2.56095000000000e-01 3.32886950765361e+00 2.97216758220634e-02
2.58805000000000e-01 3.29075284205209e+00 2.95364069783424e-02
2.61515000000000e-01 3.25307262497859e+00 2.93506835752160e-02
2.64225000000000e-01 3.21582385895196e+00 2.91645617513573e-02
2.66935000000000e-01 3.17900160371388e+00 2.89780957230595e-02
2.69645000000000e-01 3.14260097557365e+00 2.87913378484678e-02
2.72355000000000e-01 3.10661714676043e+00 2.86043386892773e-02
2.75065000000000e-01 3.07104534478298e+00 2.84171470700217e-02
2.77775000000000e-01 3.03588085179667e+00 2.82298101350672e-02
2.80485000000000e-01 3.00111900397779e+00 2.80423734034227e-02
2.83195000000000e-01 2.96675519090491e+00 2.78548808214676e-02
2.85905000000000e-01 2.93278485494752e+00 2.76673748136944e-02
2.88615000000000e-01 2.89920349066147e+00 2.74798963315632e-02
2.91325000000000e-01 2.86600664419145e+00 2.72924849005477e-02
2.94035000000000e-01 2.83318991268028e+00 2.71051786654580e-02
2.96745000000000e-01 2.80074894368496e+00 2.69180144341176e-02
2.99455000000000e-01 2.76867943459943e+00 2.67310277194661e-02
3.02165000000000e-01 2.73697713208388e+00 2.65442527801575e-02
3.04875000000000e-01 2.70563783150066e+00 2.63577226597230e-02
3.07585000000000e-01 2.67465737635665e+00 2.61714692243530e-02
3.10295000000000e-01 2.64403165775193e+00 2.59855231993611e-02
3.13005000000000e-01 2.61375661383488e+00 2.57999142043899e-02
3.15715000000000e-01 2.58382822926340e+00 2.56146707874065e-02
3.18425000000000e-01 2.55424253467244e+00 2.54298204575337e-02
3.21135000000000e-01 2.52499560614747e+00 2.52453897167751e-02
3.23845000000000e-01 2.49608356470410e+00 2.50614040906758e-02
3.26555000000000e-01 2.46750257577361e+00 2.48778881579511e-02
3.29265000000000e-01 2.43924884869437e+00 2.46948655791394e-02
3.31975000000000e-01 2.41131863620907e+00 2.45123591243135e-02
3.34685000000000e-01 2.38370823396777e+00 2.43303906998794e-02
3.37395000000000e-01 2.35641398003656e+00 2.41489813745096e-02
3.40105000000000e-01 2.32943225441190e+00 2.39681514042372e-02
3.42815000000000e-01 2.30275947854049e+00 2.37879202567418e-02
3.45525000000000e-01 2.27639211484465e+00 2.36083066348669e-02
3.48235000000000e-01 2.25032666625317e+00 2.34293284993884e-02
3.50945000000000e-01 2.22455967573745e+00 2.32510030910654e-02
3.53655000000000e-01 2.19908772585303e+00 2.30733469519992e-02
3.56365000000000e-01 2.17390743828632e+00 2.28963759463289e-02
3.59075000000000e-01 2.14901547340656e+00 2.27201052802868e-02
3.61785000000000e-01 2.12440852982285e+00 2.25445495216327e-02
3.64495000000000e-01 2.10008334394635e+00 2.23697226184951e-02
3.67205000000000e-01 2.07603668955737e+00 2.21956379176352e-02
3.69915000000000e-01 2.05226537737754e+00 2.20223081821583e-02
3.72625000000000e-01 2.02876625464676e+00 2.18497456086921e-02
3.75335000000000e-01 2.00553620470511e+00 2.16779618440470e-02
3.78045000000000e-01 1.98257214657945e+00 2.15069680013777e-02
3.80755000000000e-01 1.95987103457481e+00 2.13367746758659e-02
3.83465000000000e-01 1.93742985787044e+00 2.11673919599360e-02
3.86175000000000e-01 1.91524564012052e+00 2.09988294580263e-02
3.88885000000000e-01 1.89331543905935e+00 2.08310963009210e-02
3.91595000000000e-01 1.87163634611115e+00 2.06642011596662e-02
3.94305000000000e-01 1.85020548600433e+00 2.04981522590817e-02
3.97015000000000e-01 1.82902001639010e+00 2.03329573908778e-02
3.99725000000000e-01 1.80807712746551e+00 2.01686239263960e-02
4.02435000000000e-01 1.78737404160080e+00 2.00051588289811e-02
4.05145000000000e-01 1.76690801297098e+00 1.98425686660013e-02
4.07855000000000e-01 1.74667632719170e+00 1.96808596205211e-02
4.10565000000000e-01 1.72667630095919e+00 1.95200375026457e-02
4.13275000000000e-01 1.70690528169442e+00 1.93601077605413e-02
4.15985000000000e-01 1.68736064719125e+00 1.92010754911451e-02
4.18695000000000e-01 1.66803980526870e+00 1.90429454505732e-02
4.21405000000000e-01 1.64894019342712e+00 1.88857220642353e-02
4.24115000000000e-01 1.63005927850832e+00 1.87294094366682e-02
4.26825000000000e-01 1.61139455635964e+00 1.85740113610922e-02
4.29535000000000e-01 1.59294355150179e+00 1.84195313287043e-02
4.32245000000000e-01 1.57470381680053e+00 1.82659725377119e-02
4.34955000000000e-01 1.55667293314215e+00 1.81133379021168e-02
4.37665000000000e-01 1.53884850911257e+00 1.79616300602565e-02
4.40375000000000e-01 1.52122818068023e+00 1.78108513831108e-02
4.43085000000000e-01 1.50380961088250e+00 1.76610039823806e-02
4.45795000000000e-01 1.48659048951574e+00 1.75120897183432e-02
4.48505000000000e-01 1.46956853282894e+00 1.73641102074963e-02
4.51215000000000e-01 1.45274148322078e+00 1.72170668299913e-02
4.53925000000000e-01 1.43610710894024e+00 1.70709607368644e-02
4.56635000000000e-01 1.41966320379058e+00 1.69257928570719e-02
4.59345000000000e-01 1.40340758683675e+00 1.67815639043352e-02
4.62055000000000e-01 1.38733810211616e+00 1.66382743837983e-02
4.64765000000000e-01 1.37145261835266e+00 1.64959245985090e-02
4.67475000000000e-01 1.35574902867397e+00 1.63545146557237e-02
4.70185000000000e-01 1.34022525033218e+00 1.62140444730409e-02
4.72895000000000e-01 1.32487922442754e+00 1.60745137843724e-02
4.75605000000000e-01 1.30970891563538e+00 1.59359221457545e-02
4.78315000000000e-01 1.29471231193618e+00 1.57982689410013e-02
4.81025000000000e-01 1.27988742434873e+00 1.56615533872077e-02
4.83735000000000e-01 1.26523228666630e+00 1.55257745401067e-02
4.86445000000000e-01 1.25074495519589e+00 1.53909312992805e-02
4.89155000000000e-01 1.23642350850043e+00 1.52570224132367e-02
4.91865000000000e-01 1.22226604714395e+00 1.51240464843468e-02
4.94575000000000e-01 1.20827069343965e+00 1.49920019736536e-02
4.97285000000000e-01 1.19443559120086e+00 1.48608872055513e-02
4.99995000000000e-01 1.18075890549489e+00 1.47307003723411e-02
5.02705000000000e-01 1.16723882239962e+00 1.46014395386649e-02
5.05415000000000e-01 1.15387354876296e+00 1.44731026458230e-02
5.08125000000000e-01 1.14066131196500e+00 1.43456875159770e-02
5.10835000000000e-01 1.12760035968291e+00 1.42191918562404e-02
5.13545000000000e-01 1.11468895965855e+00 1.40936132626615e-02
5.16255000000000e-01 1.10192539946872e+00 1.39689492241011e-02
5.18965000000000e-01 1.08930798629803e+00 1.38451971260060e-02
5.21675000000000e-01 1.07683504671439e+00 1.37223542540850e-02
5.24385000000000e-01 1.06450492644706e+00 1.36004177978852e-02
5.27095000000000e-01 1.05231599016726e+00 1.34793848542764e-02
5.29805000000000e-01 1.04026662127126e+00 1.33592524308400e-02
5.32515000000000e-01 1.02835522166600e+00 1.32400174491706e-02
5.35225000000000e-01 1.01658021155710e+00 1.31216767480894e-02
5.37935000000000e-01 1.00494002923936e+00 1.30042270867727e-02
5.40645000000000e-01 9.93433130889620e-01 1.28876651477972e-02
5.43355000000000e-01 9.82057990362020e-01 1.27719875401039e-02
5.46065000000000e-01 9.70813098985571e-01 1.26571908018851e-02
5.48775000000000e-01 9.59696965364069e-01 1.25432714033935e-02
5.51485000000000e-01 9.48708115178298e-01 1.24302257496760e-02
5.54195000000000e-01 9.37845090990488e-01 1.23180501832378e-02
5.56905000000000e-01 9.27106452051012e-01 1.22067409866327e-02
5.59615000000000e-01 9.16490774107314e-01 1.20962943849837e-02
5.62325000000000e-01 9.05996649214999e-01 1.19867065484399e-02
5.65035000000000e-01 8.95622685551107e-01 1.18779735945661e-02
5.67745000000000e-01 8.85367507229516e-01 1.17700915906674e-02
5.70455000000000e-01 8.75229754118457e-01 1.16630565560527e-02
5.73165000000000e-01 8.65208081660123e-01 1.15568644642376e-02
5.75875000000000e-01 8.55301160692343e-01 1.14515112450886e-02
5.78585000000000e-01 8.45507677272295e-01 1.13469927869078e-02
5.81295000000000e-01 8.35826332502242e-01 1.12433049384633e-02
5.84005000000000e-01 8.26255842357257e-01 1.11404435109645e-02
5.86715000000000e-01 8.16794937514928e-01 1.10384042799833e-02
5.89425000000000e-01 8.07442363187007e-01 1.09371829873242e-02
5.92135000000000e-01 7.98196878952992e-01 1.08367753428428e-02
5.94845000000000e-01 7.89057258595605e-01 1.07371770262157e-02
5.97555000000000e-01 7.80022289938168e-01 1.06383836886614e-02
6.00265000000000e-01 7.71090774683829e-01 1.05403909546145e-02
6.02975000000000e-01 7.62261528256634e-01 1.04431944233547e-02
6.05685000000000e-01 7.53533379644420e-01 1.03467896705894e-02
6.08395000000000e-01 7.44905171243502e-01 1.02511722499942e-02
6.11105000000000e-01 7.36375758705144e-01 1.01563376947113e-02
6.13815000000000e-01 7.27944010783784e-01 1.00622815188046e-02
6.16525000000000e-01 7.19608809187000e-01 9.96899921867574e-03
6.19235000000000e-01 7.11369048427189e-01 9.87648627444080e-03
6.21945000000000e-01 7.03223635674952e-01 9.78473815126738e-03
6.24655000000000e-01 6.95171490614148e-01 9.69375030067519e-03
6.27365000000000e-01 6.87211545298619e-01 9.60351816180055e-03
6.30075000000000e-01 6.79342744010545e-01 9.51403716262366e-03
6.32785000000000e-01 6.71564043120426e-01 9.42530272116190e-03
6.35495000000000e-01 6.63874410948670e-01 9.33731024662952e-03
6.38205000000000e-01 6.56272827628759e-01 9.25005514056371e-03
6.40915000000000e-01 6.48758284971986e-01 9.16353279791898e-03
6.43625000000000e-01 6.41329786333742e-01 9.07773860812929e-03
6.46335000000000e-01 6.33986346481331e-01 8.99266795614002e-03
6.49045000000000e-01 6.26726991463298e-01 8.90831622340937e-03
6.51755000000000e-01 6.19550758480259e-01 8.82467878888118e-03
6.54465000000000e-01 6.12456695757203e-01 8.74175102992939e-03
6.57175000000000e-01 6.05443862417260e-01 8.65952832327418e-03
6.59885000000000e-01 5.98511328356915e-01 8.57800604587052e-03
6.62595000000000e-01 5.91658174122646e-01 8.49717957577138e-03
6.65305000000000e-01 5.84883490788982e-01 8.41704429296449e-03
6.68015000000000e-01 5.78186379837951e-01 8.33759558018376e-03
6.70725000000000e-01 5.71565953039913e-01 8.25882882369673e-03
6.73435000000000e-01 5.65021332335752e-01 8.18073941406776e-03
6.76145000000000e-01 5.58551649720422e-01 8.10332274689782e-03
6.78855000000000e-01 5.52156047127822e-01 8.02657422354091e-03
6.81565000000000e-01 5.45833676316998e-01 7.95048925179941e-03
6.84275000000000e-01 5.39583698759635e-01 7.87506324659676e-03
6.86985000000000e-01 5.33405285528847e-01 7.80029163062942e-03
6.89695000000000e-01 5.27297617189237e-01 7.72616983499824e-03
6.92405000000000e-01 5.21259883688217e-01 7.65269329981932e-03
6.95115000000000e-01 5.15291284248572e-01 7.57985747481553e-03
6.97825000000000e-01 5.09391027262251e-01 7.50765781988871e-03
7.00535000000000e-01 5.03558330185381e-01 7.43608980567337e-03
7.03245000000000e-01 4.97792419434476e-01 7.36514891407188e-03
7.05955000000000e-01 4.92092530283840e-01 7.29483063877248e-03
7.08665000000000e-01 4.86457906764140e-01 7.22513048574918e-03
7.11375000000000e-01 4.80887801562144e-01 7.15604397374473e-03
7.14085000000000e-01 4.75381475921606e-01 7.08756663473779e-03
7.16795000000000e-01 4.69938199545286e-01 7.01969401439403e-03
7.19505000000000e-01 4.64557250498090e-01 6.95242167250068e-03
7.22215000000000e-01 4.59237915111320e-01 6.88574518338581e-03
7.24925000000000e-01 4.53979487888026e-01 6.81966013632412e-03
7.27635000000000e-01 4.48781271409431e-01 6.75416213592670e-03
7.30345000000000e-01 4.43642576242435e-01 6.68924680251671e-03
7.33055000000000e-01 4.38562720848178e-01 6.62490977249209e-03
7.35765000000000e-01 4.33541031491647e-01 6.56114669867424e-03
7.38475000000000e-01 4.28576842152319e-01 6.49795325064321e-03
7.41185000000000e-01 4.23669494435829e-01 6.43532511506067e-03
7.43895000000000e-01 4.18818337486646e-01 6.37325799597994e-03
7.46605000000000e-01 4.14022727901752e-01 6.31174761514419e-03
7.49315000000000e-01 4.09282029645308e-01 6.25078971227264e-03
7.52025000000000e-01 4.04595613964298e-01 6.19038004533464e-03
7.54735000000000e-01 3.99962859305138e-01 6.13051439081320e-03
7.57445000000000e-01 3.95383151231237e-01 6.07118854395688e-03
7.60155000000000e-01 3.90855882341511e-01 6.01239831902140e-03
7.62865000000000e-01 3.86380452189819e-01 5.95413954950121e-03
7.65575000000000e-01 3.81956267205330e-01 5.89640808834946e-03
7.68285000000000e-01 3.77582740613795e-01 5.83919980818876e-03
7.70995000000000e-01 3.73259292359728e-01 5.78251060151316e-03
7.73705000000000e-01 3.68985349029469e-01 5.72633638087923e-03
7.76415000000000e-01 3.64760343775138e-01 5.67067307908863e-03
7.79125000000000e-01 3.60583716239451e-01 5.61551664936211e-03
7.81835000000000e-01 3.56454912481401e-01 5.56086306550354e-03
7.84545000000000e-01 3.52373384902793e-01 5.50670832205680e-03
7.87255000000000e-01 3.48338592175612e-01 5.45304843445403e-03
7.89965000000000e-01 3.44349999170227e-01 5.39987943915503e-03
7.92675000000000e-01 3.40407076884424e-01 5.34719739377932e-03
7.95385000000000e-01 3.36509302373238e-01 5.29499837723091e-03
7.98095000000000e-01 3.32656158679599e-01 5.24327848981524e-03
8.00805000000000e-01 3.28847134765766e-01 5.19203385334864e-03
8.03515000000000e-01 3.25081725445555e-01 5.14126061126107e-03
8.06225000000000e-01 3.21359431317326e-01 5.09095492869218e-03
8.08935000000000e-01 3.17679758697760e-01 5.04111299257982e-03
8.11645000000000e-01 3.14042219556374e-01 4.99173101174292e-03
8.14355000000000e-01 3.10446331450796e-01 4.94280521695782e-03
8.17065000000000e-01 3.06891617462781e-01 4.89433186102789e-03
8.19775000000000e-01 3.03377606134957e-01 4.84630721884775e-03
8.22485000000000e-01 2.99903831408296e-01 4.79872758746129e-03
8.25195000000000e-01 2.96469832560301e-01 4.75158928611414e-03
8.27905000000000e-01 2.93075154143901e-01 4.70488865630071e-03
8.30615000000000e-01 2.89719345927047e-01 4.65862206180553e-03
8.33325000000000e-01 2.86401962832994e-01 4.61278588873945e-03
8.36035000000000e-01 2.83122564881278e-01 4.56737654557108e-03
8.38745000000000e-01 2.79880717129356e-01 4.52239046315333e-03
8.41455000000000e-01 2.76675989614921e-01 4.47782409474401e-03
8.44165000000000e-01 2.73507957298881e-01 4.43367391602313e-03
8.46875000000000e-01 2.70376200008981e-01 4.38993642510515e-03
8.49585000000000e-01 2.67280302384078e-01 4.34660814254634e-03
8.52295000000000e-01 2.64219853819053e-01 4.30368561134870e-03
8.55005000000000e-01 2.61194448410354e-01 4.26116539695894e-03
