Energy (eV)          EEDF (eV^-(3/2))     First Anisotropy
4.54166666666667e-03 7.93702307680558e-01 4.26056055062638e-04
1.36250000000000e-02 7.88006835357733e-01 7.03380031336845e-04
2.27083333333333e-02 7.82352232752169e-01 9.28118601597273e-04
3.17916666666667e-02 7.76738206626238e-01 1.09859718214097e-03
4.08750000000000e-02 7.71164465797818e-01 1.24056585649249e-03
4.99583333333333e-02 7.65630721173494e-01 1.36376463415836e-03
5.90416666666667e-02 7.60136685760954e-01 1.47323605981612e-03
6.81250000000000e-02 7.54682074611540e-01 1.57202640311147e-03
7.72083333333333e-02 7.49266604815758e-01 1.66215680231853e-03
8.62916666666667e-02 7.43889995509821e-01 1.74505631675160e-03
9.53750000000000e-02 7.38551967836593e-01 1.82178322404890e-03
1.04458333333333e-01 7.33252244935454e-01 1.89314937695101e-03
1.13541666666667e-01 7.27990551943383e-01 1.95979519313339e-03
1.22625000000000e-01 7.22766615976004e-01 2.02223741774539e-03
1.31708333333333e-01 7.17580166054103e-01 2.08090087896149e-03
1.40791666666667e-01 7.12430933225877e-01 2.13614039721486e-03
1.49875000000000e-01 7.07318650424722e-01 2.18825635588790e-03
1.58958333333333e-01 7.02243052470492e-01 2.23750601483244e-03
1.68041666666667e-01 6.97203876152299e-01 2.28411196343803e-03
1.77125000000000e-01 6.92200860112583e-01 2.32826853651311e-03
1.86208333333333e-01 6.87233744843965e-01 2.37014673792023e-03
1.95291666666667e-01 6.82302272756197e-01 2.40989812252265e-03
2.04375000000000e-01 6.77406188078363e-01 2.44765787712142e-03
2.13458333333333e-01 6.72545236853203e-01 2.48354726927985e-03
2.22541666666667e-01 6.67719166992417e-01 2.51767565877133e-03
2.31625000000000e-01 6.62927728192125e-01 2.55014214632910e-03
2.40708333333333e-01 6.58170671925669e-01 2.58103691362313e-03
2.49791666666667e-01 6.53447751490013e-01 2.61044236241575e-03
2.58875000000000e-01 6.48758721931356e-01 2.63843407142991e-03
2.67958333333333e-01 6.44103340036960e-01 2.66508158386070e-03
2.77041666666667e-01 6.39481364374574e-01 2.69044909827078e-03
2.86125000000000e-01 6.34892555226053e-01 2.71459606018677e-03
2.95208333333333e-01 6.30336674578577e-01 2.73757765115195e-03
3.04291666666667e-01 6.25813486158462e-01 2.75944523128253e-03
3.13375000000000e-01 6.21322755371269e-01 2.78024672414009e-03
3.22458333333333e-01 6.16864249292643e-01 2.80002693393167e-03
3.31541666666667e-01 6.12437736697528e-01 2.81882784196821e-03
3.40625000000000e-01 6.08042988005652e-01 2.83668886780044e-03
3.49708333333333e-01 6.03679775272132e-01 2.85364708223619e-03
3.58791666666667e-01 5.99347872212872e-01 2.86973741351672e-03
3.67875000000000e-01 5.95047054154576e-01 2.88499283088713e-03
3.76958333333333e-01 5.90777098025222e-01 2.89944449171753e-03
3.86041666666667e-01 5.86537782376253e-01 2.91312188954864e-03
3.95125000000000e-01 5.82328887336456e-01 2.92605298711657e-03
4.04208333333333e-01 5.78150194602379e-01 2.93826432028792e-03
4.13291666666667e-01 5.74001487457797e-01 2.94978110734824e-03
4.22375000000000e-01 5.69882550730930e-01 2.96062734797836e-03
4.31458333333333e-01 5.65793170784863e-01 2.97082589802447e-03
4.40541666666667e-01 5.61733135534670e-01 2.98039855215745e-03
4.49625000000000e-01 5.57702234407555e-01 2.98936611924711e-03
4.58708333333333e-01 5.53700258333309e-01 2.99774847692483e-03
4.67791666666667e-01 5.49726999759409e-01 3.00556463545974e-03
4.76875000000000e-01 5.45782252613743e-01 3.01283279635811e-03
4.85958333333333e-01 5.41865812295124e-01 3.01957039261051e-03
4.95041666666667e-01 5.37977475686639e-01 3.02579413901115e-03
5.04125000000000e-01 5.34117041120655e-01 3.03152007856651e-03
5.13208333333333e-01 5.30284308369433e-01 3.03676361240588e-03
5.22291666666667e-01 5.26479078656924e-01 3.04153954011294e-03
5.31375000000000e-01 5.22701154625835e-01 3.04586209709768e-03
5.40458333333333e-01 5.18950340328342e-01 3.04974497691849e-03
5.49541666666667e-01 5.15226441236539e-01 3.05320136411783e-03
5.58625000000000e-01 5.11529264211341e-01 3.05624396477705e-03
5.67708333333333e-01 5.07858617493322e-01 3.05888502318493e-03
5.76791666666667e-01 5.04214310711962e-01 3.06113634895415e-03
5.85875000000000e-01 5.00596154856224e-01 3.06300934234880e-03
5.94958333333333e-01 4.97003962265524e-01 3.06451500668865e-03
6.04041666666667e-01 4.93437546637909e-01 3.06566397103481e-03
6.13125000000000e-01 4.89896723002159e-01 3.06646651145013e-03
6.22208333333333e-01 4.86381307708891e-01 3.06693256015171e-03
6.31291666666667e-01 4.82891118437791e-01 3.06707172471549e-03
6.40375000000000e-01 4.79425974171111e-01 3.06689330613001e-03
6.49458333333333e-01 4.75985695184911e-01 3.06640630544487e-03
6.58541666666667e-01 4.72570103055442e-01 3.06561944020674e-03
6.67625000000000e-01 4.69179020633925e-01 3.06454115995283e-03
6.76708333333333e-01 4.65812272037940e-01 3.06317965091538e-03
6.85791666666667e-01 4.62469682657044e-01 3.06154285022911e-03
6.94875000000000e-01 4.59151079128737e-01 3.05963845935695e-03
7.03958333333333e-01 4.55856289329987e-01 3.05747394727625e-03
7.13041666666667e-01 4.52585142382178e-01 3.05505656287195e-03
7.22125000000000e-01 4.49337468628157e-01 3.05239334667457e-03
7.31208333333333e-01 4.46113099623917e-01 3.04949113285320e-03
7.40291666666667e-01 4.42911868142923e-01 3.04635656011736e-03
7.49375000000000e-01 4.39733608154175e-01 3.04299608206376e-03
7.58458333333333e-01 4.36578154814037e-01 3.03941596822763e-03
7.67541666666667e-01 4.33445344470016e-01 3.03562231374676e-03
7.76625000000000e-01 4.30335014639760e-01 3.03162104855043e-03
7.85708333333333e-01 4.27247004003043e-01 3.02741793766560e-03
7.94791666666667e-01 4.24181152405034e-01 3.02301858984399e-03
8.03875000000000e-01 4.21137300836182e-01 3.01842846577971e-03
8.12958333333333e-01 4.18115291424350e-01 3.01365287782347e-03
8.22041666666667e-01 4.15114967437628e-01 3.00869699773523e-03
8.31125000000000e-01 4.12136173265040e-01 3.00356586407956e-03
8.40208333333333e-01 4.09178754408829e-01 2.99826438147018e-03
8.49291666666667e-01 4.06242557486856e-01 2.99279732757766e-03
8.58375000000000e-01 4.03327430214082e-01 2.98716935982401e-03
8.67458333333333e-01 4.00433221394997e-01 2.98138501425501e-03
8.76541666666667e-01 3.97559780925649e-01 2.97544871190921e-03
8.85625000000000e-01 3.94706959775848e-01 2.96936476491038e-03
8.94708333333333e-01 3.91874609981742e-01 2.96313737504560e-03
9.03791666666667e-01 3.89062584647508e-01 2.95677063958312e-03
9.12875000000000e-01 3.86270737928238e-01 2.95026855684379e-03
9.21958333333333e-01 3.83498925022660e-01 2.94363502454776e-03
9.31041666666667e-01 3.80747002174518e-01 2.93687384515299e-03
9.40125000000000e-01 3.78014826656107e-01 2.92998873097396e-03
9.49208333333333e-01 3.75302256761131e-01 2.92298330234746e-03
9.58291666666667e-01 3.72609151805807e-01 2.91586109255193e-03
9.67375000000000e-01 3.69935372113004e-01 2.90862555252900e-03
9.76458333333333e-01 3.67280779005249e-01 2.90128004891035e-03
9.85541666666667e-01 3.64645234805566e-01 2.89382786856819e-03
9.94625000000000e-01 3.62028602822202e-01 2.88627222298729e-03
1.00370833333333e+00 3.59430747341759e-01 2.87861624618619e-03
1.01279166666667e+00 3.56851533629814e-01 2.87086299695002e-03
1.02187500000000e+00 3.54290827923500e-01 2.86301547286811e-03
1.03095833333333e+00 3.51748497388145e-01 2.85507659021110e-03
1.04004166666667e+00 3.49224410191016e-01 2.84704919584250e-03
1.04912500000000e+00 3.46718435420674e-01 2.83893609089196e-03
1.05820833333333e+00 3.44230443082195e-01 2.83073999288198e-03
1.06729166666667e+00 3.41760304159933e-01 2.82246355728302e-03
1.07637500000000e+00 3.39307890540484e-01 2.81410939822677e-03
1.08545833333333e+00 3.36873075007934e-01 2.80568005180841e-03
1.09454166666667e+00 3.34455731303558e-01 2.79717799679819e-03
1.10362500000000e+00 3.32055734052185e-01 2.78860567455744e-03
1.11270833333333e+00 3.29672958757469e-01 2.77996545347909e-03
1.12179166666667e+00 3.27307281858724e-01 2.77125964890554e-03
1.13087500000000e+00 3.24958580660484e-01 2.76249054229277e-03
1.13995833333333e+00 3.22626733327810e-01 2.75366034675294e-03
1.14904166666667e+00 3.20311618940425e-01 2.74477122622330e-03
1.15812500000000e+00 3.18013117425292e-01 2.73582531391962e-03
1.16720833333333e+00 3.15731109551962e-01 2.72682467894499e-03
1.17629166666667e+00 3.13465476984168e-01 2.71777134474993e-03
1.18537500000000e+00 3.11216102215248e-01 2.70866730691421e-03
1.19445833333333e+00 3.08982868563548e-01 2.69951450078546e-03
1.20354166666667e+00 3.06765660221610e-01 2.69031481926834e-03
1.21262500000000e+00 3.04564362194297e-01 2.68107012996920e-03
1.22170833333333e+00 3.02378860294243e-01 2.67178224383033e-03
1.23079166666667e+00 3.00209041188779e-01 2.66245293228238e-03
1.23987500000000e+00 2.98054792340613e-01 2.65308394378353e-03
1.24895833333333e+00 2.95916002003330e-01 2.64367697341607e-03
1.25804166666667e+00 2.93792559266180e-01 2.63423367943309e-03
1.26712500000000e+00 2.91684353997184e-01 2.62475569922256e-03
1.27620833333333e+00 2.89591276838681e-01 2.61524461983309e-03
1.28529166666667e+00 2.87513219250102e-01 2.60570199394453e-03
1.29437500000000e+00 2.85450073453368e-01 2.59612935528324e-03
1.30345833333333e+00 2.83401732428496e-01 2.58652819004642e-03
1.31254166666667e+00 2.81368089954459e-01 2.57689995232358e-03
1.32162500000000e+00 2.79349040556770e-01 2.56724607898812e-03
1.33070833333333e+00 2.77344479503137e-01 2.55756796199004e-03
1.33979166666667e+00 2.75354302842521e-01 2.54786696325316e-03
1.34887500000000e+00 2.73378407354789e-01 2.53814442906673e-03
1.35795833333333e+00 2.71416690546426e-01 2.52840166321655e-03
1.36704166666667e+00 2.69469050687884e-01 2.51863994138183e-03
1.37612500000000e+00 2.67535386765198e-01 2.50886052504957e-03
1.38520833333333e+00 2.65615598475763e-01 2.49906463545477e-03
1.39429166666667e+00 2.63709586264058e-01 2.48925346749926e-03
1.40337500000000e+00 2.61817251275135e-01 2.47942820320853e-03
1.41245833333333e+00 2.59938495350454e-01 2.46958998645492e-03
1.42154166666667e+00 2.58073221062072e-01 2.45973993641828e-03
1.43062500000000e+00 2.56221331667910e-01 2.44987916060494e-03
1.43970833333333e+00 2.54382731107653e-01 2.44000873032725e-03
1.44879166666667e+00 2.52557324035477e-01 2.43012969372520e-03
1.45787500000000e+00 2.50745015777013e-01 2.42024308836583e-03
1.46695833333333e+00 2.48945712325312e-01 2.41034991745350e-03
1.47604166666667e+00 2.47159320372180e-01 2.40045116243106e-03
1.48512500000000e+00 2.45385747266764e-01 2.39054779517675e-03
1.49420833333333e+00 2.43624901011579e-01 2.38064075492031e-03
1.50329166666667e+00 2.41876690292524e-01 2.37073096044048e-03
1.51237500000000e+00 2.40141024439014e-01 2.36081932187608e-03
1.52145833333333e+00 2.38417813420066e-01 2.35090671832467e-03
1.53054166666667e+00 2.36706967873064e-01 2.34099400965232e-03
1.53962500000000e+00 2.35008399065364e-01 2.33108204793339e-03
1.54870833333333e+00 2.33322018890442e-01 2.32117165570928e-03
1.55779166666667e+00 2.31647739895471e-01 2.31126363742629e-03
1.56687500000000e+00 2.29985475244326e-01 2.30135879051818e-03
1.57595833333333e+00 2.28335138713801e-01 2.29145788430269e-03
1.58504166666667e+00 2.26696644720048e-01 2.28156167106244e-03
1.59412500000000e+00 2.25069908282927e-01 2.27167089678400e-03
1.60320833333333e+00 2.23454845022287e-01 2.26178628067117e-03
1.61229166666667e+00 2.21851371183321e-01 2.25190852588195e-03
1.62137500000000e+00 2.20259403602208e-01 2.24203832993735e-03
1.63045833333333e+00 2.18678859702448e-01 2.23217636483174e-03
1.63954166666667e+00 2.17109657519194e-01 2.22232328743812e-03
1.64862500000000e+00 2.15551715666119e-01 2.21247974959883e-03
1.65770833333333e+00 2.14004953331817e-01 2.20264637881372e-03
1.66679166666667e+00 2.12469290303154e-01 2.19282378832665e-03
1.67587500000000e+00 2.10944646933303e-01 2.18301258690961e-03
1.68495833333333e+00 2.09430944138222e-01 2.17321336010931e-03
1.69404166666667e+00 2.07928103419051e-01 2.16342668002657e-03
1.70312500000000e+00 2.06436046831293e-01 2.15365311480555e-03
1.71220833333333e+00 2.04954696981333e-01 2.14389321042046e-03
1.72129166666667e+00 2.03483977047963e-01 2.13414750015911e-03
1.73037500000000e+00 2.02023810752621e-01 2.12441651382746e-03
1.73945833333333e+00 2.00574122355990e-01 2.11470076005927e-03
1.74854166666667e+00 1.99134836678658e-01 2.10500073551455e-03
1.75762500000000e+00 1.97705879072396e-01 2.09531693380939e-03
1.76670833333333e+00 1.96287175416818e-01 2.08564982833186e-03
1.77579166666667e+00 1.94878652139224e-01 2.07599988116542e-03
1.78487500000000e+00 1.93480236186873e-01 2.06636755175365e-03
1.79395833333333e+00 1.92091855023700e-01 2.05675328020633e-03
1.80304166666667e+00 1.90713436649384e-01 2.04715749595734e-03
1.81212500000000e+00 1.89344909572571e-01 2.03758062617352e-03
1.82120833333333e+00 1.87986202807648e-01 2.02802307953560e-03
1.83029166666667e+00 1.86637245893071e-01 2.01848525463971e-03
1.83937500000000e+00 1.85297968865502e-01 2.00896754815906e-03
1.84845833333333e+00 1.83968302256636e-01 1.99947033908447e-03
1.85754166666667e+00 1.82648177110825e-01 1.98999399687877e-03
1.86662500000000e+00 1.81337524960083e-01 1.98053888939971e-03
1.87570833333333e+00 1.80036277820982e-01 1.97110536758573e-03
1.88479166666667e+00 1.78744368211585e-01 1.96169377337115e-03
1.89387500000000e+00 1.77461729127303e-01 1.95230444737859e-03
1.90295833333333e+00 1.76188294037837e-01 1.94293771403617e-03
1.91204166666667e+00 1.74923996903472e-01 1.93359388926174e-03
1.92112500000000e+00 1.73668772151736e-01 1.92427328793241e-03
1.93020833333333e+00 1.72422554674398e-01 1.91497620941948e-03
1.93929166666667e+00 1.71185279843143e-01 1.90570294504946e-03
1.94837500000000e+00 1.69956883487006e-01 1.89645378535840e-03
1.95745833333333e+00 1.68737301889427e-01 1.88722900603167e-03
1.96654166666667e+00 1.67526471803329e-01 1.87802887514902e-03
1.97562500000000e+00 1.66324330429299e-01 1.86885366023082e-03
1.98470833333333e+00 1.65130815412697e-01 1.85970361457001e-03
1.99379166666667e+00 1.63945864858169e-01 1.85057898426852e-03
2.00287500000000e+00 1.62769417308536e-01 1.84148001508204e-03
2.01195833333333e+00 1.61601411741970e-01 1.83240693913233e-03
2.02104166666667e+00 1.60441787585947e-01 1.82335998174200e-03
2.03012500000000e+00 1.59290484696840e-01 1.81433936808392e-03
2.03920833333333e+00 1.58147443357138e-01 1.80534531026232e-03
2.04829166666667e+00 1.57012604288882e-01 1.79637801395240e-03
2.05737500000000e+00 1.55885908633918e-01 1.78743768486116e-03
2.06645833333333e+00 1.54767297951171e-01 1.77852451616599e-03
2.07554166666667e+00 1.53656714229582e-01 1.76963869496491e-03
2.08462500000000e+00 1.52554099868994e-01 1.76078040855505e-03
2.09370833333333e+00 1.51459397677486e-01 1.75194983221759e-03
2.10279166666667e+00 1.50372550883822e-01 1.74314713548564e-03
2.11187500000000e+00 1.49293503118956e-01 1.73437248824545e-03
2.12095833333333e+00 1.48222198413417e-01 1.72562604885753e-03
2.13004166666667e+00 1.47158581209296e-01 1.71690797024760e-03
2.13912500000000e+00 1.46102596342347e-01 1.70821840583631e-03
2.14820833333333e+00 1.45054189039417e-01 1.69955749798640e-03
2.15729166666667e+00 1.44013304929995e-01 1.69092538392251e-03
2.16637500000000e+00 1.42979890028882e-01 1.68232220149487e-03
2.17545833333333e+00 1.41953890733672e-01 1.67374807794264e-03
2.18454166666667e+00 1.40935253835877e-01 1.66520313564752e-03
2.19362500000000e+00 1.39923926504145e-01 1.65668749773689e-03
2.20270833333333e+00 1.38919856281790e-01 1.64820127715393e-03
2.21179166666667e+00 1.37922991097513e-01 1.63974458225032e-03
2.22087500000000e+00 1.36933279249148e-01 1.63131752223385e-03
2.22995833333333e+00 1.35950669401240e-01 1.62292019653589e-03
2.23904166666667e+00 1.34975110595374e-01 1.61455270024842e-03
2.24812500000000e+00 1.34006552234437e-01 1.60621512942083e-03
2.25720833333333e+00 1.33044944080236e-01 1.59790757071606e-03
2.26629166666667e+00 1.32090236263460e-01 1.58963010669663e-03
2.27537500000000e+00 1.31142379268425e-01 1.58138282097514e-03
2.28445833333333e+00 1.30201323930750e-01 1.57316578815068e-03
2.29354166666667e+00 1.29267021446949e-01 1.56497907894875e-03
2.30262500000000e+00 1.28339423359658e-01 1.55682276522967e-03
2.31170833333333e+00 1.27418481555350e-01 1.54869691019707e-03
2.32079166666667e+00 1.26504148273588e-01 1.54060157339604e-03
2.32987500000000e+00 1.25596376092707e-01 1.53253681558382e-03
2.33895833333333e+00 1.24695117927573e-01 1.52450268920269e-03
2.34804166666667e+00 1.23800327038507e-01 1.51649924324029e-03
2.35712500000000e+00 1.22911957017405e-01 1.50852652796695e-03
2.36620833333333e+00 1.22029961785544e-01 1.50058458566511e-03
2.37529166666667e+00 1.21154295602188e-01 1.49267345535618e-03
2.38437500000000e+00 1.20284913051131e-01 1.48479317740848e-03
2.39345833333333e+00 1.19421769038550e-01 1.47694378451561e-03
2.40254166666667e+00 1.18564818801301e-01 1.46912530629392e-03
2.41162500000000e+00 1.17714017893876e-01 1.46133777376498e-03
2.42070833333333e+00 1.16869322186301e-01 1.45358121057564e-03
2.42979166666667e+00 1.16030687872130e-01 1.44585563746990e-03
2.43887500000000e+00 1.15198071455808e-01 1.43816107664981e-03
2.44795833333333e+00 1.14371429750604e-01 1.43049754322999e-03
2.45704166666667e+00 1.13550719886327e-01 1.42286504958817e-03
2.46612500000000e+00 1.12735899297069e-01 1.41526360960776e-03
2.47520833333333e+00 1.11926925719182e-01 1.40769323036015e-03
2.48429166666667e+00 1.11123757198720e-01 1.40015391633722e-03
2.49337500000000e+00 1.10326352079553e-01 1.39264567357922e-03
2.50245833333333e+00 1.09534669001384e-01 1.38516850157873e-03
2.51154166666667e+00 1.08748666906929e-01 1.37772239739844e-03
2.52062500000000e+00 1.07968305030392e-01 1.37030735968747e-03
2.52970833333333e+00 1.07193542895518e-01 1.36292338080063e-03
2.53879166666667e+00 1.06424340322525e-01 1.35557045080498e-03
2.54787500000000e+00 1.05660657416917e-01 1.34824856138815e-03
2.55695833333333e+00 1.04902454567587e-01 1.34095769818643e-03
2.56604166666667e+00 1.04149692453498e-01 1.33369784468339e-03
2.57512500000000e+00 1.03402332032836e-01 1.32646898601341e-03
2.58420833333333e+00 1.02660334541147e-01 1.31927110149271e-03
2.59329166666667e+00 1.01923661497786e-01 1.31210416841303e-03
2.60237500000000e+00 1.01192274695397e-01 1.30496816574341e-03
2.61145833333333e+00 1.00466136198081e-01 1.29786306685852e-03
2.62054166666667e+00 9.97452083476259e-02 1.29078884323062e-03
2.62962500000000e+00 9.90294537532962e-02 1.28374546803247e-03
2.63870833333333e+00 9.83188352900389e-02 1.27673290905712e-03
2.64779166666667e+00 9.76133161044985e-02 1.26975113231121e-03
2.65687500000000e+00 9.69128596051051e-02 1.26280010552175e-03
2.66595833333333e+00 9.62174294603206e-02 1.25587979124231e-03
2.67504166666667e+00 9.55269896044437e-02 1.24899015035037e-03
2.68412500000000e+00 9.48415042279904e-02 1.24213114546080e-03
2.69320833333333e+00 9.41609377759760e-02 1.23530273421308e-03
2.70229166666667e+00 9.34852549535193e-02 1.22850487267530e-03
2.71137500000000e+00 9.28144207165066e-02 1.22173751866721e-03
2.72045833333333e+00 9.21484002699077e-02 1.21500062522325e-03
2.72954166666667e+00 9.14871590731879e-02 1.20829414390631e-03
2.73862500000000e+00 9.08306628312451e-02 1.20161802804264e-03
2.74770833333333e+00 9.01788774927599e-02 1.19497222635586e-03
2.75679166666667e+00 8.95317692554221e-02 1.18835668619270e-03
2.76587500000000e+00 8.88893045571321e-02 1.18177135667258e-03
2.77495833333333e+00 8.82514500743850e-02 1.17521618248783e-03
2.78404166666667e+00 8.76181727273175e-02 1.16869110704410e-03
2.79312500000000e+00 8.69894396711659e-02 1.16219607552669e-03
2.80220833333333e+00 8.63652182946829e-02 1.15573102886251e-03
2.81129166666667e+00 8.57454762250120e-02 1.14929590677747e-03
2.82037500000000e+00 8.51301813193934e-02 1.14289065078216e-03
2.82945833333333e+00 8.45193016636131e-02 1.13651519829090e-03
2.83854166666667e+00 8.39128055767113e-02 1.13016948559842e-03
2.84762500000000e+00 8.33106616029279e-02 1.12385345078717e-03
2.85670833333333e+00 8.27128385101833e-02 1.11756702799926e-03
2.86579166666667e+00 8.21193052946271e-02 1.11131015033469e-03
