Energy (eV)          EEDF (eV^-(3/2))     First Anisotropy
3.36363636363636e-04 1.25760288992371e+02 6.32031806129218e-02
1.00909090909091e-03 1.23805869636258e+02 1.03904752438060e-01
1.68181818181818e-03 1.21881823576628e+02 1.35948437596273e-01
2.35454545454545e-03 1.19987678794338e+02 1.59563881300537e-01
3.02727272727273e-03 1.18122970596479e+02 1.78665747938369e-01
3.70000000000000e-03 1.16287241513433e+02 1.94753947039959e-01
4.37272727272727e-03 1.14480041183794e+02 2.08614528905970e-01
5.04545454545455e-03 1.12700926249040e+02 2.20727992680966e-01
5.71818181818182e-03 1.10949460238586e+02 2.31416827624214e-01
6.39090909090909e-03 1.09225213465075e+02 2.40911625776663e-01
7.06363636363636e-03 1.07527762917930e+02 2.49385027851448e-01
7.73636363636364e-03 1.05856692162594e+02 2.56970889325518e-01
8.40909090909091e-03 1.04211591235104e+02 2.63775891678115e-01
9.08181818181818e-03 1.02592056541995e+02 2.69886971545670e-01
9.75454545454545e-03 1.00997690763533e+02 2.75376285929663e-01
1.04272727272727e-02 9.94281027531934e+01 2.80304651625388e-01
1.11000000000000e-02 9.78829074427606e+01 2.84724000348851e-01
1.17727272727273e-02 9.63617257549864e+01 2.88679175565932e-01
1.24454545454545e-02 9.48641844928294e+01 2.92209277488295e-01
1.31181818181818e-02 9.33899162645529e+01 2.95348689128810e-01
1.37909090909091e-02 9.19385593880172e+01 2.98127871451670e-01
1.44636363636364e-02 9.05097578059997e+01 3.00573989318314e-01
1.51363636363636e-02 8.91031609863706e+01 3.02711411080722e-01
1.58090909090909e-02 8.77184238487330e+01 3.04562112057018e-01
1.64818181818182e-02 8.63552066789345e+01 3.06146002792125e-01
1.71545454545455e-02 8.50131750354182e+01 3.07481200307338e-01
1.78272727272727e-02 8.36919996775856e+01 3.08584253579356e-01
1.85000000000000e-02 8.23913564814896e+01 3.09470332107524e-01
1.91727272727273e-02 8.11109263630693e+01 3.10153385169466e-01
1.98454545454545e-02 7.98503951915735e+01 3.10646277516703e-01
2.05181818181818e-02 7.86094537208831e+01 3.10960905557099e-01
2.11909090909091e-02 7.73877975108294e+01 3.11108297027034e-01
2.18636363636364e-02 7.61851268547336e+01 3.11098697293014e-01
2.25363636363636e-02 7.50011466990623e+01 3.10941644710793e-01
2.32090909090909e-02 7.38355665779400e+01 3.10646036627443e-01
2.38818181818182e-02 7.26881005415251e+01 3.10220186721996e-01
2.45545454545455e-02 7.15584670799479e+01 3.09671876169394e-01
2.52272727272727e-02 7.04463890602191e+01 3.09008398918787e-01
2.59000000000000e-02 6.93515936562178e+01 3.08236601679410e-01
2.65727272727273e-02 6.82738122834099e+01 3.07362919605118e-01
2.72454545454545e-02 6.72127805279711e+01 3.06393408462410e-01
2.79181818181818e-02 6.61682380869581e+01 3.05333773539410e-01
2.85909090909091e-02 6.51399287027554e+01 3.04189395450217e-01
2.92636363636364e-02 6.41276001016002e+01 3.02965353452100e-01
2.99363636363636e-02 6.31310039274428e+01 3.01666446772445e-01
3.06090909090909e-02 6.21498956853146e+01 3.00297214041556e-01
3.12818181818182e-02 6.11840346811483e+01 2.98861950525264e-01
3.19545454545455e-02 6.02331839589552e+01 2.97364724289421e-01
3.26272727272727e-02 5.92971102465053e+01 2.95809390944636e-01
3.33000000000000e-02 5.83755838968090e+01 2.94199606970134e-01
3.39727272727273e-02 5.74683788328565e+01 2.92538841953357e-01
3.46454545454545e-02 5.65752724888921e+01 2.90830390027556e-01
3.53181818181818e-02 5.56960457591101e+01 2.89077380421519e-01
3.59909090909091e-02 5.48304829427932e+01 2.87282787031704e-01
3.66636363636364e-02 5.39783716923263e+01 2.85449437279179e-01
3.73363636363636e-02 5.31395029582617e+01 2.83580020477531e-01
3.80090909090909e-02 5.23136709409044e+01 2.81677095640328e-01
3.86818181818182e-02 5.15006730397021e+01 2.79743098392935e-01
3.93545454545455e-02 5.07003098009833e+01 2.77780347742834e-01
4.00272727272727e-02 4.99123848716107e+01 2.75791052354329e-01
4.07000000000000e-02 4.91367049499351e+01 2.73777316263515e-01
4.13727272727273e-02 4.83730797391165e+01 2.71741144218890e-01
4.20454545454545e-02 4.76213218981909e+01 2.69684446815566e-01
4.27181818181818e-02 4.68812469983816e+01 2.67609045303927e-01
4.33909090909091e-02 4.61526734770895e+01 2.65516675970954e-01
4.40636363636364e-02 4.54354225940012e+01 2.63408994252865e-01
4.47363636363636e-02 4.47293183852568e+01 2.61287578726618e-01
4.54090909090909e-02 4.40341876222847e+01 2.59153934892979e-01
4.60818181818182e-02 4.33498597692240e+01 2.57009498474192e-01
4.67545454545455e-02 4.26761669392847e+01 2.54855638783976e-01
4.74272727272727e-02 4.20129438553817e+01 2.52693661875731e-01
4.81000000000000e-02 4.13600278089718e+01 2.50524813407485e-01
4.87727272727273e-02 4.07172586206649e+01 2.48350281347818e-01
4.94454545454545e-02 4.00844785993276e+01 2.46171198643431e-01
5.01181818181818e-02 3.94615325050138e+01 2.43988645740597e-01
5.07909090909091e-02 3.88482675103357e+01 2.41803652875202e-01
5.14636363636364e-02 3.82445331634393e+01 2.39617202241769e-01
5.21363636363636e-02 3.76501813496690e+01 2.37430230150842e-01
5.28090909090909e-02 3.70650662566708e+01 2.35243629096513e-01
5.34818181818182e-02 3.64890443385668e+01 2.33058249513987e-01
5.41545454545455e-02 3.59219742794338e+01 2.30874901655575e-01
5.48272727272727e-02 3.53637169599530e+01 2.28694357348537e-01
5.55000000000000e-02 3.48141354228348e+01 2.26517351584415e-01
5.61727272727273e-02 3.42730948396040e+01 2.24344584030176e-01
5.68454545454545e-02 3.37404624763560e+01 2.22176720553809e-01
5.75181818181818e-02 3.32161076623722e+01 2.20014394674148e-01
5.81909090909091e-02 3.26999017576659e+01 2.17858208866931e-01
5.88636363636364e-02 3.21917181217674e+01 2.15708735808782e-01
5.95363636363636e-02 3.16914320816087e+01 2.13566519644146e-01
6.02090909090909e-02 3.11989209019949e+01 2.11432077209432e-01
6.08818181818182e-02 3.07140637554563e+01 2.09305899040240e-01
6.15545454545455e-02 3.02367416916420e+01 2.07188450496813e-01
6.22272727272727e-02 2.97668376091111e+01 2.05080172818382e-01
6.29000000000000e-02 2.93042362262763e+01 2.02981484066412e-01
6.35727272727273e-02 2.88488240534074e+01 2.00892780025088e-01
6.42454545454546e-02 2.84004893639224e+01 1.98814435132090e-01
6.49181818181818e-02 2.79591221678537e+01 1.96746803365631e-01
6.55909090909091e-02 2.75246141845693e+01 1.94690219034128e-01
6.62636363636364e-02 2.70968588164657e+01 1.92644997530847e-01
6.69363636363636e-02 2.66757511220347e+01 1.90611436120894e-01
6.76090909090909e-02 2.62611877909079e+01 1.88589814706477e-01
6.82818181818182e-02 2.58530671184841e+01 1.86580396432220e-01
6.89545454545455e-02 2.54512889802562e+01 1.84583428395631e-01
6.96272727272727e-02 2.50557548079772e+01 1.82599142310975e-01
7.03000000000000e-02 2.46663675652321e+01 1.80627755094997e-01
7.09727272727273e-02 2.42830317238477e+01 1.78669469427333e-01
7.16454545454546e-02 2.39056532398036e+01 1.76724474343946e-01
7.23181818181818e-02 2.35341395308207e+01 1.74792945803258e-01
7.29909090909091e-02 2.31683994534253e+01 1.72875047182602e-01
7.36636363636364e-02 2.28083432807838e+01 1.70970929753435e-01
7.43363636363636e-02 2.24538826800988e+01 1.69080733189304e-01
7.50090909090909e-02 2.21049306915359e+01 1.67204586062312e-01
7.56818181818182e-02 2.17614017068697e+01 1.65342606217893e-01
7.63545454545455e-02 2.14232114479332e+01 1.63494901239213e-01
7.70272727272727e-02 2.10902769464961e+01 1.61661568879193e-01
7.77000000000000e-02 2.07625165237230e+01 1.59842697435204e-01
7.83727272727273e-02 2.04398497702992e+01 1.58038366107866e-01
7.90454545454545e-02 2.01221975262072e+01 1.56248645390887e-01
7.97181818181818e-02 1.98094818618082e+01 1.54473597442815e-01
8.03909090909091e-02 1.95016260585550e+01 1.52713276407129e-01
8.10636363636364e-02 1.91985545903193e+01 1.50967728718734e-01
8.17363636363636e-02 1.89001931044107e+01 1.49236993440391e-01
8.24090909090909e-02 1.86064684037929e+01 1.47521102592957e-01
8.30818181818182e-02 1.83173084291107e+01 1.45820081391195e-01
8.37545454545455e-02 1.80326422405924e+01 1.44133948554550e-01
8.44272727272727e-02 1.77524000010695e+01 1.42462716594475e-01
8.51000000000000e-02 1.74765129587014e+01 1.40806392058547e-01
8.57727272727273e-02 1.72049134302339e+01 1.39164975764137e-01
8.64454545454545e-02 1.69375347840129e+01 1.37538463059559e-01
8.71181818181818e-02 1.66743114240233e+01 1.35926844072782e-01
8.77909090909091e-02 1.64151787736669e+01 1.34330103920815e-01
8.84636363636364e-02 1.61600732600341e+01 1.32748222910083e-01
8.91363636363636e-02 1.59089322979594e+01 1.31181176762971e-01
8.98090909090909e-02 1.56616942750196e+01 1.29628936841058e-01
9.04818181818182e-02 1.54182985364064e+01 1.28091470294113e-01
9.11545454545455e-02 1.51786853697224e+01 1.26568740271213e-01
9.18272727272727e-02 1.49427959906589e+01 1.25060706114402e-01
9.25000000000000e-02 1.47105725284640e+01 1.23567323519145e-01
9.31727272727273e-02 1.44819580118432e+01 1.22088544687696e-01
9.38454545454546e-02 1.42568963546863e+01 1.20624318506130e-01
9.45181818181818e-02 1.40353323426070e+01 1.19174590712470e-01
9.51909090909091e-02 1.38172116192964e+01 1.17739304034498e-01
9.58636363636364e-02 1.36024806732770e+01 1.16318398321329e-01
9.65363636363636e-02 1.33910868245042e+01 1.14911810697380e-01
9.72090909090909e-02 1.31829782117156e+01 1.13519475714671e-01
9.78818181818182e-02 1.29781037796992e+01 1.12141325446175e-01
9.85545454545455e-02 1.27764132665155e+01 1.10777289630432e-01
9.92272727272727e-02 1.25778571914222e+01 1.09427295802945e-01
9.99000000000000e-02 1.23823868426483e+01 1.08091269378449e-01
1.00572727272727e-01 1.21899542652161e+01 1.06769133838578e-01
1.01245454545455e-01 1.20005122500936e+01 1.05460810767990e-01
1.01918181818182e-01 1.18140143214480e+01 1.04166219932178e-01
1.02590909090909e-01 1.16304147257205e+01 1.02885279402910e-01
1.03263636363636e-01 1.14496684197096e+01 1.01617905784944e-01
1.03936363636364e-01 1.12717310616239e+01 1.00364014194658e-01
1.04609090909091e-01 1.10965589980694e+01 9.91235182104139e-02
1.05281818181818e-01 1.09241092534153e+01 9.78963302570375e-02
1.05954545454545e-01 1.07543395212216e+01 9.66823615319883e-02
1.06627272727273e-01 1.05872081518602e+01 9.54815220015577e-02
1.07300000000000e-01 1.04226741429727e+01 9.42937205687825e-02
1.07972727272727e-01 1.02606971288190e+01 9.31188652439908e-02
1.08645454545455e-01 1.01012373721779e+01 9.19568631158981e-02
1.09318181818182e-01 9.94425575276883e+00 9.08076203429867e-02
1.09990909090909e-01 9.78971375827349e+00 8.96710423038021e-02
1.10663636363636e-01 9.63757347434417e+00 8.85470337500834e-02
1.11336363636364e-01 9.48779757695402e+00 8.74354987751235e-02
1.12009090909091e-01 9.34034932156457e+00 8.63363407600222e-02
1.12681818181818e-01 9.19519253416939e+00 8.52494626731618e-02
1.13354545454545e-01 9.05229160396888e+00 8.41747669972052e-02
1.14027272727273e-01 8.91161147306199e+00 8.31121557138323e-02
1.14700000000000e-01 8.77311762837646e+00 8.20615304281014e-02
1.15372727272727e-01 8.63677609273521e+00 8.10227924957753e-02
1.16045454545455e-01 8.50255341794118e+00 7.99958429882363e-02
1.16718181818182e-01 8.37041667513060e+00 7.89805826746307e-02
1.17390909090909e-01 8.24033344718221e+00 7.79769121333649e-02
1.18063636363636e-01 8.11227182033540e+00 7.69847318666226e-02
1.18736363636364e-01 7.98620037766385e+00 7.60039422642802e-02
1.19409090909091e-01 7.86208819004642e+00 7.50344435504154e-02
1.20081818181818e-01 7.73990480862446e+00 7.40761360178147e-02
1.20754545454545e-01 7.61962025855524e+00 7.31289199590536e-02
1.21427272727273e-01 7.50120503041733e+00 7.21926956451845e-02
1.22100000000000e-01 7.38463007339009e+00 7.12673634181920e-02
1.22772727272727e-01 7.26986678775769e+00 7.03528237864387e-02
1.23445454545455e-01 7.15688701901601e+00 6.94489773875795e-02
1.24118181818182e-01 7.04566304982633e+00 6.85557249660410e-02
1.24790909090909e-01 6.93616759360081e+00 6.76729674559881e-02
1.25463636363636e-01 6.82837378746861e+00 6.68006060672559e-02
1.26136363636364e-01 6.72225518671748e+00 6.59385422482932e-02
1.26809090909091e-01 6.61778575725971e+00 6.50866776353109e-02
1.27481818181818e-01 6.51493986928040e+00 6.42449142366960e-02
1.28154545454545e-01 6.41369229191951e+00 6.34131543697397e-02
1.28827272727273e-01 6.31401818609852e+00 6.25913006366271e-02
1.29500000000000e-01 6.21589309875878e+00 6.17792559933125e-02
1.30172727272727e-01 6.11929295656942e+00 6.09769238212425e-02
1.30845454545455e-01 6.02419406091311e+00 6.01842078907268e-02
1.31518181818182e-01 5.93057308116798e+00 5.94010123365734e-02
1.32190909090909e-01 5.83840704928977e+00 5.86272417199077e-02
1.32863636363636e-01 5.74767335390702e+00 5.78628010927813e-02
1.33536363636364e-01 5.65834973559389e+00 5.71075959621563e-02
1.34209090909091e-01 5.57041428057789e+00 5.63615322429074e-02
1.34881818181818e-01 5.48384541539131e+00 5.56245164033360e-02
1.35554545454545e-01 5.39862190235002e+00 5.48964554081382e-02
1.36227272727273e-01 5.31472283356114e+00 5.41772566937661e-02
1.36900000000000e-01 5.23212762605777e+00 5.34668282197491e-02
1.37572727272727e-01 5.15081601651599e+00 5.27650785226477e-02
1.38245454545455e-01 5.07076805699374e+00 5.20719166812693e-02
1.38918181818182e-01 4.99196410931714e+00 5.13872522921945e-02
1.39590909090909e-01 4.91438484050613e+00 5.07109955158299e-02
1.40263636363636e-01 4.83801121781617e+00 5.00430571250038e-02
1.40936363636364e-01 4.76282450472276e+00 4.93833484711170e-02
1.41609090909091e-01 4.68880625566206e+00 4.87317814415106e-02
1.42281818181818e-01 4.61593831152742e+00 4.80882685745997e-02
1.42954545454545e-01 4.54420279582976e+00 4.74527230091079e-02
1.43627272727273e-01 4.47358210968814e+00 4.68250584600485e-02
1.44300000000000e-01 4.40405892772281e+00 4.62051892569235e-02
1.44972727272727e-01 4.33561619361839e+00 4.55930303842913e-02
1.45645454545455e-01 4.26823711650646e+00 4.49884974495659e-02
1.46318181818182e-01 4.20190516627155e+00 4.43915066594623e-02
1.46990909090909e-01 4.13660406969011e+00 4.38019748542427e-02
1.47663636363636e-01 4.07231780626605e+00 4.32198195442403e-02
1.48336363636364e-01 4.00903060482315e+00 4.26449588787348e-02
1.49009090909091e-01 3.94672693910616e+00 4.20773116077832e-02
1.49681818181818e-01 3.88539152398892e+00 4.15167971735211e-02
1.50354545454545e-01 3.82500931221680e+00 4.09633356653850e-02
1.51027272727273e-01 3.76556549021616e+00 4.04168477974306e-02
1.51700000000000e-01 3.70704547462856e+00 3.98772549366848e-02
1.52372727272727e-01 3.64943490858379e+00 3.93444791336012e-02
1.53045454545455e-01 3.59271965863169e+00 3.88184430927648e-02
1.53718181818182e-01 3.53688581081468e+00 3.82990701508351e-02
1.54390909090909e-01 3.48191966740978e+00 3.77862843019271e-02
1.55063636363636e-01 3.42780774343022e+00 3.72800102250049e-02
1.55736363636364e-01 3.37453676373601e+00 3.67801732556975e-02
1.56409090909091e-01 3.32209365935268e+00 3.62866993524570e-02
1.57081818181818e-01 3.27046556427874e+00 3.57995151690841e-02
1.57754545454545e-01 3.21963981272398e+00 3.53185480155004e-02
1.58427272727273e-01 3.16960393560217e+00 3.48437258367847e-02
1.59100000000000e-01 3.12034565760700e+00 3.43749772341225e-02
1.59772727272727e-01 3.07185289408077e+00 3.39122314876064e-02
1.60445454545455e-01 3.02411374841408e+00 3.34554185299097e-02
1.61118181818182e-01 2.97711650875798e+00 3.30044689260220e-02
1.61790909090909e-01 2.93084964527548e+00 3.25593138919640e-02
1.62463636363636e-01 2.88530180720213e+00 3.21198853152612e-02
1.63136363636364e-01 2.84046182039782e+00 3.16861157297128e-02
1.63809090909091e-01 2.79631868426446e+00 3.12579382855930e-02
1.64481818181818e-01 2.75286156905812e+00 3.08352868073477e-02
1.65154545454545e-01 2.71007981354938e+00 3.04180957594092e-02
1.65827272727273e-01 2.66796292208639e+00 3.00063002271113e-02
1.66500000000000e-01 2.62650056212840e+00 2.95998359320713e-02
1.67172727272727e-01 2.58568256161452e+00 2.91986392491842e-02
1.67845454545455e-01 2.54549890676134e+00 2.88026471831887e-02
1.68518181818182e-01 2.50593973930923e+00 2.84117973502973e-02
1.69190909090909e-01 2.46699535420420e+00 2.80260279918969e-02
1.69863636363636e-01 2.42865619712774e+00 2.76452779897804e-02
1.70536363636364e-01 2.39091286242369e+00 2.72694868437435e-02
1.71209090909091e-01 2.35375609051638e+00 2.68985946454947e-02
1.71881818181818e-01 2.31717676564760e+00 2.65325421246074e-02
1.72554545454545e-01 2.28116591389580e+00 2.61712706188473e-02
1.73227272727273e-01 2.24571470071560e+00 2.58147220569973e-02
1.73900000000000e-01 2.21081442885777e+00 2.54628389700505e-02
1.74572727272727e-01 2.17645653615785e+00 2.51155645038015e-02
1.75245454545455e-01 2.14263259367184e+00 2.47728423981354e-02
1.75918181818182e-01 2.10933430336899e+00 2.44346169705482e-02
1.76590909090909e-01 2.07655349617690e+00 2.41008331260770e-02
1.77263636363636e-01 2.04428212990546e+00 2.37714363685555e-02
1.77936363636364e-01 2.01251228749229e+00 2.34463727808543e-02
1.78609090909091e-01 1.98123617483917e+00 2.31255890021359e-02
1.79281818181818e-01 1.95044611890684e+00 2.28090322644889e-02
1.79954545454545e-01 1.92013456603876e+00 2.24966503672548e-02
1.80627272727273e-01 1.89029407989909e+00 2.21883916617014e-02
1.81300000000000e-01 1.86091733971881e+00 2.18842050590741e-02
1.81972727272727e-01 1.83199713843699e+00 2.15840400398505e-02
1.82645454545455e-01 1.80352638112341e+00 2.12878466355362e-02
1.83318181818182e-01 1.77549808304475e+00 2.09955754140008e-02
1.83990909090909e-01 1.74790536801631e+00 2.07071774865811e-02
1.84663636363636e-01 1.72074146665690e+00 2.04226045163215e-02
1.85336363636364e-01 1.69399971490464e+00 2.01418087006385e-02
1.86009090909091e-01 1.66767355220330e+00 1.98647427515637e-02
1.86681818181818e-01 1.64175651989830e+00 1.95913599249660e-02
1.87354545454545e-01 1.61624225981891e+00 1.93216139983967e-02
1.88027272727273e-01 1.59112451254958e+00 1.90554592575091e-02
1.88700000000000e-01 1.56639711595128e+00 1.87928505017556e-02
1.89372727272727e-01 1.54205400359896e+00 1.85337430511173e-02
1.90045454545455e-01 1.51808920344757e+00 1.82780927301782e-02
1.90718181818182e-01 1.49449683621069e+00 1.80258558551566e-02
1.91390909090909e-01 1.47127111397093e+00 1.77769892388924e-02
1.92063636363636e-01 1.44840633871292e+00 1.75314501968134e-02
1.92736363636364e-01 1.42589690106828e+00 1.72891965317884e-02
1.93409090909091e-01 1.40373727879479e+00 1.70501865170145e-02
1.94081818181818e-01 1.38192203542605e+00 1.68143789193389e-02
1.94754545454545e-01 1.36044581907275e+00 1.65817329801823e-02
1.95427272727273e-01 1.33930336097296e+00 1.63522084035692e-02
1.96100000000000e-01 1.31848947424571e+00 1.61257653600706e-02
1.96772727272727e-01 1.29799905257731e+00 1.59023644916285e-02
1.97445454545455e-01 1.27782706909367e+00 1.56819668976754e-02
1.98118181818182e-01 1.25796857500041e+00 1.54645341237230e-02
1.98790909090909e-01 1.23841869841157e+00 1.52500281647756e-02
1.99463636363636e-01 1.21917264311624e+00 1.50384114695814e-02
2.00136363636364e-01 1.20022568751768e+00 1.48296469274453e-02
2.00809090909091e-01 1.18157318335770e+00 1.46236978534406e-02
2.01481818181818e-01 1.16321055457992e+00 1.44205280070282e-02
2.02154545454545e-01 1.14513329631653e+00 1.42201015756607e-02
2.02827272727273e-01 1.12733697367231e+00 1.40223831642793e-02
2.03500000000000e-01 1.10981722067397e+00 1.38273377979546e-02
2.04172727272727e-01 1.09256973916575e+00 1.36349309252806e-02
2.04845454545455e-01 1.07559029785624e+00 1.34451284063139e-02
2.05518181818182e-01 1.05887473117774e+00 1.32578965025722e-02
2.06190909090909e-01 1.04241893829895e+00 1.30732018792880e-02
2.06863636363636e-01 1.02621888208796e+00 1.28910116083703e-02
2.07536363636364e-01 1.01027058821579e+00 1.27112931569572e-02
2.08209090909091e-01 9.94570144086207e-01 1.25340143746640e-02
2.08881818181818e-01 9.79113697878756e-01 1.23591435084482e-02
2.09554545454545e-01 9.63897457692607e-01 1.21866491885387e-02
2.10227272727273e-01 9.48917690526348e-01 1.20165004192547e-02
2.10900000000000e-01 9.34170721392507e-01 1.18486665806879e-02
2.11572727272727e-01 9.19652932388870e-01 1.16831174310285e-02
2.12245454545455e-01 9.05360761893243e-01 1.15198230961100e-02
