Energy (eV)          EEDF (eV^-(3/2))     First Anisotropy
4.51219512195122e-02 3.20436794823514e-02 1.87627771303625e-05
1.35365853658537e-01 3.17748819059527e-02 3.09568000070318e-05
2.25609756097561e-01 3.15083391306440e-02 4.07979863282135e-05
3.15853658536585e-01 3.12440322430399e-02 4.82328535741098e-05
4.06097560975610e-01 3.09819424864550e-02 5.43993266836199e-05
4.96341463414634e-01 3.07220512633260e-02 5.97286018173119e-05
5.86585365853659e-01 3.04643401307029e-02 6.44442968593534e-05
6.76829268292683e-01 3.02087908014738e-02 6.86817274094123e-05
7.67073170731707e-01 2.99553851409680e-02 7.25308202976140e-05
8.57317073170732e-01 2.97041051674621e-02 7.60552624747330e-05
9.47560975609756e-01 2.94549330496303e-02 7.93022930519418e-05
1.03780487804878e+00 2.92078511055191e-02 8.23082094580666e-05
1.12804878048780e+00 2.89628418017751e-02 8.51016898592722e-05
1.21829268292683e+00 2.87198877527461e-02 8.77059105025491e-05
1.30853658536585e+00 2.84789717178869e-02 9.01399551768394e-05
1.39878048780488e+00 2.82400765995789e-02 9.24197868697402e-05
1.48902439024390e+00 2.80031854472554e-02 9.45589392798264e-05
1.57926829268293e+00 2.77682814506161e-02 9.65690209965430e-05
1.66951219512195e+00 2.75353479403976e-02 9.84600905538008e-05
1.75975609756098e+00 2.73043683858614e-02 1.00240941295764e-04
1.85000000000000e+00 2.70753263976942e-02 1.01919321834838e-04
1.94024390243902e+00 2.68482057226208e-02 1.03502108869044e-04
2.03048780487805e+00 2.66229902437145e-02 1.04995443856368e-04
2.12073170731707e+00 2.63996639781981e-02 1.06404842872181e-04
2.21097560975610e+00 2.61782110795615e-02 1.07735286273210e-04
2.30121951219512e+00 2.59586158330826e-02 1.08991292265602e-04
2.39146341463415e+00 2.57408626558635e-02 1.10176977278249e-04
2.48170731707317e+00 2.55249360948580e-02 1.11296106352453e-04
2.57195121951219e+00 2.53108208284526e-02 1.12352135889943e-04
2.66219512195122e+00 2.50985016626267e-02 1.13348249852335e-04
2.75243902439024e+00 2.48879635308135e-02 1.14287390141056e-04
2.84268292682927e+00 2.46791914921010e-02 1.15172282649513e-04
2.93292682926829e+00 2.44721707324269e-02 1.16005460072269e-04
3.02317073170732e+00 2.42668865612158e-02 1.16789281675215e-04
3.11341463414634e+00 2.40633244111216e-02 1.17525950089195e-04
3.20365853658537e+00 2.38614698363692e-02 1.18217526011358e-04
3.29390243902439e+00 2.36613085136597e-02 1.18865941447201e-04
3.38414634146341e+00 2.34628262391801e-02 1.19473011396661e-04
3.47439024390244e+00 2.32660089282624e-02 1.20040443818417e-04
3.56463414634146e+00 2.30708426138429e-02 1.20569848497429e-04
3.65487804878049e+00 2.28773134471456e-02 1.21062745256643e-04
3.74512195121951e+00 2.26854076949902e-02 1.21520571308881e-04
3.83536585365854e+00 2.24951117393929e-02 1.21944687426087e-04
3.92560975609756e+00 2.23064120766093e-02 1.22336383884897e-04
4.01585365853659e+00 2.21192953157071e-02 1.22696885449377e-04
4.10609756097561e+00 2.19337481790307e-02 1.23027356232132e-04
4.19634146341463e+00 2.17497574998177e-02 1.23328904110302e-04
4.28658536585366e+00 2.15673102217584e-02 1.23602584430105e-04
4.37682926829268e+00 2.13863933976539e-02 1.23849403397071e-04
4.46707317073171e+00 2.12069941897527e-02 1.24070321430282e-04
4.55731707317073e+00 2.10290998675622e-02 1.24266256238861e-04
4.64756097560976e+00 2.08526978073818e-02 1.24438085355634e-04
4.73780487804878e+00 2.06777754910370e-02 1.24586648479432e-04
4.82804878048780e+00 2.05043205061110e-02 1.24712749873343e-04
4.91829268292683e+00 2.03323205439256e-02 1.24817160582675e-04
5.00853658536585e+00 2.01617633990550e-02 1.24900620216308e-04
5.09878048780488e+00 1.99926369681282e-02 1.24963838608939e-04
5.18902439024390e+00 1.98249292499760e-02 1.25007497589056e-04
5.27926829268293e+00 1.96586283437575e-02 1.25032252625803e-04
5.36951219512195e+00 1.94937224484627e-02 1.25038734110330e-04
5.45975609756098e+00 1.93301998617757e-02 1.25027548562085e-04
5.55000000000000e+00 1.91680489801528e-02 1.24999279967190e-04
5.64024390243902e+00 1.90072582970771e-02 1.24954491033143e-04
5.73048780487805e+00 1.88478164025540e-02 1.24893724128098e-04
5.82073170731707e+00 1.86897119820312e-02 1.24817502172806e-04
5.91097560975610e+00 1.85329338164188e-02 1.24726329677632e-04
6.00121951219512e+00 1.83774707804581e-02 1.24620693720356e-04
6.09146341463415e+00 1.82233118422143e-02 1.24501064645577e-04
6.18170731707317e+00 1.80704460620474e-02 1.24367896734590e-04
6.27195121951219e+00 1.79188625925858e-02 1.24221629025679e-04
6.36219512195122e+00 1.77685506771961e-02 1.24062686091458e-04
6.45243902439024e+00 1.76194996494763e-02 1.23891478566411e-04
6.54268292682927e+00 1.74716989322748e-02 1.23708403656685e-04
6.63292682926829e+00 1.73251380376236e-02 1.23513845800839e-04
6.72317073170732e+00 1.71798065653004e-02 1.23308177298930e-04
6.81341463414634e+00 1.70356942023249e-02 1.23091758714639e-04
6.90365853658537e+00 1.68927907220208e-02 1.22864939267444e-04
6.99390243902439e+00 1.67510859839171e-02 1.22628057373594e-04
7.08414634146341e+00 1.66105699323937e-02 1.22381441163368e-04
7.17439024390244e+00 1.64712325961809e-02 1.22125408790122e-04
7.26463414634146e+00 1.63330640874640e-02 1.21860268734677e-04
7.35487804878049e+00 1.61960546017567e-02 1.21586320254764e-04
7.44512195121951e+00 1.60601944166225e-02 1.21303853816375e-04
7.53536585365854e+00 1.59254738911805e-02 1.21013151293569e-04
7.62560975609756e+00 1.57918834654233e-02 1.20714486363489e-04
7.71585365853659e+00 1.56594136593664e-02 1.20408124688421e-04
7.80609756097561e+00 1.55280550728936e-02 1.20094324278029e-04
7.89634146341463e+00 1.53977983845661e-02 1.19773335838614e-04
7.98658536585366e+00 1.52686343511380e-02 1.19445402948151e-04
8.07682926829268e+00 1.51405538067426e-02 1.19110762233090e-04
8.16707317073171e+00 1.50135476627204e-02 1.18769643677648e-04
8.25731707317073e+00 1.48876069064895e-02 1.18422270922947e-04
8.34756097560976e+00 1.47627226010706e-02 1.18068861403362e-04
8.43780487804878e+00 1.46388858843058e-02 1.17709626486150e-04
8.52804878048780e+00 1.45160879686728e-02 1.17344771738266e-04
8.61829268292683e+00 1.43943201402137e-02 1.16974497185131e-04
8.70853658536585e+00 1.42735737580673e-02 1.16598997416780e-04
8.79878048780488e+00 1.41538402537208e-02 1.16218461698387e-04
8.88902439024390e+00 1.40351111308124e-02 1.15833074202505e-04
8.97926829268293e+00 1.39173779641128e-02 1.15443014234934e-04
9.06951219512195e+00 1.38006323990679e-02 1.15048456317167e-04
9.15975609756098e+00 1.36848661510795e-02 1.14649570273814e-04
9.25000000000000e+00 1.35700710052995e-02 1.14246521436477e-04
9.34024390243902e+00 1.34562388156608e-02 1.13839470842504e-04
9.43048780487805e+00 1.33433615044294e-02 1.13428575298619e-04
9.52073170731707e+00 1.32314310615143e-02 1.13013987449949e-04
9.61097560975610e+00 1.31204395442537e-02 1.12595855960328e-04
9.70121951219512e+00 1.30103790764930e-02 1.12174325688474e-04
9.79146341463415e+00 1.29012418481462e-02 1.11749537736626e-04
9.88170731707317e+00 1.27930201145334e-02 1.11321629504810e-04
9.97195121951219e+00 1.26857061961611e-02 1.10890734933330e-04
1.00621951219512e+01 1.25792924775251e-02 1.10456984412237e-04
1.01524390243902e+01 1.24737714076463e-02 1.10020504957760e-04
1.02426829268293e+01 1.23691354985630e-02 1.09581420502664e-04
1.03329268292683e+01 1.22653773251255e-02 1.09139851732524e-04
1.04231707317073e+01 1.21624895244703e-02 1.08695916257800e-04
1.05134146341463e+01 1.20604647954969e-02 1.08249728697744e-04
1.06036585365854e+01 1.19592958983500e-02 1.07801400761504e-04
1.06939024390244e+01 1.18589756539054e-02 1.07351041326467e-04
1.07841463414634e+01 1.17594969432613e-02 1.06898756514032e-04
1.08743902439024e+01 1.16608527072321e-02 1.06444649762871e-04
1.09646341463415e+01 1.15630359458486e-02 1.05988821899809e-04
1.10548780487805e+01 1.14660397178602e-02 1.05531371208416e-04
1.11451219512195e+01 1.13698571402430e-02 1.05072393495457e-04
1.12353658536585e+01 1.12744813877111e-02 1.04611982155026e-04
1.13256097560976e+01 1.11799056922323e-02 1.04150228230788e-04
1.14158536585366e+01 1.10861233425482e-02 1.03687220476431e-04
1.15060975609756e+01 1.09931276836974e-02 1.03223045414010e-04
1.15963414634146e+01 1.09009121165437e-02 1.02757787390579e-04
1.16865853658537e+01 1.08094700973073e-02 1.02291528633090e-04
1.17768292682927e+01 1.07187951371010e-02 1.01824349301639e-04
1.18670731707317e+01 1.06288808014695e-02 1.01356327541097e-04
1.19573170731707e+01 1.05397207099326e-02 1.00887539531184e-04
1.20475609756098e+01 1.04513085355328e-02 1.00418059535105e-04
1.21378048780488e+01 1.03636380043859e-02 9.99479599467272e-05
1.22280487804878e+01 1.02767028952361e-02 9.94773113363760e-05
1.23182926829268e+01 1.01904970390147e-02 9.90061824953313e-05
1.24085365853659e+01 1.01050143184019e-02 9.85346404790142e-05
1.24987804878049e+01 1.00202486673927e-02 9.80627506489500e-05
1.25890243902439e+01 9.93619407086704e-03 9.75905767135549e-05
1.26792682926829e+01 9.85284456416224e-03 9.71181807677619e-05
1.27695121951220e+01 9.77019423265019e-03 9.66456233315444e-05
1.28597560975610e+01 9.68823721131747e-03 9.61729633873604e-05
1.29500000000000e+01 9.60696768434917e-03 9.57002585970172e-05
1.30402439024390e+01 9.52637988410023e-03 9.52275647920581e-05
1.31304878048780e+01 9.44646809254886e-03 9.47549363734877e-05
1.32207317073171e+01 9.36722663901303e-03 9.42824267154186e-05
1.33109756097561e+01 9.28864990037912e-03 9.38100876395429e-05
1.34012195121951e+01 9.21073230070286e-03 9.33379696342290e-05
1.34914634146341e+01 9.13346831081365e-03 9.28661218854300e-05
1.35817073170732e+01 9.05685244792222e-03 9.23945923067693e-05
1.36719512195122e+01 8.98087927523154e-03 9.19234275688529e-05
1.37621951219512e+01 8.90554340155102e-03 9.14526731277982e-05
1.38524390243902e+01 8.83083948091397e-03 9.09823732530367e-05
1.39426829268293e+01 8.75676221219817e-03 9.05125710543982e-05
1.40329268292683e+01 8.68330633874979e-03 9.00433085084934e-05
1.41231707317073e+01 8.61046664801027e-03 8.95746264844375e-05
1.42134146341463e+01 8.53823797114650e-03 8.91065647689147e-05
1.43036585365854e+01 8.46661518268399e-03 8.86391620906054e-05
1.43939024390244e+01 8.39559320014319e-03 8.81724561440097e-05
1.44841463414634e+01 8.32516698367878e-03 8.77064836126755e-05
1.45743902439024e+01 8.25533153572208e-03 8.72412801918551e-05
1.46646341463415e+01 8.18608190062639e-03 8.67768806105892e-05
1.47548780487805e+01 8.11741316431534e-03 8.63133186532580e-05
1.48451219512195e+01 8.04932045393416e-03 8.58506271806516e-05
1.49353658536585e+01 7.98179893750381e-03 8.53888381503984e-05
1.50256097560976e+01 7.91484382357828e-03 8.49279826369878e-05
1.51158536585366e+01 7.84845036090452e-03 8.44680908513921e-05
1.52060975609756e+01 7.78261383808523e-03 8.40091921600837e-05
1.52963414634146e+01 7.71732958324455e-03 8.35513151036514e-05
1.53865853658537e+01 7.65259296369653e-03 8.30944874149734e-05
1.54768292682927e+01 7.58839938561643e-03 8.26387360369619e-05
1.55670731707317e+01 7.52474429371465e-03 8.21840871398985e-05
1.56573170731707e+01 7.46162317091357e-03 8.17305661383449e-05
1.57475609756098e+01 7.39903153802693e-03 8.12781977076763e-05
1.58378048780488e+01 7.33696495344203e-03 8.08270058002246e-05
1.59280487804878e+01 7.27541901280452e-03 8.03770136610441e-05
1.60182926829268e+01 7.21438934870589e-03 7.99282438433271e-05
1.61085365853659e+01 7.15387163037350e-03 7.94807182234606e-05
1.61987804878049e+01 7.09386156336332e-03 7.90344580157333e-05
1.62890243902439e+01 7.03435488925513e-03 7.85894837867148e-05
1.63792682926829e+01 6.97534738535039e-03 7.81458154693170e-05
1.64695121951220e+01 6.91683486437255e-03 7.77034723765241e-05
1.65597560975610e+01 6.85881317416991e-03 7.72624732148158e-05
1.66500000000000e+01 6.80127819742101e-03 7.68228362100060e-05
1.67402439024390e+01 6.74422585100300e-03 7.63845787797401e-05
1.68304878048780e+01 6.68765208672781e-03 7.59477177740139e-05
1.69207317073171e+01 6.63155289002125e-03 7.55122697186155e-05
1.70109756097561e+01 6.57592427998529e-03 7.50782504787001e-05
1.71012195121951e+01 6.52076230911556e-03 7.46456753874572e-05
1.71914634146341e+01 6.46606306302124e-03 7.42145592575830e-05
1.72817073170732e+01 6.41182266014729e-03 7.37849163925125e-05
1.73719512195122e+01 6.35803725149899e-03 7.33567605974057e-05
1.74621951219512e+01 6.30470302036881e-03 7.29301051899035e-05
1.75524390243902e+01 6.25181618206560e-03 7.25049630106382e-05
1.76426829268293e+01 6.19937298364597e-03 7.20813464335192e-05
1.77329268292683e+01 6.14736970364803e-03 7.16592673758104e-05
1.78231707317073e+01 6.09580265182726e-03 7.12387373079834e-05
1.79134146341463e+01 6.04466816889468e-03 7.08197672633537e-05
1.80036585365854e+01 5.99396262625717e-03 7.04023678475248e-05
1.80939024390244e+01 5.94368242575996e-03 6.99865492476296e-05
1.81841463414634e+01 5.89382399943132e-03 6.95723212413674e-05
1.82743902439024e+01 5.84438380922935e-03 6.91596932058559e-05
1.83646341463415e+01 5.79535834679095e-03 6.87486741262976e-05
1.84548780487805e+01 5.74674413318281e-03 6.83392726044680e-05
1.85451219512195e+01 5.69853771865460e-03 6.79314968670322e-05
1.86353658536585e+01 5.65073568239406e-03 6.75253547736479e-05
1.87256097560976e+01 5.60333463228440e-03 6.71208538249313e-05
1.88158536585366e+01 5.55633120466348e-03 6.67180011702815e-05
1.89060975609756e+01 5.50972206408520e-03 6.63168036155090e-05
1.89963414634146e+01 5.46350390308275e-03 6.59172676303180e-05
1.90865853658537e+01 5.41767344193391e-03 6.55193993556143e-05
1.91768292682927e+01 5.37222742842835e-03 6.51232046106912e-05
1.92670731707317e+01 5.32716263763680e-03 6.47286889002601e-05
1.93573170731707e+01 5.28247587168226e-03 6.43358574213237e-05
1.94475609756098e+01 5.23816395951301e-03 6.39447150699213e-05
1.95378048780488e+01 5.19422375667765e-03 6.35552664477370e-05
1.96280487804878e+01 5.15065214510191e-03 6.31675158685673e-05
1.97182926829268e+01 5.10744603286741e-03 6.27814673646604e-05
1.98085365853659e+01 5.06460235399225e-03 6.23971246929282e-05
1.98987804878049e+01 5.02211806821346e-03 6.20144913410262e-05
1.99890243902439e+01 4.97999016077123e-03 6.16335705333199e-05
2.00792682926829e+01 4.93821564219497e-03 6.12543652367301e-05
2.01695121951219e+01 4.89679154809121e-03 6.08768781664482e-05
2.02597560975610e+01 4.85571493893322e-03 6.05011117915470e-05
2.03500000000000e+01 4.81498289985240e-03 6.01270684126721e-05
2.04402439024390e+01 4.77459254023475e-03 5.97547499494723e-05
2.05304878048780e+01 4.73454099411008e-03 5.93841580918145e-05
2.06207317073171e+01 4.69482541935004e-03 5.90152944530321e-05
2.07109756097561e+01 4.65544299766738e-03 5.86481603518983e-05
2.08012195121951e+01 4.61639093441600e-03 5.82827568924506e-05
2.08914634146341e+01 4.57766645839262e-03 5.79190849688595e-05
2.09817073170732e+01 4.53926682164011e-03 5.75571452701950e-05
2.10719512195122e+01 4.50118929925252e-03 5.71969382851117e-05
2.11621951219512e+01 4.46343118918173e-03 5.68384643064330e-05
2.12524390243902e+01 4.42598981204564e-03 5.64817234356502e-05
2.13426829268293e+01 4.38886251093811e-03 5.61267155873320e-05
2.14329268292683e+01 4.35204665124038e-03 5.57734404934376e-05
2.15231707317073e+01 4.31553962043414e-03 5.54218977075587e-05
2.16134146341463e+01 4.27933882791609e-03 5.50720866090675e-05
2.17036585365854e+01 4.24344170481417e-03 5.47240064071894e-05
2.17939024390244e+01 4.20784570380523e-03 5.43776561449934e-05
2.18841463414634e+01 4.17254829893429e-03 5.40330347033000e-05
2.19743902439024e+01 4.13754698543525e-03 5.36901408045219e-05
2.20646341463415e+01 4.10283927955320e-03 5.33489730164240e-05
2.21548780487805e+01 4.06842271836815e-03 5.30095297558089e-05
2.22451219512195e+01 4.03429485962024e-03 5.26718092921398e-05
2.23353658536585e+01 4.00045328153642e-03 5.23358097510627e-05
2.24256097560976e+01 3.96689558265866e-03 5.20015291178845e-05
2.25158536585366e+01 3.93361938167350e-03 5.16689652410029e-05
2.26060975609756e+01 3.90062231724305e-03 5.13381158352352e-05
2.26963414634146e+01 3.86790204783745e-03 5.10089784850908e-05
2.27865853658537e+01 3.83545625156873e-03 5.06815506479798e-05
2.28768292682927e+01 3.80328262602598e-03 5.03558296573686e-05
2.29670731707317e+01 3.77137888811203e-03 5.00318127258671e-05
2.30573170731707e+01 3.73974277388141e-03 4.97094969482467e-05
2.31475609756098e+01 3.70837203837969e-03 4.93888793044220e-05
2.32378048780488e+01 3.67726445548420e-03 4.90699566623568e-05
2.33280487804878e+01 3.64641781774603e-03 4.87527257809154e-05
2.34182926829268e+01 3.61582993623341e-03 4.84371833126653e-05
2.35085365853659e+01 3.58549864037636e-03 4.81233258066179e-05
2.35987804878049e+01 3.55542177781267e-03 4.78111497109242e-05
2.36890243902439e+01 3.52559721423518e-03 4.75006513755091e-05
2.37792682926829e+01 3.49602283324030e-03 4.71918270546619e-05
2.38695121951219e+01 3.46669653617784e-03 4.68846729095726e-05
2.39597560975610e+01 3.43761624200209e-03 4.65791850108191e-05
2.40500000000000e+01 3.40877988712412e-03 4.62753593878284e-05
2.41402439024390e+01 3.38018542514752e-03 4.59731918893257e-05
2.42304878048780e+01 3.35183082707919e-03 4.56726782806949e-05
2.43207317073171e+01 3.32371408082686e-03 4.53738143427292e-05
2.44109756097561e+01 3.29583319117666e-03 4.50765957286118e-05
2.45012195121951e+01 3.26818617965149e-03 4.47810180148564e-05
2.45914634146341e+01 3.24077108437069e-03 4.44870767034799e-05
2.46817073170732e+01 3.21358595991076e-03 4.41947672241286e-05
2.47719512195122e+01 3.18662887716735e-03 4.39040849361612e-05
2.48621951219512e+01 3.15989792321835e-03 4.36150251306943e-05
2.49524390243902e+01 3.13339120118815e-03 4.33275830326024e-05
2.50426829268293e+01 3.10710683011302e-03 4.30417538024905e-05
2.51329268292683e+01 3.08104294480768e-03 4.27575325386169e-05
2.52231707317073e+01 3.05519769573287e-03 4.24749142787831e-05
2.53134146341463e+01 3.02956924886417e-03 4.21938940021888e-05
2.54036585365854e+01 3.00415578556182e-03 4.19144666312395e-05
2.54939024390244e+01 2.97895550244167e-03 4.16366270333355e-05
2.55841463414634e+01 2.95396661124721e-03 4.13603700226167e-05
2.56743902439024e+01 2.92918733872270e-03 4.10856903616689e-05
2.57646341463415e+01 2.90461592648727e-03 4.08125827632099e-05
2.58548780487805e+01 2.88025063091022e-03 4.05410418917310e-05
2.59451219512195e+01 2.85608972298722e-03 4.02710623651079e-05
2.60353658536585e+01 2.83213148821767e-03 4.00026387561785e-05
2.61256097560976e+01 2.80837422648301e-03 3.97357655942940e-05
2.62158536585366e+01 2.78481625192609e-03 3.94704373668460e-05
2.63060975609756e+01 2.76145589283150e-03 3.92066485207473e-05
2.63963414634146e+01 2.73829149150701e-03 3.89443934638953e-05
2.64865853658537e+01 2.71532140416589e-03 3.86836665666045e-05
2.65768292682927e+01 2.69254400081026e-03 3.84244621630037e-05
2.66670731707317e+01 2.66995766511545e-03 3.81667745524129e-05
2.67573170731707e+01 2.64756079431528e-03 3.79105980006920e-05
2.68475609756098e+01 2.62535179908834e-03 3.76559267415630e-05
2.69378048780488e+01 2.60332910344519e-03 3.74027549778968e-05
2.70280487804878e+01 2.58149114461656e-03 3.71510768829866e-05
2.71182926829268e+01 2.55983637294240e-03 3.69008866017922e-05
2.72085365853659e+01 2.53836325176197e-03 3.66521782521529e-05
2.72987804878049e+01 2.51707025730477e-03 3.64049459259850e-05
2.73890243902439e+01 2.49595587858238e-03 3.61591836904513e-05
2.74792682926829e+01 2.47501861728131e-03 3.59148855891063e-05
2.75695121951220e+01 2.45425698765660e-03 3.56720456430149e-05
2.76597560975610e+01 2.43366951642644e-03 3.54306578518580e-05
2.77500000000000e+01 2.41325474266761e-03 3.51907162260045e-05
2.78402439024390e+01 2.39301121763944e-03 3.49522146940039e-05
2.79304878048780e+01 2.37293750489956e-03 3.47151471662428e-05
2.80207317073171e+01 2.35303217998193e-03 3.44795075995330e-05
2.81109756097561e+01 2.33329383036961e-03 3.42452899023581e-05
2.82012195121951e+01 2.31372105539453e-03 3.40124879679635e-05
2.82914634146341e+01 2.29431246613808e-03 3.37810956753044e-05
2.83817073170732e+01 2.27506668533256e-03 3.35511068899787e-05
2.84719512195122e+01 2.25598234726346e-03 3.33225154651463e-05
