Energy (eV)          EEDF (eV^-(3/2))     First Anisotropy
1.24468085106383e-02 1.81125029458770e-01 9.89965750478034e-05
3.73404255319149e-02 1.79794895321407e-01 1.63420625778676e-04
6.22340425531915e-02 1.78474529336079e-01 2.15599057533493e-04
8.71276595744681e-02 1.77163859766362e-01 2.55157541309996e-04
1.12021276595745e-01 1.75862815406651e-01 2.88082115919636e-04
1.36914893617021e-01 1.74571325572546e-01 3.16637570251621e-04
1.61808510638298e-01 1.73289320096977e-01 3.41996693572213e-04
1.86702127659574e-01 1.72016729329328e-01 3.64868145511842e-04
2.11595744680851e-01 1.70753484130480e-01 3.85722214092469e-04
2.36489361702128e-01 1.69499515869055e-01 4.04891494227303e-04
2.61382978723404e-01 1.68254756417686e-01 4.22622340867377e-04
2.86276595744681e-01 1.67019138149315e-01 4.39103786290318e-04
3.11170212765957e-01 1.65792593933519e-01 4.54484978853103e-04
3.36063829787234e-01 1.64575057132866e-01 4.68886289517825e-04
3.60957446808511e-01 1.63366461599288e-01 4.82406700947145e-04
3.85851063829787e-01 1.62166741670492e-01 4.95128902341602e-04
4.10744680851064e-01 1.60975832166394e-01 5.07122908876181e-04
4.35638297872340e-01 1.59793668385572e-01 5.18448699022734e-04
4.60531914893617e-01 1.58620186101757e-01 5.29158178625329e-04
4.85425531914894e-01 1.57455321560337e-01 5.39296671611734e-04
5.10319148936170e-01 1.56299011474902e-01 5.48904070441614e-04
5.35212765957447e-01 1.55151193023795e-01 5.58015737161370e-04
5.60106382978723e-01 1.54011803846710e-01 5.66663218484431e-04
5.85000000000000e-01 1.52880782041294e-01 5.74874820268580e-04
6.09893617021277e-01 1.51758066157933e-01 5.82676072892007e-04
6.34787234042553e-01 1.50643595202088e-01 5.90090113737535e-04
6.59680851063830e-01 1.49537308625192e-01 5.97138003531222e-04
6.84574468085106e-01 1.48439146323334e-01 6.03838988897528e-04
7.09468085106383e-01 1.47349048633987e-01 6.10210723722191e-04
7.34361702127659e-01 1.46266956332774e-01 6.16269456125913e-04
7.59255319148936e-01 1.45192810630243e-01 6.22030187577629e-04
7.84148936170213e-01 1.44126553168680e-01 6.27506809100391e-04
8.09042553191489e-01 1.43068126018933e-01 6.32712218510539e-04
8.33936170212766e-01 1.42017471677268e-01 6.37658421850174e-04
8.58829787234043e-01 1.40974533062241e-01 6.42356621566286e-04
8.83723404255319e-01 1.39939253511602e-01 6.46817293513843e-04
9.08617021276596e-01 1.38911576779212e-01 6.51050254484377e-04
9.33510638297872e-01 1.37891447031990e-01 6.55064721661936e-04
9.58404255319149e-01 1.36878808846879e-01 6.58869365168179e-04
9.83297872340426e-01 1.35873607207831e-01 6.62472354665139e-04
1.00819148936170e+00 1.34875787502826e-01 6.65881401150690e-04
1.03308510638298e+00 1.33885295518943e-01 6.69103791912856e-04
1.05797872340426e+00 1.32902077451821e-01 6.72146428080537e-04
1.08287234042553e+00 1.31926079874424e-01 6.75015851923158e-04
1.10776595744681e+00 1.30957249761522e-01 6.77718270443291e-04
1.13265957446808e+00 1.29995534477258e-01 6.80259582738551e-04
1.15755319148936e+00 1.29040881780669e-01 6.82645404704873e-04
1.18244680851064e+00 1.28093239797663e-01 6.84881085987990e-04
1.20734042553191e+00 1.27152557043481e-01 6.86971723650984e-04
1.23223404255319e+00 1.26218782419119e-01 6.88922187281730e-04
1.25712765957447e+00 1.25291865185494e-01 6.90737129775158e-04
1.28202127659574e+00 1.24371754983826e-01 6.92420998243168e-04
1.30691489361702e+00 1.23458401825173e-01 6.93978049559713e-04
1.33180851063830e+00 1.22551756094564e-01 6.95412364435982e-04
1.35670212765957e+00 1.21651768527543e-01 6.96727855464450e-04
1.38159574468085e+00 1.20758390228386e-01 6.97928273045952e-04
1.40648936170213e+00 1.19871572666804e-01 6.99017222132305e-04
1.43138297872340e+00 1.18991267656145e-01 6.99998166816519e-04
1.45627659574468e+00 1.18117427370009e-01 7.00874434391800e-04
1.48117021276596e+00 1.17250004339111e-01 7.01649229827858e-04
1.50606382978723e+00 1.16388951430967e-01 7.02325638857529e-04
1.53095744680851e+00 1.15534221865144e-01 7.02906631789935e-04
1.55585106382979e+00 1.14685769204755e-01 7.03395071768889e-04
1.58074468085106e+00 1.13843547359294e-01 7.03793722289093e-04
1.60563829787234e+00 1.13007510565941e-01 7.04105250013691e-04
1.63053191489362e+00 1.12177613403360e-01 7.04332226164384e-04
1.65542553191489e+00 1.11353810788776e-01 7.04477137466234e-04
1.68031914893617e+00 1.10536057960457e-01 7.04542387036952e-04
1.70521276595745e+00 1.09724310490416e-01 7.04530295090699e-04
1.73010638297872e+00 1.08918524281598e-01 7.04443108801360e-04
1.75500000000000e+00 1.08118655551427e-01 7.04283002628476e-04
1.77989361702128e+00 1.07324660843555e-01 7.04052079469845e-04
1.80478723404255e+00 1.06536497020764e-01 7.03752375800109e-04
1.82968085106383e+00 1.05754121266915e-01 7.03385866347706e-04
1.85457446808511e+00 1.04977491071672e-01 7.02954464871769e-04
1.87946808510638e+00 1.04206564241209e-01 7.02460023837313e-04
1.90436170212766e+00 1.03441298895589e-01 7.01904342456394e-04
1.92925531914894e+00 1.02681653454349e-01 7.01289166158992e-04
1.95414893617021e+00 1.01927586646434e-01 7.00616186000931e-04
1.97904255319149e+00 1.01179057507647e-01 6.99887046093002e-04
2.00393617021277e+00 1.00436025367043e-01 6.99103342849999e-04
2.02882978723404e+00 9.96984498561589e-02 6.98266625036158e-04
2.05372340425532e+00 9.89662909029871e-02 6.97378397333457e-04
2.07861702127660e+00 9.82395087332985e-02 6.96440123582515e-04
2.10351063829787e+00 9.75180638579194e-02 6.95453226689333e-04
2.12840425531915e+00 9.68019170811995e-02 6.94419087624387e-04
2.15329787234043e+00 9.60910294986368e-02 6.93339051759612e-04
2.17819148936170e+00 9.53853624848069e-02 6.92214427782819e-04
2.20308510638298e+00 9.46848777012630e-02 6.91046486597758e-04
2.22797872340426e+00 9.39895370942161e-02 6.89836467268188e-04
2.25287234042553e+00 9.32993028830878e-02 6.88585575849230e-04
2.27776595744681e+00 9.26141375678901e-02 6.87294984950908e-04
2.30265957446808e+00 9.19340039240201e-02 6.85965836410554e-04
2.32755319148936e+00 9.12588650031437e-02 6.84599243713179e-04
2.35244680851064e+00 9.05886841224404e-02 6.83196291515659e-04
2.37734042553191e+00 8.99234248713962e-02 6.81758034397489e-04
2.40223404255319e+00 8.92630511096353e-02 6.80285502073775e-04
2.42712765957447e+00 8.86075269566776e-02 6.78779698114080e-04
2.45202127659574e+00 8.79568167983038e-02 6.77241599335262e-04
2.47691489361702e+00 8.73108852818388e-02 6.75672158060615e-04
2.50180851063830e+00 8.66696973167893e-02 6.74072304162282e-04
2.52670212765957e+00 8.60332180652048e-02 6.72442944449452e-04
2.55159574468085e+00 8.54014129475615e-02 6.70784961365405e-04
2.57648936170213e+00 8.47742476407104e-02 6.69099217619802e-04
2.60138297872340e+00 8.41516880686811e-02 6.67386554867572e-04
2.62627659574468e+00 8.35337004081943e-02 6.65647792401057e-04
2.65117021276596e+00 8.29202510866690e-02 6.63883731557063e-04
2.67606382978723e+00 8.23113067734416e-02 6.62095154399788e-04
2.70095744680851e+00 8.17068343849438e-02 6.60282823011239e-04
2.72585106382979e+00 8.11068010805658e-02 6.58447481320865e-04
2.75074468085106e+00 8.05111742630318e-02 6.56589856755844e-04
2.77563829787234e+00 7.99199215701058e-02 6.54710659551758e-04
2.80053191489362e+00 7.93330108793919e-02 6.52810581457070e-04
2.82542553191489e+00 7.87504103064506e-02 6.50890299701270e-04
2.85031914893617e+00 7.81720881968632e-02 6.48950475697000e-04
2.87521276595745e+00 7.75980131307434e-02 6.46991753759592e-04
2.90010638297872e+00 7.70281539209016e-02 6.45014764900390e-04
2.92500000000000e+00 7.64624796052506e-02 6.43020125547614e-04
2.94989361702128e+00 7.59009594510529e-02 6.41008436813323e-04
2.97478723404255e+00 7.53435629512638e-02 6.38980286017072e-04
2.99968085106383e+00 7.47902598247141e-02 6.36936248057854e-04
3.02457446808511e+00 7.42410200089145e-02 6.34876884711742e-04
3.04946808510638e+00 7.36958136640003e-02 6.32802743393455e-04
3.07436170212766e+00 7.31546111709991e-02 6.30714360603151e-04
3.09925531914894e+00 7.26173831249299e-02 6.28612260693397e-04
3.12414893617021e+00 7.20841003385204e-02 6.26496954654671e-04
3.14904255319149e+00 7.15547338405143e-02 6.24368943421400e-04
3.17393617021277e+00 7.10292548690554e-02 6.22228716663804e-04
3.19882978723404e+00 7.05076348751932e-02 6.20076752070173e-04
3.22372340425532e+00 6.99898455196318e-02 6.17913516641193e-04
3.24861702127660e+00 6.94758586727692e-02 6.15739467853989e-04
3.27351063829787e+00 6.89656464084116e-02 6.13555052978927e-04
3.29840425531915e+00 6.84591810070359e-02 6.11360707919603e-04
3.32329787234043e+00 6.79564349541920e-02 6.09156860236187e-04
3.34819148936170e+00 6.74573809344640e-02 6.06943927994574e-04
3.37308510638298e+00 6.69619918345502e-02 6.04722318633836e-04
3.39797872340426e+00 6.64702407417002e-02 6.02492431873389e-04
3.42287234042553e+00 6.59821009379155e-02 6.00254658588510e-04
3.44776595744681e+00 6.54975459028586e-02 5.98009380127049e-04
3.47265957446808e+00 6.50165493109488e-02 5.95756969425213e-04
3.49755319148936e+00 6.45390850312935e-02 5.93497792009796e-04
3.52244680851064e+00 6.40651271221678e-02 5.91232205349645e-04
3.54734042553191e+00 6.35946498337247e-02 5.88960557781226e-04
3.57223404255319e+00 6.31276276065194e-02 5.86683191180173e-04
3.59712765957447e+00 6.26640350661974e-02 5.84400439897533e-04
3.62202127659574e+00 6.22038470260569e-02 5.82112630102473e-04
3.64691489361702e+00 6.17470384843616e-02 5.79820080796725e-04
3.67180851063830e+00 6.12935846242112e-02 5.77523104725268e-04
3.69670212765957e+00 6.08434608084816e-02 5.75222007753369e-04
3.72159574468085e+00 6.03966425822182e-02 5.72917087852369e-04
3.74648936170213e+00 5.99531056712358e-02 5.70608637560966e-04
3.77138297872340e+00 5.95128259772461e-02 5.68296942980065e-04
3.79627659574468e+00 5.90757795801187e-02 5.65982282784438e-04
3.82117021276596e+00 5.86419427365159e-02 5.63664930596428e-04
3.84606382978723e+00 5.82112918751984e-02 5.61345154007917e-04
3.87095744680851e+00 5.77838035991655e-02 5.59023213968945e-04
3.89585106382979e+00 5.73594546832379e-02 5.56699365676744e-04
3.92074468085106e+00 5.69382220738654e-02 5.54373859373466e-04
3.94563829787234e+00 5.65200828846480e-02 5.52046939767173e-04
3.97053191489362e+00 5.61050143983354e-02 5.49718845101193e-04
3.99542553191489e+00 5.56929940655332e-02 5.47389809347753e-04
4.02031914893617e+00 5.52839995003841e-02 5.45060061286744e-04
4.04521276595745e+00 5.48780084824593e-02 5.42729823599979e-04
4.07010638297872e+00 5.44749989554954e-02 5.40399314989435e-04
4.09500000000000e+00 5.40749490232290e-02 5.38068749281251e-04
4.11989361702128e+00 5.36778369511887e-02 5.35738334860522e-04
4.14478723404255e+00 5.32836411645152e-02 5.33408275455937e-04
4.16968085106383e+00 5.28923402477230e-02 5.31078770843597e-04
4.19457446808511e+00 5.25039129407205e-02 5.28750016311992e-04
4.21946808510638e+00 5.21183381404853e-02 5.26422201810220e-04
4.24436170212766e+00 5.17355948998674e-02 5.24095513910474e-04
4.26925531914894e+00 5.13556624237467e-02 5.21770134965651e-04
4.29414893617021e+00 5.09785200706201e-02 5.19446242281054e-04
4.31904255319149e+00 5.06041473514310e-02 5.17124010011433e-04
4.34393617021277e+00 5.02325239258607e-02 5.14803608341649e-04
4.36882978723404e+00 4.98636296038325e-02 5.12485202966296e-04
4.39372340425532e+00 4.94974443435396e-02 5.10168955786062e-04
4.41861702127660e+00 4.91339482511754e-02 5.07855025532111e-04
4.44351063829787e+00 4.87731215773848e-02 5.05543567273566e-04
4.46840425531915e+00 4.84149447186706e-02 5.03234731639104e-04
4.49329787234043e+00 4.80593982162857e-02 5.00928666578036e-04
4.51819148936170e+00 4.77064627528041e-02 4.98625516591031e-04
4.54308510638298e+00 4.73561191534536e-02 4.96325421973549e-04
4.56797872340425e+00 4.70083483850322e-02 4.94028520519618e-04
4.59287234042553e+00 4.66631315525956e-02 4.91734946773457e-04
4.61776595744681e+00 4.63204499007210e-02 4.89444831551774e-04
4.64265957446808e+00 4.59802848117195e-02 4.87158302564414e-04
4.66755319148936e+00 4.56426178053454e-02 4.84875484970599e-04
4.69244680851064e+00 4.53074305356225e-02 4.82596500926753e-04
4.71734042553191e+00 4.49747047920269e-02 4.80321468875807e-04
4.74223404255319e+00 4.46444224984601e-02 4.78050505131538e-04
4.76712765957447e+00 4.43165657101809e-02 4.75783723176345e-04
4.79202127659574e+00 4.39911166149264e-02 4.73521233210106e-04
4.81691489361702e+00 4.36680575312426e-02 4.71263142725068e-04
4.84180851063830e+00 4.33473709081819e-02 4.69009557021047e-04
4.86670212765957e+00 4.30290393223630e-02 4.66760578778291e-04
4.89159574468085e+00 4.27130454790211e-02 4.64516307390815e-04
4.91648936170213e+00 4.23993722110341e-02 4.62276840441073e-04
4.94138297872340e+00 4.20880024760776e-02 4.60042273040405e-04
4.96627659574468e+00 4.17789193576197e-02 4.57812697180622e-04
4.99117021276596e+00 4.14721060639698e-02 4.55588203162381e-04
5.01606382978723e+00 4.11675459255258e-02 4.53368878954296e-04
5.04095744680851e+00 4.08652223957176e-02 4.51154809779807e-04
5.06585106382979e+00 4.05651190494888e-02 4.48946078632353e-04
5.09074468085106e+00 4.02672195829859e-02 4.46742766737173e-04
5.11563829787234e+00 3.99715078109183e-02 4.44544953160075e-04
5.14053191489362e+00 3.96779676674418e-02 4.42352714198919e-04
5.16542553191489e+00 3.93865832052564e-02 4.40166124714900e-04
5.19031914893617e+00 3.90973385930496e-02 4.37985257530879e-04
5.21521276595745e+00 3.88102181163341e-02 4.35810182839645e-04
5.24010638297872e+00 3.85252061765657e-02 4.33640969494187e-04
5.26500000000000e+00 3.82422872886681e-02 4.31477684422751e-04
5.28989361702128e+00 3.79614460818272e-02 4.29320392250648e-04
5.31478723404255e+00 3.76826672981080e-02 4.27169155763394e-04
5.33968085106383e+00 3.74059357921407e-02 4.25024036321611e-04
5.36457446808511e+00 3.71312365287449e-02 4.22885093502841e-04
5.38946808510638e+00 3.68585545836733e-02 4.20752384546197e-04
5.41436170212766e+00 3.65878751427751e-02 4.18625965556185e-04
5.43925531914894e+00 3.63191834996940e-02 4.16505890953708e-04
5.46414893617021e+00 3.60524650565730e-02 4.14392212936050e-04
5.48904255319149e+00 3.57877053232367e-02 4.12284982644247e-04
5.51393617021277e+00 3.55248899149610e-02 4.10184249629156e-04
5.53882978723404e+00 3.52640045531417e-02 4.08090061505402e-04
5.56372340425532e+00 3.50050350640327e-02 4.06002464368529e-04
5.58861702127660e+00 3.47479673784331e-02 4.03921503168778e-04
5.61351063829787e+00 3.44927875295448e-02 4.01847221383242e-04
5.63840425531915e+00 3.42394816535986e-02 3.99779660508814e-04
5.66329787234043e+00 3.39880359890779e-02 3.97718861152485e-04
5.68819148936170e+00 3.37384368746423e-02 3.95664862530207e-04
5.71308510638298e+00 3.34906707497206e-02 3.93617701973983e-04
5.73797872340425e+00 3.32447241537518e-02 3.91577415989594e-04
5.76287234042553e+00 3.30005837241724e-02 3.89544039769034e-04
5.78776595744681e+00 3.27582361969784e-02 3.87517606873950e-04
5.81265957446808e+00 3.25176684055730e-02 3.85498149612125e-04
5.83755319148936e+00 3.22788672804578e-02 3.83485699374750e-04
5.86244680851064e+00 3.20418198472973e-02 3.81480286336479e-04
5.88734042553191e+00 3.18065132274454e-02 3.79481938992364e-04
5.91223404255319e+00 3.15729346372256e-02 3.77490685146522e-04
5.93712765957447e+00 3.13410713860543e-02 3.75506551454646e-04
5.96202127659574e+00 3.11109108769390e-02 3.73529563125715e-04
5.98691489361702e+00 3.08824406053964e-02 3.71559744273227e-04
6.01180851063830e+00 3.06556481591473e-02 3.69597118229936e-04
6.03670212765957e+00 3.04305212163126e-02 3.67641707265124e-04
6.06159574468085e+00 3.02070475458793e-02 3.65693532150056e-04
6.08648936170213e+00 2.99852150070177e-02 3.63752613082596e-04
6.11138297872340e+00 2.97650115473307e-02 3.61818969257321e-04
6.13627659574468e+00 2.95464252032949e-02 3.59892618442694e-04
6.16117021276596e+00 2.93294440995939e-02 3.57973577878710e-04
6.18606382978723e+00 2.91140564474185e-02 3.56061863858852e-04
6.21095744680851e+00 2.89002505448858e-02 3.54157491457151e-04
6.23585106382979e+00 2.86880147760483e-02 3.52260474846172e-04
6.26074468085106e+00 2.84773376105971e-02 3.50370827581760e-04
6.28563829787234e+00 2.82682076022276e-02 3.48488562344288e-04
6.31053191489362e+00 2.80606133890307e-02 3.46613690541627e-04
6.33542553191489e+00 2.78545436928590e-02 3.44746223149127e-04
6.36031914893617e+00 2.76499873177408e-02 3.42886170316958e-04
6.38521276595745e+00 2.74469331502495e-02 3.41033540983812e-04
6.41010638297872e+00 2.72453701588847e-02 3.39188343692641e-04
6.43500000000000e+00 2.70452873925323e-02 3.37350586208603e-04
6.45989361702128e+00 2.68466739808145e-02 3.35520275269416e-04
6.48478723404255e+00 2.66495191331827e-02 3.33697416873376e-04
6.50968085106383e+00 2.64538121386296e-02 3.31882016537456e-04
6.53457446808511e+00 2.62595423642074e-02 3.30074079060447e-04
6.55946808510638e+00 2.60666992553545e-02 3.28273608159989e-04
6.58436170212766e+00 2.58752723353077e-02 3.26480607236595e-04
6.60925531914894e+00 2.56852512036634e-02 3.24695079014687e-04
6.63414893617021e+00 2.54966255366861e-02 3.22917025189507e-04
6.65904255319149e+00 2.53093850867342e-02 3.21146447169214e-04
6.68393617021277e+00 2.51235196808622e-02 3.19383345725611e-04
6.70882978723404e+00 2.49390192211128e-02 3.17627720765612e-04
6.73372340425532e+00 2.47558736836858e-02 3.15879571592554e-04
6.75861702127660e+00 2.45740731186596e-02 3.14138897140357e-04
6.78351063829787e+00 2.43936076486465e-02 3.12405695756679e-04
6.80840425531915e+00 2.42144674690644e-02 3.10679964871029e-04
6.83329787234043e+00 2.40366428475918e-02 3.08961701690163e-04
6.85819148936170e+00 2.38601241228604e-02 3.07250902869876e-04
6.88308510638298e+00 2.36849017047127e-02 3.05547564192152e-04
6.90797872340425e+00 2.35109660736681e-02 3.03851681240829e-04
6.93287234042553e+00 2.33383077796535e-02 3.02163249082160e-04
6.95776595744681e+00 2.31669174422464e-02 3.00482262055525e-04
6.98265957446808e+00 2.29967857499113e-02 2.98808714010810e-04
7.00755319148936e+00 2.28279034597335e-02 2.97142598521111e-04
7.03244680851064e+00 2.26602613961955e-02 2.95483908684097e-04
7.05734042553191e+00 2.24938504514032e-02 2.93832636818403e-04
7.08223404255319e+00 2.23286615845800e-02 2.92188775097112e-04
7.10712765957447e+00 2.21646858208779e-02 2.90552315247590e-04
7.13202127659574e+00 2.20019142515908e-02 2.88923248354249e-04
7.15691489361702e+00 2.18403380334360e-02 2.87301565080888e-04
7.18180851063830e+00 2.16799483882949e-02 2.85687255869904e-04
7.20670212765957e+00 2.15207366020681e-02 2.84080310755052e-04
7.23159574468085e+00 2.13626940248735e-02 2.82480719076129e-04
7.25648936170213e+00 2.12058120705660e-02 2.80888470073130e-04
7.28138297872340e+00 2.10500822156243e-02 2.79303552603873e-04
7.30627659574468e+00 2.08954959993376e-02 2.77725954866196e-04
7.33117021276596e+00 2.07420450233358e-02 2.76155664975476e-04
7.35606382978723e+00 2.05897209505077e-02 2.74592670689840e-04
7.38095744680851e+00 2.04385155051765e-02 2.73036959229569e-04
7.40585106382979e+00 2.02884204724401e-02 2.71488517479351e-04
7.43074468085106e+00 2.01394276979233e-02 2.69947332169484e-04
7.45563829787234e+00 1.99915290867347e-02 2.68413389704338e-04
7.48053191489362e+00 1.98447166036304e-02 2.66886675901176e-04
7.50542553191489e+00 1.96989822725676e-02 2.65367176532056e-04
7.53031914893617e+00 1.95543181756911e-02 2.63854877065351e-04
7.55521276595745e+00 1.94107164534859e-02 2.62349762411460e-04
7.58010638297872e+00 1.92681693043419e-02 2.60851817449705e-04
7.60500000000000e+00 1.91266689835677e-02 2.59361026776713e-04
7.62989361702128e+00 1.89862078035346e-02 2.57877374540939e-04
7.65478723404255e+00 1.88467781330699e-02 2.56400844626790e-04
7.67968085106383e+00 1.87083723972210e-02 2.54931420819600e-04
7.70457446808511e+00 1.85709830763045e-02 2.53469086648442e-04
7.72946808510638e+00 1.84346027060399e-02 2.52013825146939e-04
7.75436170212766e+00 1.82992238771355e-02 2.50565619347830e-04
7.77925531914894e+00 1.81648392343640e-02 2.49124452046288e-04
7.80414893617021e+00 1.80314414766872e-02 2.47690305567094e-04
7.82904255319149e+00 1.78990233568514e-02 2.46263162245561e-04
7.85393617021277e+00 1.77675776804883e-02 2.44843004197079e-04
