Energy (eV)          EEDF (eV^-(3/2))     First Anisotropy
1.79166666666667e-03 4.94682229451833e+00 2.98923937046639e-03
5.37500000000000e-03 4.89941435410853e+00 4.92900165898288e-03
8.95833333333333e-03 4.85246074829538e+00 6.48810583844428e-03
1.25416666666667e-02 4.80595712305081e+00 7.66122908506952e-03
1.61250000000000e-02 4.75989916603060e+00 8.63028845060094e-03
1.97083333333333e-02 4.71428260590698e+00 9.46434210953868e-03
2.32916666666667e-02 4.66910321281603e+00 1.01992647648557e-02
2.68750000000000e-02 4.62435679711848e+00 1.08568010810087e-02
3.04583333333333e-02 4.58003920921716e+00 1.14514255841185e-02
3.40416666666667e-02 4.53614633959014e+00 1.19934058479859e-02
3.76250000000000e-02 4.49267411792608e+00 1.24903699178463e-02
4.12083333333333e-02 4.44961851283344e+00 1.29481882319735e-02
4.47916666666667e-02 4.40697553176877e+00 1.33715061630973e-02
4.83750000000000e-02 4.36474122033422e+00 1.37640835941086e-02
5.19583333333333e-02 4.32291166195854e+00 1.41290210524984e-02
5.55416666666667e-02 4.28148297776604e+00 1.44689158663958e-02
5.91250000000000e-02 4.24045132596730e+00 1.47859732337929e-02
6.27083333333333e-02 4.19981290153306e+00 1.50820872047756e-02
6.62916666666667e-02 4.15956393602760e+00 1.53589011078610e-02
6.98750000000000e-02 4.11970069706170e+00 1.56178534698009e-02
7.34583333333333e-02 4.08021948796722e+00 1.58602134557733e-02
7.70416666666667e-02 4.04111664760831e+00 1.60871087013624e-02
8.06250000000000e-02 4.00238854987990e+00 1.62995474284996e-02
8.42083333333333e-02 3.96403160338659e+00 1.64984361900038e-02
8.77916666666667e-02 3.92604225123971e+00 1.66845943273427e-02
9.13750000000000e-02 3.88841697059145e+00 1.68587658356932e-02
9.49583333333333e-02 3.85115227231964e+00 1.70216291525463e-02
9.85416666666667e-02 3.81424470081606e+00 1.71738053511857e-02
1.02125000000000e-01 3.77769083364817e+00 1.73158650938855e-02
1.05708333333333e-01 3.74148728075606e+00 1.74483343443991e-02
1.09291666666667e-01 3.70563068522834e+00 1.75716993947166e-02
1.12875000000000e-01 3.67011772198021e+00 1.76864112409225e-02
1.16458333333333e-01 3.63494509751725e+00 1.77928890449994e-02
1.20041666666667e-01 3.60010955048824e+00 1.78915234244855e-02
1.23625000000000e-01 3.56560785049549e+00 1.79826793182050e-02
1.27208333333333e-01 3.53143679785423e+00 1.80666982136643e-02
1.30791666666667e-01 3.49759322405840e+00 1.81439003742018e-02
1.34375000000000e-01 3.46407399070047e+00 1.82145868041544e-02
1.37958333333333e-01 3.43087598922955e+00 1.82790407278163e-02
1.41541666666667e-01 3.39799614134543e+00 1.83375291567349e-02
1.45125000000000e-01 3.36543139801084e+00 1.83903042875654e-02
1.48708333333333e-01 3.33317873921021e+00 1.84376045079633e-02
1.52291666666667e-01 3.30123517428397e+00 1.84796555366778e-02
1.55875000000000e-01 3.26959774101993e+00 1.85166714496879e-02
1.59458333333333e-01 3.23826350541404e+00 1.85488553765829e-02
1.63041666666667e-01 3.20722956195442e+00 1.85764003540881e-02
1.66625000000000e-01 3.17649303278133e+00 1.85994901002978e-02
1.70208333333333e-01 3.14605106745083e+00 1.86182995026102e-02
1.73791666666667e-01 3.11590084317627e+00 1.86329952730339e-02
1.77375000000000e-01 3.08603956404818e+00 1.86437365466458e-02
1.80958333333333e-01 3.05646446080157e+00 1.86506752256797e-02
1.84541666666667e-01 3.02717279102106e+00 1.86539564939906e-02
1.88125000000000e-01 2.99816183841373e+00 1.86537192896603e-02
1.91708333333333e-01 2.96942891258049e+00 1.86500965477566e-02
1.95291666666667e-01 2.94097134919001e+00 1.86432156123149e-02
1.98875000000000e-01 2.91278650929866e+00 1.86331986167508e-02
2.02458333333333e-01 2.88487177912635e+00 1.86201626539902e-02
2.06041666666667e-01 2.85722457020342e+00 1.86042201122772e-02
2.09625000000000e-01 2.82984231873288e+00 1.85854789866533e-02
2.13208333333333e-01 2.80272248537087e+00 1.85640429962616e-02
2.16791666666667e-01 2.77586255535017e+00 1.85400118624420e-02
2.20375000000000e-01 2.74926003788048e+00 1.85134815677107e-02
2.23958333333333e-01 2.72291246593374e+00 1.84845444341717e-02
2.27541666666667e-01 2.69681739634721e+00 1.84532893571171e-02
2.31125000000000e-01 2.67097240925833e+00 1.84198020233449e-02
2.34708333333333e-01 2.64537510789490e+00 1.83841649606532e-02
2.38291666666667e-01 2.62002311866034e+00 1.83464577365923e-02
2.41875000000000e-01 2.59491409060006e+00 1.83067571447995e-02
2.45458333333333e-01 2.57004569519654e+00 1.82651372328227e-02
2.49041666666667e-01 2.54541562643900e+00 1.82216694731813e-02
2.52625000000000e-01 2.52102160031855e+00 1.81764229241877e-02
2.56208333333333e-01 2.49686135462826e+00 1.81294642414449e-02
2.59791666666667e-01 2.47293264901906e+00 1.80808578266024e-02
2.63375000000000e-01 2.44923326452142e+00 1.80306659675551e-02
2.66958333333333e-01 2.42576100335030e+00 1.79789488376001e-02
2.70541666666667e-01 2.40251368894902e+00 1.79257646260045e-02
2.74125000000000e-01 2.37948916553532e+00 1.78711696613406e-02
2.77708333333333e-01 2.35668529791121e+00 1.78152184012965e-02
2.81291666666667e-01 2.33409997149622e+00 1.77579635482437e-02
2.84875000000000e-01 2.31173109189604e+00 1.76994561586229e-02
2.88458333333333e-01 2.28957658471717e+00 1.76397456256930e-02
2.92041666666667e-01 2.26763439559087e+00 1.75788797825926e-02
2.95625000000000e-01 2.24590248976265e+00 1.75169050000701e-02
2.99208333333333e-01 2.22437885191181e+00 1.74538661639174e-02
3.02791666666667e-01 2.20306148616698e+00 1.73898067675064e-02
3.06375000000000e-01 2.18194841571524e+00 1.73247689996828e-02
3.09958333333333e-01 2.16103768262624e+00 1.72587937182368e-02
3.13541666666667e-01 2.14032734786052e+00 1.71919205334970e-02
3.17125000000000e-01 2.11981549089672e+00 1.71241878878464e-02
3.20708333333333e-01 2.09950020956042e+00 1.70556330262841e-02
3.24291666666667e-01 2.07937962002592e+00 1.69862920723547e-02
3.27875000000000e-01 2.05945185646051e+00 1.69162001004754e-02
3.31458333333333e-01 2.03971507085776e+00 1.68453911044012e-02
3.35041666666667e-01 2.02016743303369e+00 1.67738980665387e-02
3.38625000000000e-01 2.00080713028688e+00 1.67017530240513e-02
3.42208333333333e-01 1.98163236723629e+00 1.66289870358730e-02
3.45791666666667e-01 1.96264136581229e+00 1.65556302462658e-02
3.49375000000000e-01 1.94383236493184e+00 1.64817119454998e-02
3.52958333333333e-01 1.92520362034053e+00 1.64072605359241e-02
3.56541666666667e-01 1.90675340459927e+00 1.63323035904784e-02
3.60125000000000e-01 1.88848000677347e+00 1.62568679086179e-02
3.63708333333333e-01 1.87038173227937e+00 1.61809794818336e-02
3.67291666666667e-01 1.85245690286681e+00 1.61046635477181e-02
3.70875000000000e-01 1.83470385632161e+00 1.60279446416879e-02
3.74458333333333e-01 1.81712094631613e+00 1.59508465622736e-02
3.78041666666667e-01 1.79970654238853e+00 1.58733924212397e-02
3.81625000000000e-01 1.78245902965772e+00 1.57956046915754e-02
3.85208333333333e-01 1.76537680867791e+00 1.57175051727992e-02
3.88791666666667e-01 1.74845829541491e+00 1.56391150375607e-02
3.92375000000000e-01 1.73170192097283e+00 1.55604548763012e-02
3.95958333333333e-01 1.71510613145264e+00 1.54815446627662e-02
3.99541666666667e-01 1.69866938792581e+00 1.54024037974545e-02
4.03125000000000e-01 1.68239016617222e+00 1.53230511492886e-02
4.06708333333333e-01 1.66626695654249e+00 1.52435050214888e-02
4.10291666666667e-01 1.65029826392945e+00 1.51637831921811e-02
4.13875000000000e-01 1.63448260751651e+00 1.50839029533724e-02
4.17458333333333e-01 1.61881852064387e+00 1.50038810773051e-02
4.21041666666667e-01 1.60330455077790e+00 1.49237338544967e-02
4.24625000000000e-01 1.58793925926962e+00 1.48434771302712e-02
4.28208333333333e-01 1.57272122122454e+00 1.47631262716878e-02
4.31791666666667e-01 1.55764902547035e+00 1.46826962032453e-02
4.35375000000000e-01 1.54272127432491e+00 1.46022014411943e-02
4.38958333333333e-01 1.52793658346966e+00 1.45216560611071e-02
4.42541666666667e-01 1.51329358191590e+00 1.44410737314548e-02
4.46125000000000e-01 1.49879091178172e+00 1.43604677458930e-02
4.49708333333333e-01 1.48442722816903e+00 1.42798509915266e-02
4.53291666666667e-01 1.47020119912849e+00 1.41992359805380e-02
4.56875000000000e-01 1.45611150544514e+00 1.41186348806181e-02
4.60458333333333e-01 1.44215684051873e+00 1.40380594839640e-02
4.64041666666667e-01 1.42833591032767e+00 1.39575212371199e-02
4.67625000000000e-01 1.41464743322284e+00 1.38770312697002e-02
4.71208333333333e-01 1.40109013981124e+00 1.37966003641482e-02
4.74791666666667e-01 1.38766277291906e+00 1.37162389839313e-02
4.78375000000000e-01 1.37436408739330e+00 1.36359573006904e-02
4.81958333333333e-01 1.36119284998863e+00 1.35557651647778e-02
4.85541666666667e-01 1.34814783932980e+00 1.34756721319297e-02
4.89125000000000e-01 1.33522784572067e+00 1.33956874889638e-02
4.92708333333333e-01 1.32243167103423e+00 1.33158202251047e-02
4.96291666666667e-01 1.30975812867442e+00 1.32360790572463e-02
4.99875000000000e-01 1.29720604339227e+00 1.31564724543048e-02
5.03458333333333e-01 1.28477425117903e+00 1.30770086093344e-02
5.07041666666667e-01 1.27246159922751e+00 1.29976954634824e-02
5.10625000000000e-01 1.26026694575501e+00 1.29185407290919e-02
5.14208333333333e-01 1.24818915989944e+00 1.28395518626059e-02
5.17791666666667e-01 1.23622712168035e+00 1.27607360873076e-02
5.21375000000000e-01 1.22437972182834e+00 1.26821004152598e-02
5.24958333333333e-01 1.21264586168406e+00 1.26036516209915e-02
5.28541666666667e-01 1.20102445315904e+00 1.25253962631046e-02
5.32125000000000e-01 1.18951441857135e+00 1.24473407051274e-02
5.35708333333333e-01 1.17811469054734e+00 1.23694910899783e-02
5.39291666666667e-01 1.16682421198243e+00 1.22918533605124e-02
5.42875000000000e-01 1.15564193588263e+00 1.22144332793597e-02
5.46458333333333e-01 1.14456682526911e+00 1.21372364041531e-02
5.50041666666667e-01 1.13359785313890e+00 1.20602681070859e-02
5.53625000000000e-01 1.12273400231210e+00 1.19835335937982e-02
5.57208333333333e-01 1.11197426533913e+00 1.19070378793577e-02
5.60791666666667e-01 1.10131764446149e+00 1.18307858068876e-02
5.64375000000000e-01 1.09076315146440e+00 1.17547820655596e-02
5.67958333333333e-01 1.08030980758662e+00 1.16790311673163e-02
5.71541666666667e-01 1.06995664348139e+00 1.16035374646238e-02
5.75125000000000e-01 1.05970269907423e+00 1.15283051676282e-02
5.78708333333333e-01 1.04954702347532e+00 1.14533383215990e-02
5.82291666666667e-01 1.03948867494059e+00 1.13786408238628e-02
5.85875000000000e-01 1.02952672073454e+00 1.13042164401716e-02
5.89458333333333e-01 1.01966023704509e+00 1.12300687828510e-02
5.93041666666667e-01 1.00988830894487e+00 1.11562013269616e-02
5.96625000000000e-01 1.00021003025885e+00 1.10826174259247e-02
6.00208333333333e-01 9.90624503481616e-01 1.10093202903597e-02
6.03791666666667e-01 9.81130839738881e-01 1.09363130035182e-02
6.07375000000000e-01 9.71728158659780e-01 1.08635985362079e-02
6.10958333333333e-01 9.62415588296403e-01 1.07911797263007e-02
6.14541666666667e-01 9.53192265085700e-01 1.07190592934791e-02
6.18125000000000e-01 9.44057333726156e-01 1.06472398535005e-02
6.21708333333333e-01 9.35009947099597e-01 1.05757238983571e-02
6.25291666666667e-01 9.26049266233458e-01 1.05045138103735e-02
6.28875000000000e-01 9.17174460181701e-01 1.04336118758447e-02
6.32458333333333e-01 9.08384705948823e-01 1.03630202658319e-02
6.36041666666667e-01 8.99679188452524e-01 1.02927410496446e-02
6.39625000000000e-01 8.91057100408698e-01 1.02227762078884e-02
6.43208333333333e-01 8.82517642257588e-01 1.01531276138767e-02
6.46791666666667e-01 8.74060022126872e-01 1.00837970465309e-02
6.50375000000000e-01 8.65683455720587e-01 1.00147862028678e-02
6.53958333333333e-01 8.57387166247348e-01 9.94609668001195e-03
6.57541666666667e-01 8.49170384383905e-01 9.87772998754190e-03
6.61125000000000e-01 8.41032348167824e-01 9.80968755944697e-03
6.64708333333333e-01 8.32972302927735e-01 9.74197073672078e-03
6.68291666666667e-01 8.24989501247365e-01 9.67458077918571e-03
6.71875000000000e-01 8.17083202861842e-01 9.60751887694355e-03
6.75458333333333e-01 8.09252674589915e-01 9.54078613353456e-03
6.79041666666667e-01 8.01497190298476e-01 9.47438357726359e-03
6.82625000000000e-01 7.93816030802358e-01 9.40831217217201e-03
6.86208333333333e-01 7.86208483798466e-01 9.34257280174414e-03
6.89791666666667e-01 7.78673843830814e-01 9.27716627976085e-03
6.93375000000000e-01 7.71211412193675e-01 9.21209336081715e-03
6.96958333333333e-01 7.63820496867576e-01 9.14735472455690e-03
7.00541666666667e-01 7.56500412484862e-01 9.08295098607784e-03
7.04125000000000e-01 7.49250480236078e-01 9.01888270601665e-03
7.07708333333333e-01 7.42070027807769e-01 8.95515037529717e-03
7.11291666666667e-01 7.34958389348585e-01 8.89175442510759e-03
7.14875000000000e-01 7.27914905378780e-01 8.82869523657357e-03
7.18458333333333e-01 7.20938922729762e-01 8.76597312600318e-03
7.22041666666667e-01 7.14029794510752e-01 8.70358835445829e-03
7.25625000000000e-01 7.07186880021281e-01 8.64154113703432e-03
7.29208333333333e-01 7.00409544692445e-01 8.57983162858686e-03
7.32791666666667e-01 6.93697160054125e-01 8.51845993291545e-03
7.36375000000000e-01 6.87049103650369e-01 8.45742611166827e-03
7.39958333333333e-01 6.80464758982315e-01 8.39673017053557e-03
7.43541666666667e-01 6.73943515475965e-01 8.33637206806458e-03
7.47125000000000e-01 6.67484768400358e-01 8.27635172420690e-03
7.50708333333333e-01 6.61087918812101e-01 8.21666900696218e-03
7.54291666666667e-01 6.54752373523720e-01 8.15732374084080e-03
7.57875000000000e-01 6.48477545024508e-01 8.09831571507152e-03
7.61458333333333e-01 6.42262851426629e-01 8.03964467068144e-03
7.65041666666667e-01 6.36107716434039e-01 7.98131030862199e-03
7.68625000000000e-01 6.30011569265925e-01 7.92331229765138e-03
7.72208333333333e-01 6.23973844604331e-01 7.86565026183735e-03
7.75791666666667e-01 6.17993982563651e-01 7.80832378836182e-03
7.79375000000000e-01 6.12071428616567e-01 7.75133243509305e-03
7.82958333333333e-01 6.06205633543151e-01 7.69467571849709e-03
7.86541666666667e-01 6.00396053400942e-01 7.63835312113447e-03
7.90125000000000e-01 5.94642149453282e-01 7.58236409893656e-03
7.93708333333333e-01 5.88943388119865e-01 7.52670806951238e-03
7.97291666666667e-01 5.83299240947381e-01 7.47138441935256e-03
8.00875000000000e-01 5.77709184540180e-01 7.41639251082133e-03
8.04458333333333e-01 5.72172700512219e-01 7.36173167084528e-03
8.08041666666667e-01 5.66689275458279e-01 7.30740119783745e-03
8.11625000000000e-01 5.61258400886870e-01 7.25340036841877e-03
8.15208333333333e-01 5.55879573173534e-01 7.19972842647575e-03
8.18791666666667e-01 5.50552293532642e-01 7.14638458981553e-03
8.22375000000000e-01 5.45276067952452e-01 7.09336805662979e-03
8.25958333333333e-01 5.40050407149742e-01 7.04067799490931e-03
8.29541666666667e-01 5.34874826542166e-01 6.98831354884207e-03
8.33125000000000e-01 5.29748846185411e-01 6.93627384502853e-03
8.36708333333333e-01 5.24671990729103e-01 6.88455798224216e-03
8.40291666666667e-01 5.19643789389737e-01 6.83316503758285e-03
8.43875000000000e-01 5.14663775889841e-01 6.78209407245356e-03
8.47458333333333e-01 5.09731488415139e-01 6.73134412265484e-03
8.51041666666667e-01 5.04846469588035e-01 6.68091420430447e-03
8.54625000000000e-01 5.00008266408724e-01 6.63080331958554e-03
8.58208333333333e-01 4.95216430213569e-01 6.58101044716360e-03
8.61791666666667e-01 4.90470516649143e-01 6.53153454788183e-03
8.65375000000000e-01 4.85770085615215e-01 6.48237457029101e-03
8.68958333333333e-01 4.81114701224307e-01 6.43352944137916e-03
8.72541666666667e-01 4.76503931776289e-01 6.38499807205048e-03
8.76125000000000e-01 4.71937349703176e-01 6.33677936244693e-03
8.79708333333333e-01 4.67414531529837e-01 6.28887219297962e-03
8.83291666666667e-01 4.62935057849126e-01 6.24127542960059e-03
8.86875000000000e-01 4.58498513268439e-01 6.19398792892482e-03
8.90458333333333e-01 4.54104486371532e-01 6.14700852955345e-03
8.94041666666667e-01 4.49752569694195e-01 6.10033605714725e-03
8.97625000000000e-01 4.45442359672501e-01 6.05396932935662e-03
9.01208333333333e-01 4.41173456605702e-01 6.00790714742637e-03
9.04791666666667e-01 4.36945464632440e-01 5.96214830107975e-03
9.08375000000000e-01 4.32757991680633e-01 5.91669157326480e-03
9.11958333333333e-01 4.28610649431419e-01 5.87153573203157e-03
9.15541666666667e-01 4.24503053295892e-01 5.82667953523326e-03
9.19125000000000e-01 4.20434822366574e-01 5.78212173509658e-03
9.22708333333333e-01 4.16405579382375e-01 5.73786107036264e-03
9.26291666666667e-01 4.12414950705856e-01 5.69389627081297e-03
9.29875000000000e-01 4.08462566276216e-01 5.65022606167056e-03
9.33458333333333e-01 4.04548059575259e-01 5.60684915599589e-03
9.37041666666667e-01 4.00671067605156e-01 5.56376425904516e-03
9.40625000000000e-01 3.96831230842921e-01 5.52097007250788e-03
9.44208333333333e-01 3.93028193207332e-01 5.47846528714982e-03
9.47791666666667e-01 3.89261602037204e-01 5.43624858701095e-03
9.51375000000000e-01 3.85531108047287e-01 5.39431865348589e-03
9.54958333333333e-01 3.81836365296132e-01 5.35267415820539e-03
9.58541666666667e-01 3.78177031164854e-01 5.31131376707966e-03
9.62125000000000e-01 3.74552766314411e-01 5.27023614422906e-03
9.65708333333333e-01 3.70963234654387e-01 5.22943994509592e-03
9.69291666666667e-01 3.67408103322233e-01 5.18892382033905e-03
9.72875000000000e-01 3.63887042641891e-01 5.14868641962062e-03
9.76458333333333e-01 3.60399726093454e-01 5.10872638494043e-03
9.80041666666667e-01 3.56945830292895e-01 5.06904235438840e-03
9.83625000000000e-01 3.53525034951975e-01 5.02963296579309e-03
9.87208333333333e-01 3.50137022848770e-01 4.99049685027091e-03
9.90791666666667e-01 3.46781479807863e-01 4.95163263584114e-03
9.94375000000000e-01 3.43458094661511e-01 4.91303895094199e-03
9.97958333333333e-01 3.40166559220997e-01 4.87471441818874e-03
1.00154166666667e+00 3.36906568257299e-01 4.83665765481265e-03
1.00512500000000e+00 3.33677819472367e-01 4.79886729127916e-03
1.00870833333333e+00 3.30480013426702e-01 4.76134193787468e-03
1.01229166666667e+00 3.27312853609696e-01 4.72408020006294e-03
1.01587500000000e+00 3.24176046322483e-01 4.68708071235862e-03
1.01945833333333e+00 3.21069300652677e-01 4.65034207790503e-03
1.02304166666667e+00 3.17992328532767e-01 4.61386289890629e-03
1.02662500000000e+00 3.14944844627230e-01 4.57764180623216e-03
1.03020833333333e+00 3.11926566307958e-01 4.54167740101774e-03
1.03379166666667e+00 3.08937213710130e-01 4.50596828406460e-03
1.03737500000000e+00 3.05976509623411e-01 4.47051308444509e-03
1.04095833333333e+00 3.03044179468056e-01 4.43531040305324e-03
1.04454166666667e+00 3.00139951348368e-01 4.40035884101118e-03
1.04812500000000e+00 2.97263555947826e-01 4.36565702730822e-03
1.05170833333333e+00 2.94414726505853e-01 4.33120356423536e-03
1.05529166666667e+00 2.91593198868960e-01 4.29699705483209e-03
1.05887500000000e+00 2.88798711389659e-01 4.26303612959469e-03
1.06245833333333e+00 2.86031004903868e-01 4.22931939372866e-03
1.06604166666667e+00 2.83289822779853e-01 4.19584545366938e-03
1.06962500000000e+00 2.80574910820777e-01 4.16261294289272e-03
1.07320833333333e+00 2.77886017242722e-01 4.12962047092234e-03
1.07679166666667e+00 2.75222892721535e-01 4.09686664895705e-03
1.08037500000000e+00 2.72585290298861e-01 4.06435011481465e-03
1.08395833333333e+00 2.69972965360785e-01 4.03206948363378e-03
1.08754166666667e+00 2.67385675682650e-01 4.00002337263966e-03
1.09112500000000e+00 2.64823181338468e-01 3.96821042525128e-03
1.09470833333333e+00 2.62285244680135e-01 3.93662926341897e-03
1.09829166666667e+00 2.59771630380344e-01 3.90527851155854e-03
1.10187500000000e+00 2.57282105345214e-01 3.87415681985230e-03
1.10545833333333e+00 2.54816438694091e-01 3.84326281816485e-03
1.10904166666667e+00 2.52374401800615e-01 3.81259513917517e-03
1.11262500000000e+00 2.49955768208464e-01 3.78215244089900e-03
1.11620833333333e+00 2.47560313611714e-01 3.75193336212896e-03
1.11979166666667e+00 2.45187815894146e-01 3.72193654479297e-03
1.12337500000000e+00 2.42838055047990e-01 3.69216065572464e-03
1.12695833333333e+00 2.40510813154816e-01 3.66260434357606e-03
1.13054166666667e+00 2.38205874423178e-01 3.63326626042843e-03
