Energy (eV)          EEDF (eV^-(3/2))     First Anisotropy
2.90740740740741e-03 3.67286227897188e+00 2.57446115715368e-03
8.72222222222222e-03 3.62605174586876e+00 4.23832502067793e-03
1.45370370370370e-02 3.57983781184264e+00 5.56115131312017e-03
2.03518518518519e-02 3.53421287319753e+00 6.54570951419166e-03
2.61666666666667e-02 3.48916942301655e+00 7.35013106936349e-03
3.19814814814815e-02 3.44470005047097e+00 8.03473754290186e-03
3.77962962962963e-02 3.40079743893756e+00 8.63101006942201e-03
4.36111111111111e-02 3.35745436505156e+00 9.15811579870348e-03
4.94259259259259e-02 3.31466369751328e+00 9.62886943049142e-03
5.52407407407407e-02 3.27241839591573e+00 1.00524000899330e-02
6.10555555555556e-02 3.23071150958250e+00 1.04355184123709e-02
6.68703703703704e-02 3.18953617636426e+00 1.07834871438890e-02
7.26851851851852e-02 3.14888562169569e+00 1.11004872480111e-02
7.85000000000000e-02 3.10875315728595e+00 1.13899156423729e-02
8.43148148148148e-02 3.06913218008642e+00 1.16545838501060e-02
9.01296296296296e-02 3.03001617120463e+00 1.18968553902391e-02
9.59444444444444e-02 2.99139869483183e+00 1.21187436732891e-02
1.01759259259259e-01 2.95327339714746e+00 1.23219835463375e-02
1.07574074074074e-01 2.91563400528005e+00 1.25080846979784e-02
1.13388888888889e-01 2.87847432673498e+00 1.26783724336214e-02
1.19203703703704e-01 2.84178824725377e+00 1.28340191312807e-02
1.25018518518519e-01 2.80556973083580e+00 1.29760689266964e-02
1.30833333333333e-01 2.76981281840681e+00 1.31054574974655e-02
1.36648148148148e-01 2.73451162683982e+00 1.32230279097794e-02
1.42462962962963e-01 2.69966034798955e+00 1.33295435247826e-02
1.48277777777778e-01 2.66525324795845e+00 1.34256986892601e-02
1.54092592592593e-01 2.63128466547020e+00 1.35121275124336e-02
1.59907407407407e-01 2.59774901163420e+00 1.35894112002017e-02
1.65722222222222e-01 2.56464076878781e+00 1.36580843339650e-02
1.71537037037037e-01 2.53195448959266e+00 1.37186401063636e-02
1.77351851851852e-01 2.49968479631015e+00 1.37715348780823e-02
1.83166666666667e-01 2.46782637938631e+00 1.38171920120845e-02
1.88981481481481e-01 2.43637399711757e+00 1.38560051808540e-02
1.94796296296296e-01 2.40532247460467e+00 1.38883413230170e-02
2.00611111111111e-01 2.37466670290249e+00 1.39145431577428e-02
2.06425925925926e-01 2.34440163817961e+00 1.39349313903302e-02
2.12240740740741e-01 2.31452230102262e+00 1.39498067105787e-02
2.18055555555556e-01 2.28502377520660e+00 1.39594514900659e-02
2.23870370370370e-01 2.25590120730272e+00 1.39641312840869e-02
2.29685185185185e-01 2.22714980573835e+00 1.39640962414826e-02
2.35500000000000e-01 2.19876484000994e+00 1.39595822951161e-02
2.41314814814815e-01 2.17074164001453e+00 1.39508122928526e-02
2.47129629629630e-01 2.14307559494491e+00 1.39379969532285e-02
2.52944444444444e-01 2.11576215287240e+00 1.39213357241031e-02
2.58759259259259e-01 2.08879681988192e+00 1.39010176228331e-02
2.64574074074074e-01 2.06217515933355e+00 1.38772219367090e-02
2.70388888888889e-01 2.03589279122442e+00 1.38501189162200e-02
2.76203703703704e-01 2.00994539118772e+00 1.38198703522830e-02
2.82018518518519e-01 1.98432869006531e+00 1.37866301007547e-02
2.87833333333333e-01 1.95903847310910e+00 1.37505446191127e-02
2.93648148148148e-01 1.93407057928772e+00 1.37117534140071e-02
2.99462962962963e-01 1.90942090060228e+00 1.36703894536194e-02
3.05277777777778e-01 1.88508538148584e+00 1.36265795860390e-02
3.11092592592593e-01 1.86106001790612e+00 1.35804448774165e-02
3.16907407407407e-01 1.83734085693981e+00 1.35321009224089e-02
3.22722222222222e-01 1.81392399604312e+00 1.34816581811360e-02
3.28537037037037e-01 1.79080558241040e+00 1.34292222436513e-02
3.34351851851852e-01 1.76798181240449e+00 1.33748941199707e-02
3.40166666666667e-01 1.74544893073457e+00 1.33187704668680e-02
3.45981481481481e-01 1.72320323003714e+00 1.32609437974146e-02
3.51796296296296e-01 1.70124105019876e+00 1.32015027209445e-02
3.57611111111111e-01 1.67955877775409e+00 1.31405321319286e-02
3.63425925925926e-01 1.65815284529135e+00 1.30781133875099e-02
3.69240740740741e-01 1.63701973091962e+00 1.30143245043716e-02
3.75055555555556e-01 1.61615595752446e+00 1.29492403053446e-02
3.80870370370370e-01 1.59555809236272e+00 1.28829325555848e-02
3.86685185185185e-01 1.57522274644131e+00 1.28154701299574e-02
3.92500000000000e-01 1.55514657395995e+00 1.27469191322929e-02
3.98314814814815e-01 1.53532627180751e+00 1.26773430431288e-02
4.04129629629630e-01 1.51575857887567e+00 1.26068028246365e-02
4.09944444444444e-01 1.49644027566704e+00 1.25353570184342e-02
4.15759259259259e-01 1.47736818371645e+00 1.24630618735611e-02
4.21574074074074e-01 1.45853916506830e+00 1.23899714329022e-02
4.27388888888889e-01 1.43995012180120e+00 1.23161376470552e-02
4.33203703703704e-01 1.42159799539366e+00 1.22416104510701e-02
4.39018518518518e-01 1.40347976634692e+00 1.21664378361297e-02
4.44833333333333e-01 1.38559245364560e+00 1.20906659498110e-02
4.50648148148148e-01 1.36793311426723e+00 1.20143391656307e-02
4.56462962962963e-01 1.35049884269816e+00 1.19375001498119e-02
4.62277777777778e-01 1.33328677049060e+00 1.18601899471216e-02
4.68092592592593e-01 1.31629406568391e+00 1.17824480347580e-02
4.73907407407407e-01 1.29951793244664e+00 1.17043123727842e-02
4.79722222222222e-01 1.28295561058004e+00 1.16258194809637e-02
4.85537037037037e-01 1.26660437506412e+00 1.15470044840205e-02
4.91351851851852e-01 1.25046153564017e+00 1.14679011808689e-02
4.97166666666667e-01 1.23452443627412e+00 1.13885420853962e-02
5.02981481481481e-01 1.21879045481460e+00 1.13089584646535e-02
5.08796296296296e-01 1.20325700252945e+00 1.12291804015561e-02
5.14611111111111e-01 1.18792152367984e+00 1.11492368339932e-02
5.20425925925926e-01 1.17278149509980e+00 1.10691555928226e-02
5.26240740740741e-01 1.15783442580786e+00 1.09889634564551e-02
5.32055555555556e-01 1.14307785651580e+00 1.09086861804685e-02
5.37870370370370e-01 1.12850935930635e+00 1.08283485253131e-02
5.43685185185185e-01 1.11412653720592e+00 1.07479743063776e-02
5.49500000000000e-01 1.09992702379036e+00 1.06675864191370e-02
5.55314814814815e-01 1.08590848281933e+00 1.05872068845846e-02
5.61129629629630e-01 1.07206860777966e+00 1.05068568721356e-02
5.66944444444444e-01 1.05840512157899e+00 1.04265567210445e-02
5.72759259259259e-01 1.04491577614633e+00 1.03463259824307e-02
5.78574074074074e-01 1.03159835206235e+00 1.02661834387800e-02
5.84388888888889e-01 1.01845065821536e+00 1.01861471421666e-02
5.90203703703704e-01 1.00547053137653e+00 1.01062344320988e-02
5.96018518518519e-01 9.92655835908906e-01 1.00264619521620e-02
6.01833333333333e-01 9.80004463394172e-01 9.94684568566163e-03
6.07648148148148e-01 9.67514332285721e-01 9.86740097431518e-03
6.13462962962963e-01 9.55183387566232e-01 9.78814253670080e-03
6.19277777777778e-01 9.43009600428058e-01 9.70908449972775e-03
6.25092592592593e-01 9.30990967883208e-01 9.63024041192065e-03
6.30907407407407e-01 9.19125512490620e-01 9.55162325577485e-03
6.36722222222222e-01 9.07411282011618e-01 9.47324547733925e-03
6.42537037037037e-01 8.95846349088797e-01 9.39511899754092e-03
6.48351851851852e-01 8.84428810945454e-01 9.31725523918463e-03
6.54166666666667e-01 8.73156789022229e-01 9.23966513738186e-03
6.59981481481481e-01 8.62028428718856e-01 9.16235914921338e-03
6.65796296296296e-01 8.51041899071873e-01 9.08534727925986e-03
6.71611111111111e-01 8.40195392453404e-01 9.00863909136038e-03
6.77425925925926e-01 8.29487124273755e-01 8.93224372034241e-03
6.83240740740741e-01 8.18915332702367e-01 8.85616989468603e-03
6.89055555555556e-01 8.08478278333703e-01 8.78042594432713e-03
6.94870370370370e-01 7.98174243945765e-01 8.70501980783569e-03
7.00685185185185e-01 7.88001534202483e-01 8.62995905399349e-03
7.06500000000000e-01 7.77958475374820e-01 8.55525088840808e-03
7.12314814814815e-01 7.68043415078482e-01 8.48090217322959e-03
7.18129629629630e-01 7.58254721962299e-01 8.40691943327068e-03
7.23944444444444e-01 7.48590785479985e-01 8.33330886160600e-03
7.29759259259259e-01 7.39050015611598e-01 8.26007633842607e-03
7.35574074074074e-01 7.29630842601972e-01 8.18722743619513e-03
7.41388888888889e-01 7.20331716714236e-01 8.11476743688642e-03
7.47203703703704e-01 7.11151107939049e-01 8.04270133676980e-03
7.53018518518518e-01 7.02087505779018e-01 7.97103385074985e-03
7.58833333333333e-01 6.93139418987989e-01 7.89976942892216e-03
7.64648148148148e-01 6.84305375325693e-01 7.82891226277298e-03
7.70462962962963e-01 6.75583921315536e-01 7.75846629147001e-03
7.76277777777778e-01 6.66973622015890e-01 7.68843521662282e-03
7.82092592592593e-01 6.58473060752333e-01 7.61882250580566e-03
7.87907407407407e-01 6.50080838916560e-01 7.54963139570994e-03
7.93722222222222e-01 6.41795575725468e-01 7.48086490638588e-03
7.99537037037037e-01 6.33615907994018e-01 7.41252584414945e-03
8.05351851851852e-01 6.25540489920360e-01 7.34461681460465e-03
8.11166666666667e-01 6.17567992835813e-01 7.27714022534565e-03
8.16981481481481e-01 6.09697105015147e-01 7.21009828833898e-03
8.22796296296296e-01 6.01926531451024e-01 7.14349303253178e-03
8.28611111111111e-01 5.94254993640942e-01 7.07732630788185e-03
8.34425925925926e-01 5.86681229376885e-01 7.01159978950435e-03
8.40240740740741e-01 5.79203992546023e-01 6.94631498892614e-03
8.46055555555555e-01 5.71822052900289e-01 6.88147325600672e-03
8.51870370370370e-01 5.64534195879622e-01 6.81707578058363e-03
8.57685185185185e-01 5.57339222403489e-01 6.75312360341589e-03
8.63500000000000e-01 5.50235948673614e-01 6.68961761769875e-03
8.69314814814815e-01 5.43223205986790e-01 6.62655857906151e-03
8.75129629629630e-01 5.36299840519584e-01 6.56394710697573e-03
8.80944444444444e-01 5.29464713161738e-01 6.50178368592466e-03
8.86759259259259e-01 5.22716699320911e-01 6.44006867514962e-03
8.92574074074074e-01 5.16054688737668e-01 6.37880230971903e-03
8.98388888888889e-01 5.09477585309689e-01 6.31798470943077e-03
9.04203703703704e-01 5.02984306890558e-01 6.25761587980718e-03
9.10018518518518e-01 4.96573785132791e-01 6.19769571287729e-03
9.15833333333333e-01 4.90244965304960e-01 6.13822399588157e-03
9.21648148148148e-01 4.83996806118155e-01 6.07920041339903e-03
9.27462962962963e-01 4.77828279554675e-01 6.02062454959479e-03
9.33277777777778e-01 4.71738370705013e-01 5.96249589599264e-03
9.39092592592592e-01 4.65726077582271e-01 5.90481385207022e-03
9.44907407407407e-01 4.59790410976094e-01 5.84757772567261e-03
9.50722222222222e-01 4.53930394283577e-01 5.79078674063373e-03
9.56537037037037e-01 4.48145063348599e-01 5.73444003714252e-03
9.62351851851852e-01 4.42433466308767e-01 5.67853667869777e-03
9.68166666666667e-01 4.36794663421887e-01 5.62307565244259e-03
9.73981481481481e-01 4.31227726928436e-01 5.56805586933876e-03
9.79796296296296e-01 4.25731740893150e-01 5.51347617100195e-03
9.85611111111111e-01 4.20305801054342e-01 5.45933533103507e-03
9.91425925925926e-01 4.14949014675114e-01 5.40563205647539e-03
9.97240740740741e-01 4.09660500401469e-01 5.35236499621307e-03
1.00305555555556e+00 4.04439388092356e-01 5.29953272837513e-03
1.00887037037037e+00 3.99284818745525e-01 5.24713378776961e-03
1.01468518518519e+00 3.94195944224727e-01 5.19516664276356e-03
1.02050000000000e+00 3.89171927298276e-01 5.14362971061369e-03
1.02631481481481e+00 3.84211941311612e-01 5.09252135869796e-03
1.03212962962963e+00 3.79315170237545e-01 5.04183990398707e-03
1.03794444444444e+00 3.74480808359104e-01 4.99158361771962e-03
1.04375925925926e+00 3.69708060316563e-01 4.94175072483240e-03
1.04957407407407e+00 3.64996140800218e-01 4.89233940843432e-03
1.05538888888889e+00 3.60344274594373e-01 4.84334780919978e-03
1.06120370370370e+00 3.55751696279706e-01 4.79477402965173e-03
1.06701851851852e+00 3.51217650274375e-01 4.74661613352233e-03
1.07283333333333e+00 3.46741390545644e-01 4.69887214985382e-03
1.07864814814815e+00 3.42322180648266e-01 4.65154007232972e-03
1.08446296296296e+00 3.37959293445061e-01 4.60461786320187e-03
1.09027777777778e+00 3.33652011142715e-01 4.55810345259558e-03
1.09609259259259e+00 3.29399625021006e-01 4.51199474227178e-03
1.10190740740741e+00 3.25201435466162e-01 4.46628959618375e-03
1.10772222222222e+00 3.21056751743604e-01 4.42098587910044e-03
1.11353703703704e+00 3.16964891887908e-01 4.37608140367323e-03
1.11935185185185e+00 3.12925182694714e-01 4.33157396709467e-03
1.12516666666667e+00 3.08936959471424e-01 4.28746134508166e-03
1.13098148148148e+00 3.04999566063937e-01 4.24374129113144e-03
1.13679629629630e+00 3.01112354614987e-01 4.20041153974245e-03
1.14261111111111e+00 2.97274685588910e-01 4.15746980565672e-03
1.14842592592593e+00 2.93485927537357e-01 4.11491378694669e-03
1.15424074074074e+00 2.89745457122211e-01 4.07274116424523e-03
1.16005555555556e+00 2.86052658888433e-01 4.03094960370503e-03
1.16587037037037e+00 2.82406925285221e-01 3.98953675621818e-03
1.17168518518519e+00 2.78807656445761e-01 3.94850026025352e-03
1.17750000000000e+00 2.75254260206725e-01 3.90783774106793e-03
1.18331481481481e+00 2.71746151894703e-01 3.86754681342706e-03
1.18912962962963e+00 2.68282754344128e-01 3.82762508081003e-03
1.19494444444444e+00 2.64863497690168e-01 3.78807013801835e-03
1.20075925925926e+00 2.61487819385171e-01 3.74887957037593e-03
1.20657407407407e+00 2.58155163997811e-01 3.71005095623087e-03
1.21238888888889e+00 2.54864983228127e-01 3.67158186615193e-03
1.21820370370370e+00 2.51616735712721e-01 3.63346986532857e-03
1.22401851851852e+00 2.48409887038475e-01 3.59571251276483e-03
1.22983333333333e+00 2.45243909553605e-01 3.55830736358170e-03
1.23564814814815e+00 2.42118282380126e-01 3.52125196821009e-03
1.24146296296296e+00 2.39032491230576e-01 3.48454387459977e-03
1.24727777777778e+00 2.35986028419303e-01 3.44818062741225e-03
1.25309259259259e+00 2.32978392684674e-01 3.41215977014005e-03
1.25890740740741e+00 2.30009089199248e-01 3.37647883852646e-03
1.26472222222222e+00 2.27077629419069e-01 3.34113538577393e-03
1.27053703703704e+00 2.24183531005426e-01 3.30612694719704e-03
1.27635185185185e+00 2.21326317810032e-01 3.27145106415846e-03
1.28216666666667e+00 2.18505519710797e-01 3.23710527976689e-03
1.28798148148148e+00 2.15720672618905e-01 3.20308713808896e-03
1.29379629629630e+00 2.12971318319465e-01 3.16939418597340e-03
1.29961111111111e+00 2.10257004477704e-01 3.13602397226617e-03
1.30542592592593e+00 2.07577284484341e-01 3.10297404956141e-03
1.31124074074074e+00 2.04931717460954e-01 3.07024197342124e-03
1.31705555555556e+00 2.02319868109924e-01 3.03782530405613e-03
1.32287037037037e+00 1.99741306719025e-01 3.00572160554990e-03
1.32868518518519e+00 1.97195609015797e-01 2.97392844747247e-03
1.33450000000000e+00 1.94682356171404e-01 2.94244340411033e-03
1.34031481481481e+00 1.92201134659301e-01 2.91126405601516e-03
1.34612962962963e+00 1.89751536258399e-01 2.88038798924040e-03
1.35194444444444e+00 1.87333157915893e-01 2.84981279682780e-03
1.35775925925926e+00 1.84945601749779e-01 2.81953607805053e-03
1.36357407407407e+00 1.82588474915714e-01 2.78955543984006e-03
1.36938888888889e+00 1.80261389608919e-01 2.75986849603675e-03
1.37520370370370e+00 1.77963962934953e-01 2.73047286875985e-03
1.38101851851852e+00 1.75695816911041e-01 2.70136618766518e-03
1.38683333333333e+00 1.73456578340628e-01 2.67254609126067e-03
1.39264814814815e+00 1.71245878814180e-01 2.64401022617186e-03
1.39846296296296e+00 1.69063354587403e-01 2.61575624840483e-03
1.40427777777778e+00 1.66908646581541e-01 2.58778182261974e-03
1.41009259259259e+00 1.64781400265154e-01 2.56008462334399e-03
1.41590740740741e+00 1.62681265653945e-01 2.53266233040254e-03
1.42172222222222e+00 1.60607897209677e-01 2.50551264553918e-03
1.42753703703704e+00 1.58560953784612e-01 2.47863326866683e-03
1.43335185185185e+00 1.56540098606012e-01 2.45202191365420e-03
1.43916666666667e+00 1.54544999166665e-01 2.42567630528000e-03
1.44498148148148e+00 1.52575327223349e-01 2.39959417854311e-03
1.45079629629630e+00 1.50630758690531e-01 2.37377327970867e-03
1.45661111111111e+00 1.48710973638476e-01 2.34821136562703e-03
1.46242592592593e+00 1.46815656190026e-01 2.32290620473839e-03
1.46824074074074e+00 1.44944494518378e-01 2.29785557640062e-03
1.47405555555556e+00 1.43097180746845e-01 2.27305727185429e-03
1.47987037037037e+00 1.41273410946334e-01 2.24850909355946e-03
1.48568518518519e+00 1.39472885037995e-01 2.22420885612212e-03
1.49150000000000e+00 1.37695306790417e-01 2.20015438564061e-03
1.49731481481481e+00 1.35940383725086e-01 2.17634352059526e-03
1.50312962962963e+00 1.34207827113311e-01 2.15277411120400e-03
1.50894444444444e+00 1.32497351884412e-01 2.12944402027690e-03
1.51475925925926e+00 1.30808676622400e-01 2.10635112258098e-03
1.52057407407407e+00 1.29141523476802e-01 2.08349330566088e-03
1.52638888888889e+00 1.27495618159121e-01 2.06086846921338e-03
1.53220370370370e+00 1.25870689856219e-01 2.03847452587524e-03
1.53801851851852e+00 1.24266471226570e-01 2.01630940060729e-03
1.54383333333333e+00 1.22682698316132e-01 1.99437103145108e-03
1.54964814814815e+00 1.21119110554405e-01 1.97265736892245e-03
1.55546296296296e+00 1.19575450672714e-01 1.95116637673822e-03
1.56127777777778e+00 1.18051464700093e-01 1.92989603121924e-03
1.56709259259259e+00 1.16546901883910e-01 1.90884432198826e-03
1.57290740740741e+00 1.15061514685588e-01 1.88800924879777e-03
1.57872222222222e+00 1.13595058712216e-01 1.86738883257320e-03
1.58453703703704e+00 1.12147292677140e-01 1.84698109937236e-03
1.59035185185185e+00 1.10717978386149e-01 1.82678409087533e-03
1.59616666666667e+00 1.09306880663838e-01 1.80679586223739e-03
1.60198148148148e+00 1.07913767348807e-01 1.78701448152916e-03
1.60779629629630e+00 1.06538409222114e-01 1.76743803033836e-03
1.61361111111111e+00 1.05180580002374e-01 1.74806460321927e-03
1.61942592592593e+00 1.03840056276246e-01 1.72889230827079e-03
1.62524074074074e+00 1.02516617493434e-01 1.70991926659509e-03
1.63105555555556e+00 1.01210045899155e-01 1.69114361285250e-03
1.63687037037037e+00 9.99201265290525e-02 1.67256349472948e-03
1.64268518518519e+00 9.86466471435789e-02 1.65417707347147e-03
1.64850000000000e+00 9.73893982228421e-02 1.63598252336007e-03
1.65431481481481e+00 9.61481729028419e-02 1.61797803222458e-03
1.66012962962963e+00 9.49227669702565e-02 1.60016180092819e-03
1.66594444444444e+00 9.37129788004827e-02 1.58253204385917e-03
1.67175925925926e+00 9.25186093523682e-02 1.56508698842629e-03
1.67757407407407e+00 9.13394621080044e-02 1.54782487553019e-03
1.68338888888889e+00 9.01753430674122e-02 1.53074395906777e-03
1.68920370370370e+00 8.90260606900356e-02 1.51384250638482e-03
1.69501851851852e+00 8.78914258893902e-02 1.49711879778925e-03
1.70083333333333e+00 8.67712519762072e-02 1.48057112698562e-03
1.70664814814815e+00 8.56653546530517e-02 1.46419780059715e-03
1.71246296296296e+00 8.45735519590694e-02 1.44799713858276e-03
1.71827777777778e+00 8.34956642645820e-02 1.43196747376800e-03
1.72409259259259e+00 8.24315142173893e-02 1.41610715224532e-03
1.72990740740741e+00 8.13809267373480e-02 1.40041453117018e-03
1.73572222222222e+00 8.03437289697939e-02 1.38488798614146e-03
1.74153703703704e+00 7.93197502576015e-02 1.36952590032014e-03
1.74735185185185e+00 7.83088221297687e-02 1.35432667144078e-03
1.75316666666667e+00 7.73107782515250e-02 1.33928871030009e-03
1.75898148148148e+00 7.63254544187857e-02 1.32441044031979e-03
1.76479629629630e+00 7.53526885096593e-02 1.30969029789105e-03
1.77061111111111e+00 7.43923204789096e-02 1.29512673194561e-03
1.77642592592593e+00 7.34441923108212e-02 1.28071820428632e-03
1.78224074074074e+00 7.25081480136740e-02 1.26646318916630e-03
1.78805555555556e+00 7.15840335739286e-02 1.25236017360628e-03
1.79387037037037e+00 7.06716969507167e-02 1.23840765698155e-03
1.79968518518518e+00 6.97709880313083e-02 1.22460415132645e-03
1.80550000000000e+00 6.88817586256230e-02 1.21094818092943e-03
1.81131481481481e+00 6.80038624229413e-02 1.19743828262497e-03
1.81712962962963e+00 6.71371549864409e-02 1.18407300539647e-03
1.82294444444444e+00 6.62814937111162e-02 1.17085091065645e-03
1.82875925925926e+00 6.54367378183434e-02 1.15777057185699e-03
1.83457407407407e+00 6.46027483149733e-02 1.14483057475836e-03
