Energy (eV)          EEDF (eV^-(3/2))     First Anisotropy
2.26315789473684e-03 1.73786257376819e+00 8.49286719378582e-04
6.78947368421053e-03 1.72738229812778e+00 1.40290137965446e-03
1.13157894736842e-02 1.71696522436187e+00 1.85328101810087e-03
1.58421052631579e-02 1.70661097130103e+00 2.19622572637433e-03
2.03684210526316e-02 1.69631916013405e+00 2.48289875013078e-03
2.48947368421053e-02 1.68608941434553e+00 2.73262037258029e-03
2.94210526315790e-02 1.67592135959427e+00 2.95537714970841e-03
3.39473684210526e-02 1.66581462385074e+00 3.15719276856357e-03
3.84736842105263e-02 1.65576883732837e+00 3.34205772821402e-03
4.30000000000000e-02 1.64578363247031e+00 3.51278925708996e-03
4.75263157894737e-02 1.63585864393586e+00 3.67147047384311e-03
5.20526315789474e-02 1.62599350858750e+00 3.81969702897245e-03
5.65789473684211e-02 1.61618786547770e+00 3.95872574146900e-03
6.11052631578947e-02 1.60644135583554e+00 4.08956919919134e-03
6.56315789473684e-02 1.59675362305362e+00 4.21305865173018e-03
7.01578947368421e-02 1.58712431268885e+00 4.32988735168553e-03
7.46842105263158e-02 1.57755307240714e+00 4.44064131782709e-03
7.92105263157895e-02 1.56803955201388e+00 4.54582173489264e-03
8.37368421052632e-02 1.55858340342627e+00 4.64586163065337e-03
8.82631578947368e-02 1.54918428066064e+00 4.74113851998522e-03
9.27894736842105e-02 1.53984183981968e+00 4.83198415730801e-03
9.73157894736842e-02 1.53055573908005e+00 4.91869216962694e-03
1.01842105263158e-01 1.52132563867978e+00 5.00152410774219e-03
1.06368421052632e-01 1.51215120092250e+00 5.08071431275555e-03
1.10894736842105e-01 1.50303209009835e+00 5.15647384730422e-03
1.15421052631579e-01 1.49396797255604e+00 5.22899371787368e-03
1.19947368421053e-01 1.48495851665707e+00 5.29844754210569e-03
1.24473684210526e-01 1.47600339283406e+00 5.36499379605832e-03
1.29000000000000e-01 1.46710227336206e+00 5.42877765721400e-03
1.33526315789474e-01 1.45825483256569e+00 5.48993255856286e-03
1.38052631578947e-01 1.44946074673349e+00 5.54858154975077e-03
1.42578947368421e-01 1.44071969416654e+00 5.60483845993045e-03
1.47105263157895e-01 1.43203135498401e+00 5.65880886440139e-03
1.51631578947368e-01 1.42339541129584e+00 5.71059091768524e-03
1.56157894736842e-01 1.41481154712858e+00 5.76027612150709e-03
1.60684210526316e-01 1.40627944841450e+00 5.80794995260469e-03
1.65210526315790e-01 1.39779880303023e+00 5.85369245357868e-03
1.69736842105263e-01 1.38936930063279e+00 5.89757871376212e-03
1.74263157894737e-01 1.38099063280225e+00 5.93967929189902e-03
1.78789473684211e-01 1.37266249297823e+00 5.98006063091255e-03
1.83315789473684e-01 1.36438457644941e+00 6.01878538812885e-03
1.87842105263158e-01 1.35615658038493e+00 6.05591276705886e-03
1.92368421052632e-01 1.34797820369333e+00 6.09149877842392e-03
1.96894736842105e-01 1.33984914714271e+00 6.12559647277743e-03
2.01421052631579e-01 1.33176911330552e+00 6.15825618665742e-03
2.05947368421053e-01 1.32373780654807e+00 6.18952572915991e-03
2.10473684210526e-01 1.31575493305662e+00 6.21945058482532e-03
2.15000000000000e-01 1.30782020071420e+00 6.24807406455007e-03
2.19526315789474e-01 1.29993331920324e+00 6.27543744131236e-03
2.24052631578947e-01 1.29209399995698e+00 6.30158010131337e-03
2.28578947368421e-01 1.28430195618211e+00 6.32653968077603e-03
2.33105263157895e-01 1.27655690274785e+00 6.35035216669029e-03
2.37631578947368e-01 1.26885855627671e+00 6.37305198788611e-03
2.42157894736842e-01 1.26120663509997e+00 6.39467213033116e-03
2.46684210526316e-01 1.25360085924764e+00 6.41524421237991e-03
2.51210526315789e-01 1.24604095046740e+00 6.43479858371308e-03
2.55736842105263e-01 1.23852663212581e+00 6.45336438786285e-03
2.60263157894737e-01 1.23105762928752e+00 6.47096961899052e-03
2.64789473684211e-01 1.22363366867501e+00 6.48764120385937e-03
2.69315789473684e-01 1.21625447865895e+00 6.50340504919460e-03
2.73842105263158e-01 1.20891978927412e+00 6.51828611325347e-03
2.78368421052632e-01 1.20162933213074e+00 6.53230844547372e-03
2.82894736842105e-01 1.19438284048405e+00 6.54549522251410e-03
2.87421052631579e-01 1.18718004919785e+00 6.55786880931309e-03
2.91947368421053e-01 1.18002069473494e+00 6.56945078933125e-03
2.96473684210526e-01 1.17290451517076e+00 6.58026201856991e-03
3.01000000000000e-01 1.16583125011316e+00 6.59032265097964e-03
3.05526315789474e-01 1.15880064076400e+00 6.59965216147562e-03
3.10052631578947e-01 1.15181242988582e+00 6.60826938834810e-03
3.14578947368421e-01 1.14486636181395e+00 6.61619257218517e-03
3.19105263157895e-01 1.13796218238228e+00 6.62343937369833e-03
3.23631578947368e-01 1.13109963897926e+00 6.63002688978462e-03
3.28157894736842e-01 1.12427848051663e+00 6.63597169294484e-03
3.32684210526316e-01 1.11749845742039e+00 6.64128984469911e-03
3.37210526315790e-01 1.11075932164101e+00 6.64599693113031e-03
3.41736842105263e-01 1.10406082658576e+00 6.65010807409476e-03
3.46263157894737e-01 1.09740272716865e+00 6.65363794122115e-03
3.50789473684211e-01 1.09078477978167e+00 6.65660077817160e-03
3.55315789473684e-01 1.08420674228592e+00 6.65901041688055e-03
3.59842105263158e-01 1.07766837402041e+00 6.66088030489995e-03
3.64368421052632e-01 1.07116943573990e+00 6.66222351215420e-03
3.68894736842105e-01 1.06470968965981e+00 6.66305273682375e-03
3.73421052631579e-01 1.05828889942952e+00 6.66338033241910e-03
3.77947368421053e-01 1.05190683012376e+00 6.66321831249617e-03
3.82473684210526e-01 1.04556324825010e+00 6.66257837542366e-03
3.87000000000000e-01 1.03925792169176e+00 6.66147190809776e-03
3.91526315789474e-01 1.03299061974803e+00 6.65990998899274e-03
3.96052631578947e-01 1.02676111310949e+00 6.65790340749521e-03
4.00578947368421e-01 1.02056917386454e+00 6.65546268163163e-03
4.05105263157895e-01 1.01441457544591e+00 6.65259806006816e-03
4.09631578947368e-01 1.00829709266778e+00 6.64931952357639e-03
4.14157894736842e-01 1.00221650170232e+00 6.64563680572452e-03
4.18684210526316e-01 9.96172580071514e-01 6.64155939375051e-03
4.23210526315790e-01 9.90165106652785e-01 6.63709654766067e-03
4.27736842105263e-01 9.84193861629344e-01 6.63225730062085e-03
4.32263157894737e-01 9.78258626523960e-01 6.62705045894794e-03
4.36789473684211e-01 9.72359184176894e-01 6.62148462033086e-03
4.41315789473684e-01 9.66495318738042e-01 6.61556817342056e-03
4.45842105263158e-01 9.60666815671670e-01 6.60930931472428e-03
4.50368421052632e-01 9.54873461710293e-01 6.60271604786517e-03
4.54894736842105e-01 9.49115044885381e-01 6.59579618252603e-03
4.59421052631579e-01 9.43391354506668e-01 6.58855735070603e-03
4.63947368421053e-01 9.37702181154494e-01 6.58100700540792e-03
4.68473684210526e-01 9.32047316683823e-01 6.57315243574470e-03
4.73000000000000e-01 9.26426554181280e-01 6.56500076541044e-03
4.77526315789474e-01 9.20839687993135e-01 6.55655895088239e-03
4.82052631578947e-01 9.15286513705859e-01 6.54783379296066e-03
4.86578947368421e-01 9.09766828149642e-01 6.53883194730668e-03
4.91105263157895e-01 9.04280429357812e-01 6.52955992247783e-03
4.95631578947368e-01 8.98827116592781e-01 6.52002407773183e-03
5.00157894736842e-01 8.93406690327491e-01 6.51023063656552e-03
5.04684210526316e-01 8.88018952238161e-01 6.50018568440142e-03
5.09210526315790e-01 8.82663705207196e-01 6.48989518122267e-03
5.13736842105263e-01 8.77340753285245e-01 6.47936495918230e-03
5.18263157894737e-01 8.72049901714943e-01 6.46860072002792e-03
5.22789473684211e-01 8.66790956913392e-01 6.45760804747547e-03
5.27315789473684e-01 8.61563726465133e-01 6.44639240456905e-03
5.31842105263158e-01 8.56368019124535e-01 6.43495914525745e-03
5.36368421052632e-01 8.51203644780252e-01 6.42331351171299e-03
5.40894736842105e-01 8.46070414476981e-01 6.41146063149359e-03
5.45421052631579e-01 8.40968140398911e-01 6.39940552893219e-03
5.49947368421053e-01 8.35896635862881e-01 6.38715312228002e-03
5.54473684210526e-01 8.30855715320338e-01 6.37470823436634e-03
5.59000000000000e-01 8.25845194323973e-01 6.36207558973231e-03
5.63526315789474e-01 8.20864889547696e-01 6.34925981162336e-03
5.68052631578947e-01 8.15914618770972e-01 6.33626542996602e-03
5.72578947368421e-01 8.10994200880475e-01 6.32309688862929e-03
5.77105263157895e-01 8.06103455838384e-01 6.30975854247743e-03
5.81631578947368e-01 8.01242204701004e-01 6.29625465429490e-03
5.86157894736842e-01 7.96410269603756e-01 6.28258940469777e-03
5.90684210526316e-01 7.91607473754693e-01 6.26876688907298e-03
5.95210526315790e-01 7.86833641435781e-01 6.25479112688002e-03
5.99736842105263e-01 7.82088597973062e-01 6.24066605862468e-03
6.04263157894737e-01 7.77372169753802e-01 6.22639554272633e-03
6.08789473684211e-01 7.72684184212229e-01 6.21198336475323e-03
6.13315789473684e-01 7.68024469823258e-01 6.19743323432155e-03
6.17842105263158e-01 7.63392856103445e-01 6.18274879377505e-03
6.22368421052632e-01 7.58789173582869e-01 6.16793361512382e-03
6.26894736842105e-01 7.54213253820936e-01 6.15299119689095e-03
6.31421052631579e-01 7.49664929392834e-01 6.13792497275249e-03
6.35947368421053e-01 7.45144033883426e-01 6.12273830842846e-03
6.40473684210526e-01 7.40650401887940e-01 6.10743450980522e-03
6.45000000000000e-01 7.36183868985432e-01 6.09201681987824e-03
6.49526315789474e-01 7.31744271753364e-01 6.07648841560255e-03
6.54052631578947e-01 7.27331447754724e-01 6.06085241387269e-03
6.58578947368421e-01 7.22945235538531e-01 6.04511187695636e-03
6.63105263157895e-01 7.18585474614500e-01 6.02926980946686e-03
6.67631578947368e-01 7.14252005466696e-01 6.01332915525052e-03
6.72157894736842e-01 7.09944669541144e-01 5.99729280508831e-03
6.76684210526316e-01 7.05663309240042e-01 5.98116359363779e-03
6.81210526315790e-01 7.01407767922032e-01 5.96494430668372e-03
6.85736842105263e-01 6.97177889878249e-01 5.94863767814272e-03
6.90263157894737e-01 6.92973520344941e-01 5.93224638699715e-03
6.94789473684211e-01 6.88794505491654e-01 5.91577306454974e-03
6.99315789473684e-01 6.84640692415630e-01 5.89922029141503e-03
7.03842105263158e-01 6.80511929141869e-01 5.88259060435598e-03
7.08368421052632e-01 6.76408064600462e-01 5.86588649333819e-03
7.12894736842105e-01 6.72328948638265e-01 5.84911039851901e-03
7.17421052631579e-01 6.68274432007630e-01 5.83226471709731e-03
7.21947368421053e-01 6.64244366360969e-01 5.81535180036641e-03
7.26473684210526e-01 6.60238604250641e-01 5.79837396016915e-03
7.31000000000000e-01 6.56256999107474e-01 5.78133346601368e-03
7.35526315789474e-01 6.52299405251575e-01 5.76423254212646e-03
7.40052631578947e-01 6.48365677881579e-01 5.74707337214994e-03
7.44578947368421e-01 6.44455673074431e-01 5.72985810340543e-03
7.49105263157895e-01 6.40569247764815e-01 5.71258884407354e-03
7.53631578947369e-01 6.36706259755303e-01 5.69526766031274e-03
7.58157894736842e-01 6.32866567705989e-01 5.67789658245241e-03
7.62684210526316e-01 6.29050031129329e-01 5.66047760217402e-03
7.67210526315790e-01 6.25256510389774e-01 5.64301267835188e-03
7.71736842105263e-01 6.21485866684255e-01 5.62550373430083e-03
7.76263157894737e-01 6.17737962051585e-01 5.60795265497396e-03
7.80789473684211e-01 6.14012659362553e-01 5.59036129283216e-03
7.85315789473684e-01 6.10309822314919e-01 5.57273146510120e-03
7.89842105263158e-01 6.06629315432926e-01 5.55506495931592e-03
7.94368421052632e-01 6.02971004048759e-01 5.53736353064122e-03
7.98894736842105e-01 5.99334754311269e-01 5.51962889914504e-03
8.03421052631579e-01 5.95720433176501e-01 5.50186275537404e-03
8.07947368421053e-01 5.92127908402834e-01 5.48406675769093e-03
8.12473684210526e-01 5.88557048550385e-01 5.46624253753678e-03
8.17000000000000e-01 5.85007722963389e-01 5.44839169683107e-03
8.21526315789474e-01 5.81479801778291e-01 5.43051580532314e-03
8.26052631578947e-01 5.77973155914687e-01 5.41261640438927e-03
8.30578947368421e-01 5.74487657074656e-01 5.39469501047718e-03
8.35105263157895e-01 5.71023177725838e-01 5.37675311257648e-03
8.39631578947369e-01 5.67579591109059e-01 5.35879216964143e-03
8.44157894736842e-01 5.64156771229564e-01 5.34081361567721e-03
8.48684210526316e-01 5.60754592852421e-01 5.32281885722202e-03
8.53210526315790e-01 5.57372931501764e-01 5.30480927814992e-03
8.57736842105263e-01 5.54011663444693e-01 5.28678623721826e-03
8.62263157894737e-01 5.50670665698348e-01 5.26875106557254e-03
8.66789473684211e-01 5.47349816021520e-01 5.25070507158694e-03
8.71315789473684e-01 5.44048992910186e-01 5.23264953842744e-03
8.75842105263158e-01 5.40768075596682e-01 5.21458572862864e-03
8.80368421052632e-01 5.37506944034362e-01 5.19651488171720e-03
8.84894736842105e-01 5.34265478904186e-01 5.17843821179565e-03
8.89421052631579e-01 5.31043561606665e-01 5.16035691215737e-03
8.93947368421053e-01 5.27841074257540e-01 5.14227215293014e-03
8.98473684210526e-01 5.24657899686878e-01 5.12418508543597e-03
9.03000000000000e-01 5.21493921424469e-01 5.10609683989389e-03
9.07526315789474e-01 5.18349023705936e-01 5.08800852308200e-03
9.12052631578947e-01 5.15223091465025e-01 5.06992122146327e-03
9.16578947368421e-01 5.12116010332669e-01 5.05183600402143e-03
9.21105263157895e-01 5.09027666622935e-01 5.03375392002919e-03
9.25631578947368e-01 5.05957947338782e-01 5.01567599677893e-03
9.30157894736842e-01 5.02906740164602e-01 4.99760324381712e-03
9.34684210526316e-01 4.99873933462112e-01 4.97953665072850e-03
9.39210526315790e-01 4.96859416269370e-01 4.96147719113916e-03
9.43736842105263e-01 4.93863078287370e-01 4.94342582055868e-03
9.48263157894737e-01 4.90884809885398e-01 4.92538347418733e-03
9.52789473684211e-01 4.87924502093870e-01 4.90735107095888e-03
9.57315789473684e-01 4.84982046600351e-01 4.88932951140154e-03
9.61842105263158e-01 4.82057335748528e-01 4.87131968146113e-03
9.66368421052632e-01 4.79150262525416e-01 4.85332245041568e-03
9.70894736842105e-01 4.76260720566338e-01 4.83533866875816e-03
9.75421052631579e-01 4.73388604148053e-01 4.81736917205910e-03
9.79947368421053e-01 4.70533808184896e-01 4.79941477890138e-03
9.84473684210526e-01 4.67696228227706e-01 4.78147629453360e-03
9.89000000000000e-01 4.64875760451617e-01 4.76355450885686e-03
9.93526315789474e-01 4.62072301660692e-01 4.74565019437869e-03
9.98052631578948e-01 4.59285749281323e-01 4.72776410990786e-03
1.00257894736842e+00 4.56516001358480e-01 4.70989700396948e-03
1.00710526315789e+00 4.53762956541391e-01 4.69204959556166e-03
1.01163157894737e+00 4.51026514127459e-01 4.67422260675395e-03
1.01615789473684e+00 4.48306573968789e-01 4.65641673964332e-03
1.02068421052632e+00 4.45603036573429e-01 4.63863268196346e-03
1.02521052631579e+00 4.42915802998022e-01 4.62087110864542e-03
1.02973684210526e+00 4.40244774946702e-01 4.60313268070329e-03
1.03426315789474e+00 4.37589854666158e-01 4.58541805693627e-03
1.03878947368421e+00 4.34950945017744e-01 4.56772785208803e-03
1.04331578947368e+00 4.32327949472984e-01 4.55006269922444e-03
1.04784210526316e+00 4.29720772036681e-01 4.53242320907286e-03
1.05236842105263e+00 4.27129317340831e-01 4.51480997949763e-03
1.05689473684211e+00 4.24553490544810e-01 4.49722359695405e-03
1.06142105263158e+00 4.21993197427140e-01 4.47966463543673e-03
1.06594736842105e+00 4.19448344287873e-01 4.46213366749152e-03
1.07047368421053e+00 4.16918838015519e-01 4.44463122473550e-03
1.07500000000000e+00 4.14404586082744e-01 4.42715785670703e-03
1.07952631578947e+00 4.11905496474808e-01 4.40971409247608e-03
1.08405263157895e+00 4.09421477776762e-01 4.39230044958303e-03
1.08857894736842e+00 4.06952439080552e-01 4.37491744461902e-03
1.09310526315789e+00 4.04498290048590e-01 4.35756555527015e-03
1.09763157894737e+00 4.02058940909614e-01 4.34024527687097e-03
1.10215789473684e+00 3.99634302390547e-01 4.32295708549366e-03
1.10668421052632e+00 3.97224285799390e-01 4.30570144654320e-03
1.11121052631579e+00 3.94828802936769e-01 4.28847881604441e-03
1.11573684210526e+00 3.92447766176973e-01 4.27128963967788e-03
1.12026315789474e+00 3.90081088381414e-01 4.25413436275812e-03
1.12478947368421e+00 3.87728682957689e-01 4.23701339437924e-03
1.12931578947368e+00 3.85390463855660e-01 4.21992716081225e-03
1.13384210526316e+00 3.83066345503909e-01 4.20287607064512e-03
1.13836842105263e+00 3.80756242886831e-01 4.18586052288691e-03
1.14289473684211e+00 3.78460071462180e-01 4.16888090817257e-03
1.14742105263158e+00 3.76177747236449e-01 4.15193760785147e-03
1.15194736842105e+00 3.73909186684176e-01 4.13503100339209e-03
1.15647368421053e+00 3.71654306802890e-01 4.11816144251280e-03
1.16100000000000e+00 3.69413025109356e-01 4.10132928962134e-03
1.16552631578947e+00 3.67185259580300e-01 4.08453489286569e-03
1.17005263157895e+00 3.64970928724147e-01 4.06777859178906e-03
1.17457894736842e+00 3.62769951504109e-01 4.05106072637429e-03
1.17910526315789e+00 3.60582247390462e-01 4.03438160446091e-03
1.18363157894737e+00 3.58407736356917e-01 4.01774155025116e-03
1.18815789473684e+00 3.56246338824104e-01 4.00114087261027e-03
1.19268421052632e+00 3.54097975727866e-01 3.98457987243260e-03
1.19721052631579e+00 3.51962568445923e-01 3.96805884371473e-03
1.20173684210526e+00 3.49840038864683e-01 3.95157807272064e-03
1.20626315789474e+00 3.47730309307437e-01 3.93513784652214e-03
1.21078947368421e+00 3.45633302583038e-01 3.91873842218875e-03
1.21531578947368e+00 3.43548941982453e-01 3.90238007263822e-03
1.21984210526316e+00 3.41477151225955e-01 3.88606305666676e-03
1.22436842105263e+00 3.39417854526765e-01 3.86978762590361e-03
1.22889473684211e+00 3.37370976522552e-01 3.85355402581820e-03
1.23342105263158e+00 3.35336442337707e-01 3.83736249493075e-03
1.23794736842105e+00 3.33314177516253e-01 3.82121327287327e-03
1.24247368421053e+00 3.31304108067218e-01 3.80510657125525e-03
1.24700000000000e+00 3.29306160461336e-01 3.78904261701937e-03
1.25152631578947e+00 3.27320261581685e-01 3.77302162408920e-03
1.25605263157895e+00 3.25346338783033e-01 3.75704379994537e-03
1.26057894736842e+00 3.23384319827807e-01 3.74110935338257e-03
1.26510526315789e+00 3.21434132929320e-01 3.72521846646632e-03
1.26963157894737e+00 3.19495706748575e-01 3.70937133625240e-03
1.27415789473684e+00 3.17568970347153e-01 3.69356814749455e-03
1.27868421052632e+00 3.15653853243765e-01 3.67780907897676e-03
1.28321052631579e+00 3.13750285353137e-01 3.66209430441304e-03
1.28773684210526e+00 3.11858197041374e-01 3.64642399172537e-03
1.29226315789474e+00 3.09977519066084e-01 3.63079831037710e-03
1.29678947368421e+00 3.08108182616687e-01 3.61521740483200e-03
1.30131578947368e+00 3.06250119311393e-01 3.59968143402691e-03
1.30584210526316e+00 3.04403261153085e-01 3.58419054554570e-03
1.31036842105263e+00 3.02567540582128e-01 3.56874488160478e-03
1.31489473684211e+00 3.00742890419172e-01 3.55334457989870e-03
1.31942105263158e+00 2.98929243916853e-01 3.53798977291748e-03
1.32394736842105e+00 2.97126534703745e-01 3.52268059487666e-03
1.32847368421053e+00 2.95334696822006e-01 3.50741715659687e-03
1.33300000000000e+00 2.93553664724476e-01 3.49219958286426e-03
1.33752631578947e+00 2.91783373233373e-01 3.47702798797638e-03
1.34205263157895e+00 2.90023757589619e-01 3.46190248140676e-03
1.34657894736842e+00 2.88274753399284e-01 3.44682317447790e-03
1.35110526315789e+00 2.86536296669492e-01 3.43179015616948e-03
1.35563157894737e+00 2.84808323805615e-01 3.41680352908854e-03
1.36015789473684e+00 2.83090771571798e-01 3.40186338591786e-03
1.36468421052632e+00 2.81383577138025e-01 3.38696981487352e-03
1.36921052631579e+00 2.79686678028935e-01 3.37212290046491e-03
1.37373684210526e+00 2.78000012169930e-01 3.35732272286918e-03
1.37826315789474e+00 2.76323517836998e-01 3.34256936424501e-03
1.38278947368421e+00 2.74657133690259e-01 3.32786288581913e-03
1.38731578947368e+00 2.73000798771304e-01 3.31320336194813e-03
1.39184210526316e+00 2.71354452466172e-01 3.29859085781429e-03
1.39636842105263e+00 2.69718034549370e-01 3.28402543458843e-03
1.40089473684211e+00 2.68091485135899e-01 3.26950715014630e-03
1.40542105263158e+00 2.66474744724369e-01 3.25503605847654e-03
1.40994736842105e+00 2.64867754149971e-01 3.24061221565243e-03
1.41447368421053e+00 2.63270454615842e-01 3.22623565812932e-03
1.41900000000000e+00 2.61682787690517e-01 3.21190643500767e-03
1.42352631578947e+00 2.60104695273212e-01 3.19762458689915e-03
1.42805263157895e+00 2.58536119634999e-01 3.18339015081710e-03
