Energy (eV)          EEDF (eV^-(3/2))     First Anisotropy
5.56923076923077e-03 3.71152918912160e-01 1.72062977737647e-04
1.67076923076923e-02 3.69184730558058e-01 2.84327391633286e-04
2.78461538461539e-02 3.67226979311714e-01 3.75881240480184e-04
3.89846153846154e-02 3.65279609836809e-01 4.45763150060651e-04
5.01230769230769e-02 3.63342567072514e-01 5.04317472999179e-04
6.12615384615385e-02 3.61415796262527e-01 5.55446357597045e-04
7.24000000000000e-02 3.59499242934589e-01 6.01164806481181e-04
8.35384615384615e-02 3.57592852903673e-01 6.42687054335043e-04
9.46769230769231e-02 3.55696572277370e-01 6.80816724258709e-04
1.05815384615385e-01 3.53810347442231e-01 7.16120620927334e-04
1.16953846153846e-01 3.51934125085672e-01 7.49017455980161e-04
1.28092307692308e-01 3.50067852149275e-01 7.79827653557324e-04
1.39230769230769e-01 3.48211475886580e-01 8.08803357647608e-04
1.50369230769231e-01 3.46364943803344e-01 8.36147523855070e-04
1.61507692307692e-01 3.44528203697113e-01 8.62026600774638e-04
1.72646153846154e-01 3.42701203654079e-01 8.86579277186768e-04
1.83784615384615e-01 3.40883892012328e-01 9.09922678514295e-04
1.94923076923077e-01 3.39076217405479e-01 9.32156881915023e-04
2.06061538461538e-01 3.37278128719597e-01 9.53368275094522e-04
2.17200000000000e-01 3.35489575130370e-01 9.73632102071567e-04
2.28338461538462e-01 3.33710506065673e-01 9.93014426557926e-04
2.39476923076923e-01 3.31940871237818e-01 1.01157366736578e-03
2.50615384615385e-01 3.30180620610509e-01 1.02936181626734e-03
2.61753846153846e-01 3.28429704427205e-01 1.04642541432147e-03
2.72892307692308e-01 3.26688073181592e-01 1.06280634403539e-03
2.84030769230769e-01 3.24955677642810e-01 1.07854247735494e-03
2.95169230769231e-01 3.23232468828787e-01 1.09366821225161e-03
3.06307692307692e-01 3.21518398023283e-01 1.10821491476267e-03
3.17446153846154e-01 3.19813416774050e-01 1.12221129847526e-03
3.28584615384615e-01 3.18117476874527e-01 1.13568373687083e-03
3.39723076923077e-01 3.16430530384537e-01 1.14865653254847e-03
3.50861538461539e-01 3.14752529607846e-01 1.16115214703497e-03
3.62000000000000e-01 3.13083427111002e-01 1.17319139796139e-03
3.73138461538462e-01 3.11423175702636e-01 1.18479362983705e-03
3.84276923076923e-01 3.09771728450711e-01 1.19597686196916e-03
3.95415384615385e-01 3.08129038663339e-01 1.20675791782832e-03
4.06553846153846e-01 3.06495059904635e-01 1.21715253802655e-03
4.17692307692308e-01 3.04869745976866e-01 1.22717547998719e-03
4.28830769230769e-01 3.03253050935091e-01 1.23684060561517e-03
4.39969230769231e-01 3.01644929070472e-01 1.24616095992860e-03
4.51107692307692e-01 3.00045334920312e-01 1.25514883734294e-03
4.62246153846154e-01 2.98454223266544e-01 1.26381584750504e-03
4.73384615384615e-01 2.96871549123816e-01 1.27217296770669e-03
4.84523076923077e-01 2.95297267752174e-01 1.28023059290648e-03
4.95661538461539e-01 2.93731334642288e-01 1.28799858033032e-03
5.06800000000000e-01 2.92173705527282e-01 1.29548628943147e-03
5.17938461538462e-01 2.90624336368792e-01 1.30270261825258e-03
5.29076923076923e-01 2.89083183368032e-01 1.30965603613228e-03
5.40215384615385e-01 2.87550202952607e-01 1.31635461363245e-03
5.51353846153846e-01 2.86025351786885e-01 1.32280604954985e-03
5.62492307692308e-01 2.84508586759497e-01 1.32901769576244e-03
5.73630769230769e-01 2.82999864993079e-01 1.33499657972190e-03
5.84769230769231e-01 2.81499143832399e-01 1.34074942579652e-03
5.95907692307692e-01 2.80006380851035e-01 1.34628267194078e-03
6.07046153846154e-01 2.78521533850042e-01 1.35160249050658e-03
6.18184615384615e-01 2.77044560849274e-01 1.35671480207778e-03
6.29323076923077e-01 2.75575420096051e-01 1.36162529073428e-03
6.40461538461539e-01 2.74114070054376e-01 1.36633941779710e-03
6.51600000000000e-01 2.72660469413126e-01 1.37086243435611e-03
6.62738461538462e-01 2.71214577075748e-01 1.37519939304526e-03
6.73876923076923e-01 2.69776352168008e-01 1.37935515879016e-03
6.85015384615385e-01 2.68345754028143e-01 1.38333441895371e-03
6.96153846153846e-01 2.66922742214197e-01 1.38714169260597e-03
7.07292307692308e-01 2.65507276494590e-01 1.39078133931240e-03
7.18430769230769e-01 2.64099316855074e-01 1.39425756716928e-03
7.29569230769231e-01 2.62698823489696e-01 1.39757444091358e-03
7.40707692307692e-01 2.61305756805538e-01 1.40073588707979e-03
7.51846153846154e-01 2.59920077421501e-01 1.40374570343784e-03
7.62984615384615e-01 2.58541746161594e-01 1.40660756334176e-03
7.74123076923077e-01 2.57170724061221e-01 1.40932502194271e-03
7.85261538461539e-01 2.55806972358841e-01 1.41190152170815e-03
7.96400000000000e-01 2.54450452501956e-01 1.41434039746713e-03
8.07538461538462e-01 2.53101126139087e-01 1.41664488128784e-03
8.18676923076923e-01 2.51758955125479e-01 1.41881810693504e-03
8.29815384615385e-01 2.50423901515377e-01 1.42086311419724e-03
8.40953846153846e-01 2.49095927567458e-01 1.42278285283864e-03
8.52092307692308e-01 2.47774995737394e-01 1.42458018645174e-03
8.63230769230769e-01 2.46461068683032e-01 1.42625789597343e-03
8.74369230769231e-01 2.45154109257220e-01 1.42781868351879e-03
8.85507692307692e-01 2.43854080511303e-01 1.42926517394779e-03
8.96646153846154e-01 2.42560945694015e-01 1.43059992029495e-03
9.07784615384616e-01 2.41274668246072e-01 1.43182540506076e-03
9.18923076923077e-01 2.39995211804910e-01 1.43294404327956e-03
9.30061538461539e-01 2.38722540197999e-01 1.43395818515310e-03
9.41200000000000e-01 2.37456617447369e-01 1.43487011844084e-03
9.52338461538462e-01 2.36197407763147e-01 1.43568207083807e-03
9.63476923076923e-01 2.34944875547893e-01 1.43639621213026e-03
9.74615384615385e-01 2.33698985390340e-01 1.43701465634597e-03
9.85753846153846e-01 2.32459702069556e-01 1.43753946370401e-03
9.96892307692308e-01 2.31226990548876e-01 1.43797264326481e-03
1.00803076923077e+00 2.30000815977470e-01 1.43831615190126e-03
1.01916923076923e+00 2.28781143694166e-01 1.43857189923038e-03
1.03030769230769e+00 2.27567939217864e-01 1.43874174958626e-03
1.04144615384615e+00 2.26361168250346e-01 1.43882752110185e-03
1.05258461538462e+00 2.25160796675278e-01 1.43883099159192e-03
1.06372307692308e+00 2.23966790546146e-01 1.43875389007112e-03
1.07486153846154e+00 2.22779116118844e-01 1.43859790478047e-03
1.08600000000000e+00 2.21597739816910e-01 1.43836469117645e-03
1.09713846153846e+00 2.20422628241925e-01 1.43805586310702e-03
1.10827692307692e+00 2.19253748172577e-01 1.43767299738846e-03
1.11941538461538e+00 2.18091066563744e-01 1.43721763805468e-03
1.13055384615385e+00 2.16934550535413e-01 1.43669128814761e-03
1.14169230769231e+00 2.15784167402355e-01 1.43609541702770e-03
1.15283076923077e+00 2.14639884642365e-01 1.43543146766561e-03
1.16396923076923e+00 2.13501669905703e-01 1.43470084814912e-03
1.17510769230769e+00 2.12369491014157e-01 1.43390493578485e-03
1.18624615384615e+00 2.11243315960177e-01 1.43304507799893e-03
1.19738461538462e+00 2.10123112905945e-01 1.43212259608952e-03
1.20852307692308e+00 2.09008850173369e-01 1.43113877737951e-03
1.21966153846154e+00 2.07900496270716e-01 1.43009488183469e-03
1.23080000000000e+00 2.06798019863983e-01 1.42899214867671e-03
1.24193846153846e+00 2.05701389785326e-01 1.42783178830452e-03
1.25307692307692e+00 2.04610575032179e-01 1.42661498595795e-03
1.26421538461538e+00 2.03525544766392e-01 1.42534290512344e-03
1.27535384615385e+00 2.02446268304978e-01 1.42401668001569e-03
1.28649230769231e+00 2.01372715144532e-01 1.42263742170205e-03
1.29763076923077e+00 2.00304854934900e-01 1.42120622423022e-03
1.30876923076923e+00 1.99242657486874e-01 1.41972415690802e-03
1.31990769230769e+00 1.98186092771321e-01 1.41819226765534e-03
1.33104615384615e+00 1.97135130918369e-01 1.41661158355734e-03
1.34218461538462e+00 1.96089742216543e-01 1.41498311394351e-03
1.35332307692308e+00 1.95049897104334e-01 1.41330784325297e-03
1.36446153846154e+00 1.94015566192295e-01 1.41158673665985e-03
1.37560000000000e+00 1.92986720239118e-01 1.40982074570779e-03
1.38673846153846e+00 1.91963330158554e-01 1.40801080100240e-03
1.39787692307692e+00 1.90945367018597e-01 1.40615781526261e-03
1.40901538461538e+00 1.89932802040673e-01 1.40426268615963e-03
1.42015384615385e+00 1.88925606591806e-01 1.40232628950669e-03
1.43129230769231e+00 1.87923752204987e-01 1.40034948451559e-03
1.44243076923077e+00 1.86927210557046e-01 1.39833311906600e-03
1.45356923076923e+00 1.85935953475010e-01 1.39627802274002e-03
1.46470769230769e+00 1.84949952935294e-01 1.39418500964953e-03
1.47584615384615e+00 1.83969181062932e-01 1.39205487879602e-03
1.48698461538462e+00 1.82993610130776e-01 1.38988841667535e-03
1.49812307692308e+00 1.82023212552318e-01 1.38768639083218e-03
1.50926153846154e+00 1.81057960900223e-01 1.38544955473185e-03
1.52040000000000e+00 1.80097827886112e-01 1.38317865264835e-03
1.53153846153846e+00 1.79142786366307e-01 1.38087441308184e-03
1.54267692307692e+00 1.78192809341075e-01 1.37853755136314e-03
1.55381538461538e+00 1.77247869953861e-01 1.37616877208045e-03
1.56495384615385e+00 1.76307941484598e-01 1.37376876293416e-03
1.57609230769231e+00 1.75372997366864e-01 1.37133819931814e-03
1.58723076923077e+00 1.74443011169097e-01 1.36887774891886e-03
1.59836923076923e+00 1.73517956599900e-01 1.36638806544414e-03
1.60950769230769e+00 1.72597807507289e-01 1.36386979105767e-03
1.62064615384615e+00 1.71682537877971e-01 1.36132355662388e-03
1.63178461538462e+00 1.70772121836599e-01 1.35874998395556e-03
1.64292307692308e+00 1.69866533639600e-01 1.35614968000154e-03
1.65406153846154e+00 1.68965747690873e-01 1.35352324111928e-03
1.66520000000000e+00 1.68069738524536e-01 1.35087125736602e-03
1.67633846153846e+00 1.67178480809746e-01 1.34819430657300e-03
1.68747692307692e+00 1.66291949349987e-01 1.34549295660657e-03
1.69861538461538e+00 1.65410119082364e-01 1.34276776747652e-03
1.70975384615385e+00 1.64532965071818e-01 1.34001928579540e-03
1.72089230769231e+00 1.63660462525723e-01 1.33724804881350e-03
1.73203076923077e+00 1.62792586777792e-01 1.33445458847316e-03
1.74316923076923e+00 1.61929313292538e-01 1.33163942576275e-03
1.75430769230769e+00 1.61070617664578e-01 1.32880307284222e-03
1.76544615384615e+00 1.60216475617958e-01 1.32594603321547e-03
1.77658461538462e+00 1.59366863005455e-01 1.32306880369651e-03
1.78772307692308e+00 1.58521755803231e-01 1.32017186916798e-03
1.79886153846154e+00 1.57681130124238e-01 1.31725570636029e-03
1.81000000000000e+00 1.56844962203371e-01 1.31432078765085e-03
1.82113846153846e+00 1.56013228401546e-01 1.31136757572606e-03
1.83227692307692e+00 1.55185905205037e-01 1.30839652556666e-03
1.84341538461538e+00 1.54362969224809e-01 1.30540808630046e-03
1.85455384615385e+00 1.53544397191502e-01 1.30240269620397e-03
1.86569230769231e+00 1.52730165967923e-01 1.29938078628295e-03
1.87683076923077e+00 1.51920252535159e-01 1.29634278387291e-03
1.88796923076923e+00 1.51114633996364e-01 1.29328910755009e-03
1.89910769230769e+00 1.50313287576105e-01 1.29022016900541e-03
1.91024615384615e+00 1.49516190619735e-01 1.28713637317040e-03
1.92138461538462e+00 1.48723320592740e-01 1.28403811995270e-03
1.93252307692308e+00 1.47934655076076e-01 1.28092579950523e-03
1.94366153846154e+00 1.47150171777692e-01 1.27779979559034e-03
1.95480000000000e+00 1.46369848519673e-01 1.27466048896426e-03
1.96593846153846e+00 1.45593663241706e-01 1.27150825256261e-03
1.97707692307692e+00 1.44821594000465e-01 1.26834345325790e-03
1.98821538461538e+00 1.44053618968988e-01 1.26516645350102e-03
1.99935384615385e+00 1.43289716432288e-01 1.26197760680740e-03
2.01049230769231e+00 1.42529864798121e-01 1.25877726095182e-03
2.02163076923077e+00 1.41774042584927e-01 1.25556576118309e-03
2.03276923076923e+00 1.41022228425061e-01 1.25234344563127e-03
2.04390769230769e+00 1.40274401064182e-01 1.24911064697161e-03
2.05504615384615e+00 1.39530539360667e-01 1.24586769251859e-03
2.06618461538462e+00 1.38790622285002e-01 1.24261490576908e-03
2.07732307692308e+00 1.38054628915696e-01 1.23935260212664e-03
2.08846153846154e+00 1.37322538449238e-01 1.23608109191117e-03
2.09960000000000e+00 1.36594330188896e-01 1.23280068338782e-03
2.11073846153846e+00 1.35869983547690e-01 1.22951167841848e-03
2.12187692307692e+00 1.35149478047810e-01 1.22621437402690e-03
2.13301538461538e+00 1.34432793320041e-01 1.22290906386235e-03
2.14415384615385e+00 1.33719909099902e-01 1.21959603411752e-03
2.15529230769231e+00 1.33010805236976e-01 1.21627556639178e-03
2.16643076923077e+00 1.32305461684380e-01 1.21294794057378e-03
2.17756923076923e+00 1.31603858501538e-01 1.20961343068966e-03
2.18870769230769e+00 1.30905975853614e-01 1.20627230638897e-03
2.19984615384615e+00 1.30211794010957e-01 1.20292483301632e-03
2.21098461538462e+00 1.29521293348544e-01 1.19957127299085e-03
2.22212307692308e+00 1.28834454342367e-01 1.19621188193622e-03
2.23326153846154e+00 1.28151257578090e-01 1.19284691138386e-03
2.24440000000000e+00 1.27471683741244e-01 1.18947661149419e-03
2.25553846153846e+00 1.26795713619781e-01 1.18610122712178e-03
2.26667692307692e+00 1.26123328103532e-01 1.18272099921725e-03
2.27781538461538e+00 1.25454508183670e-01 1.17933616613776e-03
2.28895384615385e+00 1.24789234949301e-01 1.17594695994987e-03
2.30009230769231e+00 1.24127489595585e-01 1.17255360900524e-03
2.31123076923077e+00 1.23469253414499e-01 1.16915634053395e-03
2.32236923076923e+00 1.22814507797229e-01 1.16575537688580e-03
2.33350769230769e+00 1.22163234233638e-01 1.16235093686303e-03
2.34464615384615e+00 1.21515414311748e-01 1.15894323577564e-03
2.35578461538462e+00 1.20871029717222e-01 1.15553248667952e-03
2.36692307692308e+00 1.20230062230166e-01 1.15211889686957e-03
2.37806153846154e+00 1.19592493732682e-01 1.14870267031440e-03
2.38920000000000e+00 1.18958306200245e-01 1.14528401010860e-03
2.40033846153846e+00 1.18327481703911e-01 1.14186311490797e-03
2.41147692307692e+00 1.17700002409813e-01 1.13844018018874e-03
2.42261538461538e+00 1.17075850578658e-01 1.13501539942592e-03
2.43375384615385e+00 1.16455008562701e-01 1.13158896074049e-03
2.44489230769231e+00 1.15837458812848e-01 1.12816104922246e-03
2.45603076923077e+00 1.15223183870520e-01 1.12473184927094e-03
2.46716923076923e+00 1.14612166369719e-01 1.12130154118601e-03
2.47830769230769e+00 1.14004389036534e-01 1.11787030236790e-03
2.48944615384615e+00 1.13399834688661e-01 1.11443830736112e-03
2.50058461538462e+00 1.12798486234909e-01 1.11100572896920e-03
2.51172307692308e+00 1.12200326672374e-01 1.10757273507170e-03
2.52286153846154e+00 1.11605339093037e-01 1.10413949082375e-03
2.53400000000000e+00 1.11013506676170e-01 1.10070616087137e-03
2.54513846153846e+00 1.10424812690241e-01 1.09727290611700e-03
2.55627692307692e+00 1.09839240492441e-01 1.09383988485434e-03
2.56741538461538e+00 1.09256773528223e-01 1.09040725383122e-03
2.57855384615385e+00 1.08677395328605e-01 1.08697516520471e-03
2.58969230769231e+00 1.08101089516399e-01 1.08354376864163e-03
2.60083076923077e+00 1.07527839799024e-01 1.08011321343483e-03
2.61196923076923e+00 1.06957629970294e-01 1.07668364540881e-03
2.62310769230769e+00 1.06390443909962e-01 1.07325520800220e-03
2.63424615384615e+00 1.05826265583269e-01 1.06982804230262e-03
2.64538461538462e+00 1.05265079040486e-01 1.06640228805389e-03
2.65652307692308e+00 1.04706868414390e-01 1.06297808076313e-03
2.66766153846154e+00 1.04151617926068e-01 1.05955555369185e-03
2.67880000000000e+00 1.03599311878188e-01 1.05613483986216e-03
2.68993846153846e+00 1.03049934656657e-01 1.05271606911741e-03
2.70107692307692e+00 1.02503470730183e-01 1.04929936914816e-03
2.71221538461538e+00 1.01959904649836e-01 1.04588486645297e-03
2.72335384615385e+00 1.01419221046650e-01 1.04247268356971e-03
2.73449230769231e+00 1.00881404637100e-01 1.03906294097883e-03
2.74563076923077e+00 1.00346440216727e-01 1.03565575902130e-03
2.75676923076923e+00 9.98143126616992e-02 1.03225125508535e-03
2.76790769230769e+00 9.92850069283850e-02 1.02884954458554e-03
2.77904615384615e+00 9.87585080529287e-02 1.02545074099119e-03
2.79018461538462e+00 9.82348011508270e-02 1.02205495673785e-03
2.80132307692308e+00 9.77138714146732e-02 1.01866230059537e-03
2.81246153846154e+00 9.71957041192702e-02 1.01527287947358e-03
2.82360000000000e+00 9.66802846156543e-02 1.01188680024237e-03
2.83473846153846e+00 9.61675983325430e-02 1.00850416705781e-03
2.84587692307692e+00 9.56576307759239e-02 1.00512508229073e-03
2.85701538461538e+00 9.51503675286462e-02 1.00174964739767e-03
2.86815384615385e+00 9.46457942482757e-02 9.98377960400625e-04
2.87929230769231e+00 9.41438966719244e-02 9.95010117614317e-04
2.89043076923077e+00 9.36446606105852e-02 9.91646215387188e-04
2.90156923076923e+00 9.31480719504944e-02 9.88286347541030e-04
2.91270769230769e+00 9.26541166527306e-02 9.84930606258547e-04
2.92384615384615e+00 9.21627807528211e-02 9.81579082106128e-04
2.93498461538462e+00 9.16740503603454e-02 9.78231864860876e-04
2.94612307692308e+00 9.11879116569155e-02 9.74889041113206e-04
2.95726153846154e+00 9.07043509006919e-02 9.71550695907235e-04
2.96840000000000e+00 9.02233544210631e-02 9.68216914394363e-04
2.97953846153846e+00 8.97449086199108e-02 9.64887779398016e-04
2.99067692307692e+00 8.92689999712265e-02 9.61563372256421e-04
3.00181538461538e+00 8.87956150207295e-02 9.58243773613006e-04
3.01295384615385e+00 8.83247403839438e-02 9.54929061119512e-04
3.02409230769231e+00 8.78563627504695e-02 9.51619311006356e-04
3.03523076923077e+00 8.73904688789331e-02 9.48314599665784e-04
3.04636923076923e+00 8.69270455981787e-02 9.45015001318491e-04
3.05750769230769e+00 8.64660798068949e-02 9.41720588819568e-04
3.06864615384615e+00 8.60075584732463e-02 9.38431433677349e-04
3.07978461538462e+00 8.55514686345045e-02 9.35147606804840e-04
3.09092307692308e+00 8.50977973952336e-02 9.31869176333590e-04
3.10206153846154e+00 8.46465319312899e-02 9.28596209106009e-04
3.11320000000000e+00 8.41976594850737e-02 9.25328772180120e-04
3.12433846153846e+00 8.37511673666365e-02 9.22066930609024e-04
3.13547692307692e+00 8.33070429533242e-02 9.18810748207075e-04
3.14661538461539e+00 8.28652736894194e-02 9.15560288268686e-04
3.15775384615385e+00 8.24258470844140e-02 9.12315611472514e-04
3.16889230769231e+00 8.19887507167947e-02 9.09076777311159e-04
3.18003076923077e+00 8.15539722295324e-02 9.05843845532684e-04
3.19116923076923e+00 8.11214993311259e-02 9.02616874012086e-04
3.20230769230769e+00 8.06913197952539e-02 8.99395919484363e-04
3.21344615384615e+00 8.02634214604309e-02 8.96181037560040e-04
3.22458461538462e+00 7.98377922296632e-02 8.92972283408854e-04
3.23572307692308e+00 7.94144200688154e-02 8.89769709764668e-04
3.24686153846154e+00 7.89932930101614e-02 8.86573368284535e-04
3.25800000000000e+00 7.85743991481359e-02 8.83383310919772e-04
3.26913846153846e+00 7.81577266403072e-02 8.80199587889719e-04
3.28027692307692e+00 7.77432637070431e-02 8.77022248378468e-04
3.29141538461539e+00 7.73309986311782e-02 8.73851341189631e-04
3.30255384615385e+00 7.69209197564571e-02 8.70686912832956e-04
3.31369230769231e+00 7.65130154908980e-02 8.67529008826995e-04
3.32483076923077e+00 7.61072743027535e-02 8.64377675013225e-04
3.33596923076923e+00 7.57036847214284e-02 8.61232955612693e-04
3.34710769230769e+00 7.53022353371536e-02 8.58094893893502e-04
3.35824615384615e+00 7.49029148006662e-02 8.54963532183980e-04
3.36938461538462e+00 7.45057118228874e-02 8.51838912495314e-04
3.38052307692308e+00 7.41106151734508e-02 8.48721074698818e-04
3.39166153846154e+00 7.37176136838592e-02 8.45610057765940e-04
3.40280000000000e+00 7.33266962436778e-02 8.42505901018525e-04
3.41393846153846e+00 7.29378518013889e-02 8.39408642277760e-04
3.42507692307692e+00 7.25510693640799e-02 8.36318318499449e-04
3.43621538461539e+00 7.21663379971332e-02 8.33234966370640e-04
3.44735384615385e+00 7.17836468228212e-02 8.30158620560995e-04
3.45849230769231e+00 7.14029850233004e-02 8.27089314911441e-04
3.46963076923077e+00 7.10243418369878e-02 8.24027083633391e-04
3.48076923076923e+00 7.06477065593683e-02 8.20971959532970e-04
3.49190769230769e+00 7.02730685426908e-02 8.17923974619438e-04
3.50304615384615e+00 6.99004171956692e-02 8.14883160116177e-04
3.51418461538462e+00 6.95297419831821e-02 8.11849547028845e-04
