Energy (eV)          EEDF (eV^-(3/2))     First Anisotropy
1.79166666666667e-02 1.01544659570896e-01 5.49772026356658e-05
5.37500000000000e-02 1.00814804507628e-01 9.07618587278500e-05
8.95833333333333e-02 1.00090195297186e-01 1.19759977618150e-04
1.25416666666667e-01 9.93707942361949e-02 1.41756046544815e-04
1.61250000000000e-01 9.86565638917402e-02 1.60072902136488e-04
1.97083333333333e-01 9.79474670948179e-02 1.75967434119501e-04
2.32916666666667e-01 9.72434669523852e-02 1.90090363122471e-04
2.68750000000000e-01 9.65445268313827e-02 2.02834804917835e-04
3.04583333333333e-01 9.58506103602158e-02 2.14461587651326e-04
3.40416666666667e-01 9.51616814338603e-02 2.25155134480439e-04
3.76250000000000e-01 9.44777042039022e-02 2.35052020806305e-04
4.12083333333333e-01 9.37986430781002e-02 2.44257021157508e-04
4.47916666666667e-01 9.31244627236282e-02 2.52852786737905e-04
4.83750000000000e-01 9.24551280596443e-02 2.60906008483469e-04
5.19583333333333e-01 9.17906042562526e-02 2.68471515835229e-04
5.55416666666667e-01 9.11308567366330e-02 2.75595103697922e-04
5.91250000000000e-01 9.04758511710109e-02 2.82315540616370e-04
6.27083333333333e-01 8.98255534753697e-02 2.88666030908651e-04
6.62916666666667e-01 8.91799298128618e-02 2.94675304418337e-04
6.98750000000000e-01 8.85389465886745e-02 3.00368443579306e-04
7.34583333333333e-01 8.79025704486246e-02 3.05767520722149e-04
7.70416666666667e-01 8.72707682800760e-02 3.10892098061168e-04
8.06250000000000e-01 8.66435072074307e-02 3.15759624469385e-04
8.42083333333333e-01 8.60207545906689e-02 3.20385753232705e-04
8.77916666666667e-01 8.54024780259093e-02 3.24784600748126e-04
9.13750000000000e-01 8.47886453413652e-02 3.28968958540899e-04
9.49583333333333e-01 8.41792245958618e-02 3.32950467774299e-04
9.85416666666667e-01 8.35741840791297e-02 3.36739765214876e-04
1.02125000000000e+00 8.29734923098567e-02 3.40346607232379e-04
1.05708333333333e+00 8.23771180254998e-02 3.43779970686642e-04
1.09291666666667e+00 8.17850301998360e-02 3.47048142357669e-04
1.12875000000000e+00 8.11971980235849e-02 3.50158797013085e-04
1.16458333333333e+00 8.06135909040114e-02 3.53119057574494e-04
1.20041666666667e+00 8.00341784785547e-02 3.55935553739500e-04
1.23625000000000e+00 7.94589305975385e-02 3.58614473002532e-04
1.27208333333333e+00 7.88878173235934e-02 3.61161598841019e-04
1.30791666666667e+00 7.83208089437179e-02 3.63582350378509e-04
1.34375000000000e+00 7.77578759537091e-02 3.65881817353912e-04
1.37958333333333e+00 7.71989890574555e-02 3.68064785036199e-04
1.41541666666667e+00 7.66441191776877e-02 3.70135762145012e-04
1.45125000000000e+00 7.60932374418512e-02 3.72099005735710e-04
1.48708333333333e+00 7.55463151813045e-02 3.73958537764110e-04
1.52291666666667e+00 7.50033239409615e-02 3.75718165424493e-04
1.55875000000000e+00 7.44642354663883e-02 3.77381499444674e-04
1.59458333333333e+00 7.39290217029340e-02 3.78951965215678e-04
1.63041666666667e+00 7.33976548044231e-02 3.80432818055921e-04
1.66625000000000e+00 7.28701071213063e-02 3.81827157051734e-04
1.70208333333333e+00 7.23463511997415e-02 3.83137932547982e-04
1.73791666666667e+00 7.18263597894662e-02 3.84367957910755e-04
1.77375000000000e+00 7.13101058328634e-02 3.85519920266902e-04
1.80958333333333e+00 7.07975624640076e-02 3.86596385500055e-04
1.84541666666667e+00 7.02887030158225e-02 3.87599807530778e-04
1.88125000000000e+00 6.97835010099491e-02 3.88532536840573e-04
1.91708333333333e+00 6.92819301557680e-02 3.89396823724098e-04
1.95291666666667e+00 6.87839643569287e-02 3.90194825766187e-04
1.98875000000000e+00 6.82895777019283e-02 3.90928614746155e-04
2.02458333333333e+00 6.77987444631165e-02 3.91600178651280e-04
2.06041666666667e+00 6.73114391026717e-02 3.92211427815657e-04
2.09625000000000e+00 6.68276362638101e-02 3.92764200615490e-04
2.13208333333333e+00 6.63473107697815e-02 3.93260264590884e-04
2.16791666666667e+00 6.58704376293533e-02 3.93701321572354e-04
2.20375000000000e+00 6.53969920285846e-02 3.94089012456434e-04
2.23958333333333e+00 6.49269493298174e-02 3.94424917679147e-04
2.27541666666667e+00 6.44602850767210e-02 3.94710561562705e-04
2.31125000000000e+00 6.39969749865756e-02 3.94947416379459e-04
2.34708333333333e+00 6.35369949492618e-02 3.95136902350619e-04
2.38291666666667e+00 6.30803210319126e-02 3.95280391382386e-04
2.41875000000000e+00 6.26269294716556e-02 3.95379210570473e-04
2.45458333333333e+00 6.21767966746067e-02 3.95434641849542e-04
2.49041666666667e+00 6.17298992201662e-02 3.95447925244177e-04
2.52625000000000e+00 6.12862138541803e-02 3.95420261927163e-04
2.56208333333333e+00 6.08457174879392e-02 3.95352813611572e-04
2.59791666666667e+00 6.04083872021533e-02 3.95246705410776e-04
2.63375000000000e+00 5.99742002404959e-02 3.95103028536025e-04
2.66958333333333e+00 5.95431340086091e-02 3.94922839499275e-04
2.70541666666667e+00 5.91151660777891e-02 3.94707162654176e-04
2.74125000000000e+00 5.86902741788787e-02 3.94456992598300e-04
2.77708333333333e+00 5.82684362012819e-02 3.94173293237848e-04
2.81291666666667e+00 5.78496301963851e-02 3.93857000065061e-04
2.84875000000000e+00 5.74338343717709e-02 3.93509022315760e-04
2.88458333333333e+00 5.70210270902431e-02 3.93130241934535e-04
2.92041666666667e+00 5.66111868730064e-02 3.92721515632020e-04
2.95625000000000e+00 5.62042923941770e-02 3.92283676837526e-04
2.99208333333333e+00 5.58003224798183e-02 3.91817534593960e-04
3.02791666666667e+00 5.53992561109013e-02 3.91323875429348e-04
3.06375000000000e+00 5.50010724180876e-02 3.90803465136145e-04
3.09958333333333e+00 5.46057506807786e-02 3.90257047618367e-04
3.13541666666667e+00 5.42132703298729e-02 3.89685346604693e-04
3.17125000000000e+00 5.38236109428041e-02 3.89089067279774e-04
3.20708333333333e+00 5.34367522426022e-02 3.88468895100910e-04
3.24291666666667e+00 5.30526741004659e-02 3.87825497374946e-04
3.27875000000000e+00 5.26713565310357e-02 3.87159524761960e-04
3.31458333333333e+00 5.22927796914696e-02 3.86471610074770e-04
3.35041666666667e+00 5.19169238838438e-02 3.85762369737722e-04
3.38625000000000e+00 5.15437695506462e-02 3.85032405179529e-04
3.42208333333333e+00 5.11732972738655e-02 3.84282301625952e-04
3.45791666666667e+00 5.08054877772347e-02 3.83512629455287e-04
3.49375000000000e+00 5.04403219219295e-02 3.82723945494100e-04
3.52958333333333e+00 5.00777807056718e-02 3.81916791811082e-04
3.56541666666667e+00 4.97178452648272e-02 3.81091696981607e-04
3.60125000000000e+00 4.93604968702960e-02 3.80249177297784e-04
3.63708333333333e+00 4.90057169266304e-02 3.79389735569642e-04
3.67291666666667e+00 4.86534869739981e-02 3.78513862309063e-04
3.70875000000000e+00 4.83037886842521e-02 3.77622036863774e-04
3.74458333333333e+00 4.79566038600635e-02 3.76714726230632e-04
3.78041666666667e+00 4.76119144367596e-02 3.75792386167563e-04
3.81625000000000e+00 4.72697024785626e-02 3.74855462259632e-04
3.85208333333333e+00 4.69299501777374e-02 3.73904388748034e-04
3.88791666666667e+00 4.65926398563133e-02 3.72939589577407e-04
3.92375000000000e+00 4.62577539624821e-02 3.71961479400864e-04
3.95958333333333e+00 4.59252750697597e-02 3.70970462427497e-04
3.99541666666667e+00 4.55951858786014e-02 3.69966933411347e-04
4.03125000000000e+00 4.52674692129481e-02 3.68951278601237e-04
4.06708333333333e+00 4.49421080194034e-02 3.67923874608914e-04
4.10291666666667e+00 4.46190853687488e-02 3.66885089345107e-04
4.13875000000000e+00 4.42983844526304e-02 3.65835282919202e-04
4.17458333333333e+00 4.39799885827509e-02 3.64774806529542e-04
4.21041666666667e+00 4.36638811922915e-02 3.63704003351219e-04
4.24625000000000e+00 4.33500458327316e-02 3.62623209390012e-04
4.28208333333333e+00 4.30384661730556e-02 3.61532752395961e-04
4.31791666666667e+00 4.27291260010875e-02 3.60432952706986e-04
4.35375000000000e+00 4.24220092204369e-02 3.59324124060893e-04
4.38958333333333e+00 4.21170998497197e-02 3.58206572532953e-04
4.42541666666667e+00 4.18143820238120e-02 3.57080597338934e-04
4.46125000000000e+00 4.15138399909150e-02 3.55946491608524e-04
4.49708333333333e+00 4.12154581117900e-02 3.54804541347334e-04
4.53291666666667e+00 4.09192208609369e-02 3.53655026202501e-04
4.56875000000000e+00 4.06251128237711e-02 3.52498220200483e-04
4.60458333333333e+00 4.03331186958740e-02 3.51334390733802e-04
4.64041666666667e+00 4.00432232840994e-02 3.50163799292001e-04
4.67625000000000e+00 3.97554115038581e-02 3.48986702166326e-04
4.71208333333333e+00 3.94696683783825e-02 3.47803349461340e-04
4.74791666666667e+00 3.91859790397663e-02 3.46613985793579e-04
4.78375000000000e+00 3.89043287263513e-02 3.45418850965593e-04
4.81958333333333e+00 3.86247027820055e-02 3.44218179002315e-04
4.85541666666667e+00 3.83470866571010e-02 3.43012198819666e-04
4.89125000000000e+00 3.80714659059970e-02 3.41801134869991e-04
4.92708333333333e+00 3.77978261863320e-02 3.40585206202953e-04
4.96291666666667e+00 3.75261532599437e-02 3.39364627106131e-04
4.99875000000000e+00 3.72564329904435e-02 3.38139607723653e-04
5.03458333333333e+00 3.69886513425226e-02 3.36910353141370e-04
5.07041666666667e+00 3.67227943828170e-02 3.35677064001279e-04
5.10625000000000e+00 3.64588482775699e-02 3.34439937094986e-04
5.14208333333333e+00 3.61967992919508e-02 3.33199164472854e-04
5.17791666666667e+00 3.59366337908699e-02 3.31954934033762e-04
5.21375000000000e+00 3.56783382367234e-02 3.30707430095020e-04
5.24958333333333e+00 3.54218991887260e-02 3.29456832525067e-04
5.28541666666667e+00 3.51673033036771e-02 3.28203317310025e-04
5.32125000000000e+00 3.49145373337857e-02 3.26947057101449e-04
5.35708333333333e+00 3.46635881260164e-02 3.25688220372141e-04
5.39291666666667e+00 3.44144426228097e-02 3.24426971960832e-04
5.42875000000000e+00 3.41670878599831e-02 3.23163473599007e-04
5.46458333333333e+00 3.39215109660901e-02 3.21897883089365e-04
5.50041666666667e+00 3.36776991630981e-02 3.20630354829879e-04
5.53625000000000e+00 3.34356397643615e-02 3.19361040320814e-04
5.57208333333333e+00 3.31953201739941e-02 3.18090087365359e-04
5.60791666666667e+00 3.29567278875063e-02 3.16817640574198e-04
5.64375000000000e+00 3.27198504898483e-02 3.15543841853764e-04
5.67958333333333e+00 3.24846756547941e-02 3.14268829628558e-04
5.71541666666667e+00 3.22511911455420e-02 3.12992739327139e-04
5.75125000000000e+00 3.20193848128233e-02 3.11715703852705e-04
5.78708333333333e+00 3.17892445942992e-02 3.10437852826571e-04
5.82291666666667e+00 3.15607585151254e-02 3.09159313056569e-04
5.85875000000000e+00 3.13339146861247e-02 3.07880208990757e-04
5.89458333333333e+00 3.11087013031956e-02 3.06600661981526e-04
5.93041666666667e+00 3.08851066478439e-02 3.05320790737336e-04
5.96625000000000e+00 3.06631190854155e-02 3.04040711760387e-04
6.00208333333333e+00 3.04427270645177e-02 3.02760538630853e-04
6.03791666666667e+00 3.02239191175187e-02 3.01480382442733e-04
6.07375000000000e+00 3.00066838588390e-02 3.00200352226221e-04
6.10958333333333e+00 2.97910099843841e-02 2.98920554251567e-04
6.14541666666667e+00 2.95768862720144e-02 2.97641092449790e-04
6.18125000000000e+00 2.93643015798930e-02 2.96362068820552e-04
6.21708333333333e+00 2.91532448459289e-02 2.95083582755015e-04
6.25291666666667e+00 2.89437050882200e-02 2.93805731442152e-04
6.28875000000000e+00 2.87356714034534e-02 2.92528610262741e-04
6.32458333333333e+00 2.85291329663610e-02 2.91252312130864e-04
6.36041666666667e+00 2.83240790301351e-02 2.89976927886372e-04
6.39625000000000e+00 2.81204989248807e-02 2.88702546675579e-04
6.43208333333333e+00 2.79183820570823e-02 2.87429255310854e-04
6.46791666666667e+00 2.77177179099940e-02 2.86157138649978e-04
6.50375000000000e+00 2.75184960421418e-02 2.84886279964138e-04
6.53958333333333e+00 2.73207060868010e-02 2.83616760315075e-04
6.57541666666667e+00 2.71243377523628e-02 2.82348658921810e-04
6.61125000000000e+00 2.69293808208842e-02 2.81082053516548e-04
6.64708333333333e+00 2.67358251475756e-02 2.79817019738906e-04
6.68291666666667e+00 2.65436606611462e-02 2.78553631490588e-04
6.71875000000000e+00 2.63528773623982e-02 2.77291961279660e-04
6.75458333333333e+00 2.61634653237263e-02 2.76032079631388e-04
6.79041666666667e+00 2.59754146894408e-02 2.74774055431358e-04
6.82625000000000e+00 2.57887156744067e-02 2.73517956258638e-04
6.86208333333333e+00 2.56033585635528e-02 2.72263847812705e-04
6.89791666666667e+00 2.54193337121754e-02 2.71011794245523e-04
6.93375000000000e+00 2.52366315446196e-02 2.69761858484015e-04
6.96958333333333e+00 2.50552425537982e-02 2.68514101672681e-04
7.00541666666667e+00 2.48751573014770e-02 2.67268583495056e-04
7.04125000000000e+00 2.46963664169966e-02 2.66025362485894e-04
7.07708333333333e+00 2.45188605968010e-02 2.64784495489073e-04
7.11291666666667e+00 2.43426306047057e-02 2.63546037968816e-04
7.14875000000000e+00 2.41676672706580e-02 2.62310044312035e-04
7.18458333333333e+00 2.39939614902761e-02 2.61076567301028e-04
7.22041666666667e+00 2.38215042250997e-02 2.59845658414907e-04
7.25625000000000e+00 2.36502865013884e-02 2.58617368122515e-04
7.29208333333333e+00 2.34802994096703e-02 2.57391745369450e-04
7.32791666666667e+00 2.33115341049765e-02 2.56168837870064e-04
7.36375000000000e+00 2.31439818056766e-02 2.54948692391313e-04
7.39958333333333e+00 2.29776337930355e-02 2.53731354253782e-04
7.43541666666667e+00 2.28124814114340e-02 2.52516867614588e-04
7.47125000000000e+00 2.26485160672385e-02 2.51305275742416e-04
7.50708333333333e+00 2.24857292283676e-02 2.50096620532178e-04
7.54291666666667e+00 2.23241124244983e-02 2.48890942779194e-04
7.57875000000000e+00 2.21636572459691e-02 2.47688282445791e-04
7.61458333333333e+00 2.20043553433564e-02 2.46488678189133e-04
7.65041666666667e+00 2.18461984276665e-02 2.45292167627009e-04
7.68625000000000e+00 2.16891782692717e-02 2.44098787596294e-04
7.72208333333333e+00 2.15332866974957e-02 2.42908573693625e-04
7.75791666666667e+00 2.13785156007922e-02 2.41721560533059e-04
7.79375000000000e+00 2.12248569257135e-02 2.40537781996734e-04
7.82958333333333e+00 2.10723026765035e-02 2.39357270787975e-04
7.86541666666667e+00 2.09208449152649e-02 2.38180058681169e-04
7.90125000000000e+00 2.07704757609582e-02 2.37006176764910e-04
7.93708333333333e+00 2.06211873890026e-02 2.35835655007085e-04
7.97291666666667e+00 2.04729720314327e-02 2.34668522497301e-04
8.00875000000000e+00 2.03258219759259e-02 2.33504807682748e-04
8.04458333333333e+00 2.01797295654125e-02 2.32344537945069e-04
8.08041666666667e+00 2.00346871982210e-02 2.31187739835486e-04
8.11625000000000e+00 1.98906873271340e-02 2.30034439303617e-04
8.15208333333333e+00 1.97477224590064e-02 2.28884661285800e-04
8.18791666666667e+00 1.96057851549007e-02 2.27738429933191e-04
8.22375000000000e+00 1.94648680291703e-02 2.26595768833853e-04
8.25958333333333e+00 1.93249637490855e-02 2.25456700612104e-04
8.29541666666667e+00 1.91860650349589e-02 2.24321247149886e-04
8.33125000000000e+00 1.90481646592557e-02 2.23189429802307e-04
8.36708333333333e+00 1.89112554462272e-02 2.22061269007742e-04
8.40291666666667e+00 1.87753302720274e-02 2.20936784502706e-04
8.43875000000000e+00 1.86403820638482e-02 2.19815995531055e-04
8.47458333333333e+00 1.85064037995612e-02 2.18698920464562e-04
8.51041666666667e+00 1.83733885078255e-02 2.17585577011475e-04
8.54625000000000e+00 1.82413292672477e-02 2.16475982419630e-04
8.58208333333333e+00 1.81102192060306e-02 2.15370153107164e-04
8.61791666666667e+00 1.79800515020737e-02 2.14268104864996e-04
8.65375000000000e+00 1.78508193821566e-02 2.13169853054045e-04
8.68958333333333e+00 1.77225161215954e-02 2.12075412245813e-04
8.72541666666667e+00 1.75951350443350e-02 2.10984796418982e-04
8.76125000000000e+00 1.74686695221559e-02 2.09898019150925e-04
8.79708333333333e+00 1.73431129743378e-02 2.08815093267881e-04
8.83291666666667e+00 1.72184588677446e-02 2.07736031035861e-04
8.86875000000000e+00 1.70947007160537e-02 2.06660844346650e-04
8.90458333333333e+00 1.69718320794263e-02 2.05589544377315e-04
8.94041666666667e+00 1.68498465645859e-02 2.04522141775598e-04
8.97625000000000e+00 1.67287378240688e-02 2.03458646840563e-04
9.01208333333333e+00 1.66084995559019e-02 2.02399069191176e-04
9.04791666666667e+00 1.64891255036739e-02 2.01343417946387e-04
9.08375000000000e+00 1.63706094558077e-02 2.00291701900624e-04
9.11958333333333e+00 1.62529452452440e-02 1.99243929201151e-04
9.15541666666667e+00 1.61361267495074e-02 1.98200107523014e-04
9.19125000000000e+00 1.60201478899977e-02 1.97160244239529e-04
9.22708333333333e+00 1.59050026316815e-02 1.96124346108201e-04
9.26291666666667e+00 1.57906849831517e-02 1.95092419440689e-04
9.29875000000000e+00 1.56771889959387e-02 1.94064470268465e-04
9.33458333333333e+00 1.55645087642082e-02 1.93040504037040e-04
9.37041666666667e+00 1.54526384248156e-02 1.92020525771098e-04
9.40625000000000e+00 1.53415721566361e-02 1.91004540235504e-04
9.44208333333333e+00 1.52313041802686e-02 1.89992551637565e-04
9.47791666666667e+00 1.51218287580853e-02 1.88984563787522e-04
9.51375000000000e+00 1.50131401935796e-02 1.87980580255026e-04
9.54958333333333e+00 1.49052328310774e-02 1.86980604079254e-04
9.58541666666667e+00 1.47981010557802e-02 1.85984637924873e-04
9.62125000000000e+00 1.46917392931325e-02 1.84992684234123e-04
9.65708333333333e+00 1.45861420085375e-02 1.84004744944562e-04
9.69291666666667e+00 1.44813037073971e-02 1.83020821640674e-04
9.72875000000000e+00 1.43772189344957e-02 1.82040915701680e-04
9.76458333333333e+00 1.42738822737224e-02 1.81065028026700e-04
9.80041666666667e+00 1.41712883481060e-02 1.80093159182128e-04
9.83625000000000e+00 1.40694318192159e-02 1.79125309545325e-04
9.87208333333333e+00 1.39683073868904e-02 1.78161479037002e-04
9.90791666666667e+00 1.38679097892672e-02 1.77201667264472e-04
9.94375000000000e+00 1.37682338022008e-02 1.76245873661333e-04
9.97958333333333e+00 1.36692742389962e-02 1.75294097226884e-04
1.00154166666667e+01 1.35710259504358e-02 1.74346336538512e-04
1.00512500000000e+01 1.34734838245008e-02 1.73402590522385e-04
1.00870833333333e+01 1.33766427846684e-02 1.72462857057746e-04
1.01229166666667e+01 1.32804977928204e-02 1.71527133616216e-04
1.01587500000000e+01 1.31850438460840e-02 1.70595418664895e-04
1.01945833333333e+01 1.30902759766244e-02 1.69667709144810e-04
1.02304166666667e+01 1.29961892541693e-02 1.68744001738583e-04
1.02662500000000e+01 1.29027787829477e-02 1.67824294106942e-04
1.03020833333333e+01 1.28100397014853e-02 1.66908582434069e-04
1.03379166666667e+01 1.27179671850476e-02 1.65996862661415e-04
1.03737500000000e+01 1.26265564426721e-02 1.65089131691309e-04
1.04095833333333e+01 1.25358027169681e-02 1.64185384997298e-04
1.04454166666667e+01 1.24457012864796e-02 1.63285617825092e-04
1.04812500000000e+01 1.23562474628091e-02 1.62389826364254e-04
1.05170833333333e+01 1.22674365904209e-02 1.61498005421645e-04
1.05529166666667e+01 1.21792640489268e-02 1.60610149590438e-04
1.05887500000000e+01 1.20917252502986e-02 1.59726254390787e-04
1.06245833333333e+01 1.20048156386745e-02 1.58846314004612e-04
1.06604166666667e+01 1.19185306925712e-02 1.57970322413603e-04
1.06962500000000e+01 1.18328659221809e-02 1.57098274509758e-04
1.07320833333333e+01 1.17478168691817e-02 1.56230163889769e-04
1.07679166666667e+01 1.16633791088780e-02 1.55365983962892e-04
1.08037500000000e+01 1.15795482475798e-02 1.54505729032184e-04
1.08395833333333e+01 1.14963199224165e-02 1.53649392146848e-04
1.08754166666667e+01 1.14136898034086e-02 1.52796966180819e-04
1.09112500000000e+01 1.13316535909261e-02 1.51948444885517e-04
1.09470833333333e+01 1.12502070155062e-02 1.51103820798526e-04
1.09829166666667e+01 1.11693458398579e-02 1.50263086293737e-04
1.10187500000000e+01 1.10890658563979e-02 1.49426234606430e-04
1.10545833333333e+01 1.10093628870708e-02 1.48593257796684e-04
1.10904166666667e+01 1.09302327852905e-02 1.47764147771877e-04
1.11262500000000e+01 1.08516714335494e-02 1.46938897284903e-04
1.11620833333333e+01 1.07736747432428e-02 1.46117497950766e-04
1.11979166666667e+01 1.06962386565478e-02 1.45299941242221e-04
1.12337500000000e+01 1.06193591441042e-02 1.44486219461852e-04
1.12695833333333e+01 1.05430322048428e-02 1.43676323810423e-04
1.13054166666667e+01 1.04672538678037e-02 1.42870245356388e-04
