Energy (eV)          EEDF (eV^-(3/2))     First Anisotropy
4.50000000000000e-02 5.38869488065772e-02 3.74097262829799e-05
1.35000000000000e-01 5.32497927814481e-02 6.16160255114232e-05
2.25000000000000e-01 5.26201704506305e-02 8.09224662465460e-05
3.15000000000000e-01 5.19979927361878e-02 9.53380140422408e-05
4.05000000000000e-01 5.13831716134279e-02 1.07154257446637e-04
4.95000000000000e-01 5.07756200984560e-02 1.17244105505573e-04
5.85000000000000e-01 5.01752522358694e-02 1.26062501580287e-04
6.75000000000000e-01 4.95819830865967e-02 1.33886072961890e-04
7.65000000000000e-01 4.89957287158808e-02 1.40899530314689e-04
8.55000000000000e-01 4.84164061814042e-02 1.47234297374868e-04
9.45000000000000e-01 4.78439335215544e-02 1.52988302652316e-04
1.03500000000000e+00 4.72782297438277e-02 1.58237130011347e-04
1.12500000000000e+00 4.67192148133713e-02 1.63040759510359e-04
1.21500000000000e+00 4.61668096416593e-02 1.67447870996357e-04
1.30500000000000e+00 4.56209360753039e-02 1.71498714219522e-04
1.39500000000000e+00 4.50815168849982e-02 1.75227092627918e-04
1.48500000000000e+00 4.45484757545901e-02 1.78661776139294e-04
1.57500000000000e+00 4.40217372702848e-02 1.81827533111272e-04
1.66500000000000e+00 4.35012269099759e-02 1.84745900791747e-04
1.75500000000000e+00 4.29868710327016e-02 1.87435771556739e-04
1.84500000000000e+00 4.24785968682267e-02 1.89913846489623e-04
1.93500000000000e+00 4.19763325067467e-02 1.92194991550092e-04
2.02500000000000e+00 4.14800068887142e-02 1.94292520969033e-04
2.11500000000000e+00 4.09895497947857e-02 1.96218425428706e-04
2.20500000000000e+00 4.05048918358870e-02 1.97983557764856e-04
2.29500000000000e+00 4.00259644433961e-02 1.99597785576075e-04
2.38500000000000e+00 3.95526998594422e-02 2.01070117755940e-04
2.47500000000000e+00 3.90850311273194e-02 2.02408810260686e-04
2.56500000000000e+00 3.86228920820140e-02 2.03621455183824e-04
2.65500000000000e+00 3.81662173408434e-02 2.04715056292081e-04
2.74500000000000e+00 3.77149422942058e-02 2.05696093491293e-04
2.83500000000000e+00 3.72690030964394e-02 2.06570578172275e-04
2.92500000000000e+00 3.68283366567897e-02 2.07344100990310e-04
3.01500000000000e+00 3.63928806304836e-02 2.08021873326171e-04
3.10500000000000e+00 3.59625734099086e-02 2.08608763438454e-04
3.19500000000000e+00 3.55373541158970e-02 2.09109328130111e-04
3.28500000000000e+00 3.51171625891127e-02 2.09527840604106e-04
3.37500000000000e+00 3.47019393815400e-02 2.09868315065219e-04
3.46500000000000e+00 3.42916257480728e-02 2.10134528530428e-04
3.55500000000000e+00 3.38861636382036e-02 2.10330040233778e-04
3.64500000000000e+00 3.34854956878109e-02 2.10458208949479e-04
3.73500000000000e+00 3.30895652110426e-02 2.10522208506188e-04
3.82500000000000e+00 3.26983161922971e-02 2.10525041723681e-04
3.91500000000000e+00 3.23116932782977e-02 2.10469552968496e-04
4.00500000000000e+00 3.19296417702615e-02 2.10358439496535e-04
4.09500000000000e+00 3.15521076161608e-02 2.10194261726707e-04
4.18500000000000e+00 3.11790374030757e-02 2.09979452569542e-04
4.27500000000000e+00 3.08103783496375e-02 2.09716325917934e-04
4.36500000000000e+00 3.04460782985612e-02 2.09407084392884e-04
4.45500000000000e+00 3.00860857092664e-02 2.09053826424973e-04
4.54500000000000e+00 2.97303496505854e-02 2.08658552742053e-04
4.63500000000000e+00 2.93788197935575e-02 2.08223172324772e-04
4.72500000000000e+00 2.90314464043086e-02 2.07749507884110e-04
4.81500000000000e+00 2.86881803370150e-02 2.07239300908479e-04
4.90500000000000e+00 2.83489730269502e-02 2.06694216322440e-04
4.99500000000000e+00 2.80137764836141e-02 2.06115846794203e-04
5.08500000000000e+00 2.76825432839433e-02 2.05505716724869e-04
5.17500000000000e+00 2.73552265656019e-02 2.04865285948695e-04
5.26500000000000e+00 2.70317800203514e-02 2.04195953170510e-04
5.35500000000000e+00 2.67121578874992e-02 2.03499059163574e-04
5.44500000000000e+00 2.63963149474242e-02 2.02775889748728e-04
5.53500000000000e+00 2.60842065151795e-02 2.02027678573548e-04
5.62500000000000e+00 2.57757884341703e-02 2.01255609708280e-04
5.71500000000000e+00 2.54710170699067e-02 2.00460820073681e-04
5.80500000000000e+00 2.51698493038303e-02 1.99644401714380e-04
5.89500000000000e+00 2.48722425272139e-02 1.98807403930133e-04
5.98500000000000e+00 2.45781546351335e-02 1.97950835276034e-04
6.07500000000000e+00 2.42875440205110e-02 1.97075665441835e-04
6.16500000000000e+00 2.40003695682281e-02 1.96182827019524e-04
6.25500000000000e+00 2.37165906493088e-02 1.95273217167494e-04
6.34500000000000e+00 2.34361671151720e-02 1.94347699178929e-04
6.43500000000000e+00 2.31590592919508e-02 1.93407103961295e-04
6.52500000000000e+00 2.28852279748799e-02 1.92452231433286e-04
6.61500000000000e+00 2.26146344227485e-02 1.91483851844987e-04
6.70500000000000e+00 2.23472403524198e-02 1.90502707026587e-04
6.79500000000000e+00 2.20830079334144e-02 1.89509511570465e-04
6.88500000000000e+00 2.18218997825580e-02 1.88504953951142e-04
6.97500000000000e+00 2.15638789586930e-02 1.87489697587196e-04
7.06500000000000e+00 2.13089089574516e-02 1.86464381848886e-04
7.15500000000000e+00 2.10569537060917e-02 1.85429623015018e-04
7.24500000000000e+00 2.08079775583928e-02 1.84386015182234e-04
7.33500000000000e+00 2.05619452896133e-02 1.83334131129678e-04
7.42500000000000e+00 2.03188220915069e-02 1.82274523141819e-04
7.51500000000000e+00 2.00785735673978e-02 1.81207723791959e-04
7.60500000000000e+00 1.98411657273143e-02 1.80134246688761e-04
7.69500000000000e+00 1.96065649831804e-02 1.79054587187985e-04
7.78500000000000e+00 1.93747381440632e-02 1.77969223071502e-04
7.87500000000000e+00 1.91456524114775e-02 1.76878615195422e-04
7.96500000000000e+00 1.89192753747453e-02 1.75783208109096e-04
8.05500000000000e+00 1.86955750064106e-02 1.74683430646648e-04
8.14500000000000e+00 1.84745196577081e-02 1.73579696492558e-04
8.23500000000000e+00 1.82560780540855e-02 1.72472404722685e-04
8.32500000000000e+00 1.80402192907791e-02 1.71361940322078e-04
8.41500000000000e+00 1.78269128284411e-02 1.70248674680822e-04
8.50500000000000e+00 1.76161284888190e-02 1.69132966069086e-04
8.59500000000000e+00 1.74078364504865e-02 1.68015160092402e-04
8.68500000000000e+00 1.72020072446236e-02 1.66895590128248e-04
8.77500000000000e+00 1.69986117508482e-02 1.65774577744893e-04
8.86500000000000e+00 1.67976211930957e-02 1.64652433103320e-04
8.95500000000000e+00 1.65990071355479e-02 1.63529455343170e-04
9.04500000000000e+00 1.64027414786100e-02 1.62405932953442e-04
9.13500000000000e+00 1.62087964549352e-02 1.61282144128663e-04
9.22500000000000e+00 1.60171446254962e-02 1.60158357111292e-04
9.31500000000000e+00 1.58277588757028e-02 1.59034830520951e-04
9.40500000000000e+00 1.56406124115663e-02 1.57911813671163e-04
9.49500000000000e+00 1.54556787559085e-02 1.56789546874130e-04
9.58500000000000e+00 1.52729317446157e-02 1.55668261734115e-04
9.67500000000000e+00 1.50923455229371e-02 1.54548181429975e-04
9.76500000000000e+00 1.49138945418270e-02 1.53429520987295e-04
9.85500000000000e+00 1.47375535543299e-02 1.52312487540623e-04
9.94500000000000e+00 1.45632976120089e-02 1.51197280586214e-04
1.00350000000000e+01 1.43911020614159e-02 1.50084092225716e-04
1.01250000000000e+01 1.42209425406037e-02 1.48973107401194e-04
1.02150000000000e+01 1.40527949756792e-02 1.47864504121853e-04
1.03050000000000e+01 1.38866355773976e-02 1.46758453682831e-04
1.03950000000000e+01 1.37224408377967e-02 1.45655120876370e-04
1.04850000000000e+01 1.35601875268710e-02 1.44554664195695e-04
1.05750000000000e+01 1.33998526892853e-02 1.43457236031911e-04
1.06650000000000e+01 1.32414136411267e-02 1.42362982864213e-04
1.07550000000000e+01 1.30848479666957e-02 1.41272045443652e-04
1.08450000000000e+01 1.29301335153346e-02 1.40184558970724e-04
1.09350000000000e+01 1.27772483982936e-02 1.39100653267050e-04
1.10250000000000e+01 1.26261709856345e-02 1.38020452941361e-04
1.11150000000000e+01 1.24768799031697e-02 1.36944077550020e-04
1.12050000000000e+01 1.23293540294392e-02 1.35871641752283e-04
1.12950000000000e+01 1.21835724927216e-02 1.34803255460532e-04
1.13850000000000e+01 1.20395146680814e-02 1.33739023985606e-04
1.14750000000000e+01 1.18971601744512e-02 1.32679048177514e-04
1.15650000000000e+01 1.17564888717482e-02 1.31623424561614e-04
1.16550000000000e+01 1.16174808580246e-02 1.30572245470468e-04
1.17450000000000e+01 1.14801164666520e-02 1.29525599171547e-04
1.18350000000000e+01 1.13443762635392e-02 1.28483569990897e-04
1.19250000000000e+01 1.12102410443822e-02 1.27446238432959e-04
1.20150000000000e+01 1.10776918319480e-02 1.26413681296641e-04
1.21050000000000e+01 1.09467098733887e-02 1.25385971787807e-04
1.21950000000000e+01 1.08172766375894e-02 1.24363179628311e-04
1.22850000000000e+01 1.06893738125458e-02 1.23345371161648e-04
1.23750000000000e+01 1.05629833027736e-02 1.22332609455417e-04
1.24650000000000e+01 1.04380872267485e-02 1.21324954400672e-04
1.25550000000000e+01 1.03146679143762e-02 1.20322462808238e-04
1.26450000000000e+01 1.01927079044924e-02 1.19325188502144e-04
1.27350000000000e+01 1.00721899423929e-02 1.18333182410260e-04
1.28250000000000e+01 9.95309697739182e-03 1.17346492652219e-04
1.29150000000000e+01 9.83541216040954e-03 1.16365164624719e-04
1.30050000000000e+01 9.71911884158904e-03 1.15389241084301e-04
1.30950000000000e+01 9.60420056794019e-03 1.14418762227686e-04
1.31850000000000e+01 9.49064108101200e-03 1.13453765769751e-04
1.32750000000000e+01 9.37842431459241e-03 1.12494287019210e-04
1.33650000000000e+01 9.26753439243531e-03 1.11540358952096e-04
1.34550000000000e+01 9.15795562601435e-03 1.10592012283096e-04
1.35450000000000e+01 9.04967251230336e-03 1.09649275534818e-04
1.36350000000000e+01 8.94266973158303e-03 1.08712175105070e-04
1.37250000000000e+01 8.83693214527347e-03 1.07780735332169e-04
1.38150000000000e+01 8.73244479379245e-03 1.06854978558406e-04
1.39050000000000e+01 8.62919289443895e-03 1.05934925191674e-04
1.39950000000000e+01 8.52716183930168e-03 1.05020593765342e-04
1.40850000000000e+01 8.42633719319243e-03 1.04112000996410e-04
1.41750000000000e+01 8.32670469160379e-03 1.03209161842029e-04
1.42650000000000e+01 8.22825023869102e-03 1.02312089554418e-04
1.43550000000000e+01 8.13095990527777e-03 1.01420795734218e-04
1.44450000000000e+01 8.03481992688548e-03 1.00535290382339e-04
1.45350000000000e+01 7.93981670178589e-03 9.96555819503607e-05
1.46250000000000e+01 7.84593678907681e-03 9.87816773895038e-05
1.47150000000000e+01 7.75316690678042e-03 9.79135821982494e-05
1.48050000000000e+01 7.66149392996424e-03 9.70513004686052e-05
1.48950000000000e+01 7.57090488888418e-03 9.61948349310885e-05
1.49850000000000e+01 7.48138696714962e-03 9.53441869984634e-05
1.50750000000000e+01 7.39292749991016e-03 9.44993568082511e-05
1.51650000000000e+01 7.30551397206384e-03 9.36603432640582e-05
1.52550000000000e+01 7.21913401648651e-03 9.28271440757676e-05
1.53450000000000e+01 7.13377541228215e-03 9.19997557986297e-05
1.54350000000000e+01 7.04942608305385e-03 9.11781738712411e-05
1.55250000000000e+01 6.96607409519532e-03 9.03623926524938e-05
1.56150000000000e+01 6.88370765620248e-03 8.95524054575103e-05
1.57050000000000e+01 6.80231511300513e-03 8.87482045925763e-05
1.57950000000000e+01 6.72188495031826e-03 8.79497813891282e-05
1.58850000000000e+01 6.64240578901288e-03 8.71571262367913e-05
1.59750000000000e+01 6.56386638450615e-03 8.63702286155194e-05
1.60650000000000e+01 6.48625562517049e-03 8.55890771268536e-05
1.61550000000000e+01 6.40956253076155e-03 8.48136595243181e-05
1.62450000000000e+01 6.33377625086469e-03 8.40439627429905e-05
1.63350000000000e+01 6.25888606335995e-03 8.32799729282566e-05
1.64250000000000e+01 6.18488137290505e-03 8.25216754637855e-05
1.65150000000000e+01 6.11175170943640e-03 8.17690549987346e-05
1.66050000000000e+01 6.03948672668782e-03 8.10220954742091e-05
1.66950000000000e+01 5.96807620072675e-03 8.02807801490015e-05
1.67850000000000e+01 5.89751002850777e-03 7.95450916246304e-05
1.68750000000000e+01 5.82777822644328e-03 7.88150118696897e-05
1.69650000000000e+01 5.75887092899102e-03 7.80905222435322e-05
1.70550000000000e+01 5.69077838725830e-03 7.73716035193157e-05
1.71450000000000e+01 5.62349096762274e-03 7.66582359064081e-05
1.72350000000000e+01 5.55699915036933e-03 7.59503990721803e-05
1.73250000000000e+01 5.49129352834361e-03 7.52480721632121e-05
1.74150000000000e+01 5.42636480562072e-03 7.45512338259080e-05
1.75050000000000e+01 5.36220379619027e-03 7.38598622265534e-05
1.75950000000000e+01 5.29880142265671e-03 7.31739350708260e-05
1.76850000000000e+01 5.23614871495505e-03 7.24934296227642e-05
1.77750000000000e+01 5.17423680908182e-03 7.18183227232185e-05
1.78650000000000e+01 5.11305694584096e-03 7.11485908077940e-05
1.79550000000000e+01 5.05260046960466e-03 7.04842099243075e-05
1.80450000000000e+01 4.99285882708870e-03 6.98251557497541e-05
1.81350000000000e+01 4.93382356614239e-03 6.91714036068120e-05
1.82250000000000e+01 4.87548633455274e-03 6.85229284798960e-05
1.83150000000000e+01 4.81783887886284e-03 6.78797050307571e-05
1.84050000000000e+01 4.76087304320415e-03 6.72417076136611e-05
1.84950000000000e+01 4.70458076814263e-03 6.66089102901420e-05
1.85850000000000e+01 4.64895408953849e-03 6.59812868433450e-05
1.86750000000000e+01 4.59398513741945e-03 6.53588107919748e-05
1.87650000000000e+01 4.53966613486732e-03 6.47414554038525e-05
1.88550000000000e+01 4.48598939691770e-03 6.41291937090980e-05
1.89450000000000e+01 4.43294732947277e-03 6.35219985129377e-05
1.90350000000000e+01 4.38053242822684e-03 6.29198424081619e-05
1.91250000000000e+01 4.32873727760469e-03 6.23226977872285e-05
1.92150000000000e+01 4.27755454971242e-03 6.17305368540229e-05
1.93050000000000e+01 4.22697700330067e-03 6.11433316352922e-05
1.93950000000000e+01 4.17699748274021e-03 6.05610539917481e-05
1.94850000000000e+01 4.12760891700954e-03 5.99836756288694e-05
1.95750000000000e+01 4.07880431869446e-03 5.94111681073876e-05
1.96650000000000e+01 4.03057678299954e-03 5.88435028534622e-05
1.97550000000000e+01 3.98291948677127e-03 5.82806511685942e-05
1.98450000000000e+01 3.93582568753265e-03 5.77225842392309e-05
1.99350000000000e+01 3.88928872252935e-03 5.71692731460984e-05
2.00250000000000e+01 3.84330200778702e-03 5.66206888732817e-05
2.01150000000000e+01 3.79785903717984e-03 5.60768023170172e-05
2.02050000000000e+01 3.75295338151003e-03 5.55375842942441e-05
2.02950000000000e+01 3.70857868759826e-03 5.50030055509079e-05
2.03850000000000e+01 3.66472867738478e-03 5.44730367700126e-05
2.04750000000000e+01 3.62139714704128e-03 5.39476485794409e-05
2.05650000000000e+01 3.57857796609310e-03 5.34268115595433e-05
2.06550000000000e+01 3.53626507655198e-03 5.29104962505019e-05
2.07450000000000e+01 3.49445249205892e-03 5.23986731594760e-05
2.08350000000000e+01 3.45313429703728e-03 5.18913127675287e-05
2.09250000000000e+01 3.41230464585583e-03 5.13883855363545e-05
2.10150000000000e+01 3.37195776200175e-03 5.08898619147954e-05
2.11050000000000e+01 3.33208793726333e-03 5.03957123451602e-05
2.11950000000000e+01 3.29268953092243e-03 4.99059072693579e-05
2.12850000000000e+01 3.25375696895642e-03 4.94204171348396e-05
2.13750000000000e+01 3.21528474324957e-03 4.89392124003505e-05
2.14650000000000e+01 3.17726741081377e-03 4.84622635415084e-05
2.15550000000000e+01 3.13969959301850e-03 4.79895410562133e-05
2.16450000000000e+01 3.10257597482981e-03 4.75210154698827e-05
2.17350000000000e+01 3.06589130405841e-03 4.70566573405171e-05
2.18250000000000e+01 3.02964039061658e-03 4.65964372636122e-05
2.19150000000000e+01 2.99381810578386e-03 4.61403258769103e-05
2.20050000000000e+01 2.95841938148150e-03 4.56882938649951e-05
2.20950000000000e+01 2.92343920955538e-03 4.52403119637447e-05
2.21850000000000e+01 2.88887264106752e-03 4.47963509646336e-05
2.22750000000000e+01 2.85471478559587e-03 4.43563817188964e-05
2.23650000000000e+01 2.82096081054242e-03 4.39203751415513e-05
2.24550000000000e+01 2.78760594044953e-03 4.34883022152862e-05
2.25450000000000e+01 2.75464545632427e-03 4.30601339942189e-05
2.26350000000000e+01 2.72207469497079e-03 4.26358416075292e-05
2.27250000000000e+01 2.68988904833062e-03 4.22153962629614e-05
2.28150000000000e+01 2.65808396283065e-03 4.17987692502071e-05
2.29050000000000e+01 2.62665493873897e-03 4.13859319441727e-05
2.29950000000000e+01 2.59559752952823e-03 4.09768558081311e-05
2.30850000000000e+01 2.56490734124653e-03 4.05715123967574e-05
2.31750000000000e+01 2.53458003189581e-03 4.01698733590521e-05
2.32650000000000e+01 2.50461131081752e-03 3.97719104411696e-05
2.33550000000000e+01 2.47499693808562e-03 3.93775954891346e-05
2.34450000000000e+01 2.44573272390666e-03 3.89869004514538e-05
2.35350000000000e+01 2.41681452802710e-03 3.85997973816327e-05
2.36250000000000e+01 2.38823825914747e-03 3.82162584406025e-05
2.37150000000000e+01 2.35999987434360e-03 3.78362558990441e-05
2.38050000000000e+01 2.33209537849461e-03 3.74597621396196e-05
2.38950000000000e+01 2.30452082371766e-03 3.70867496591247e-05
2.39850000000000e+01 2.27727230880948e-03 3.67171910705465e-05
2.40750000000000e+01 2.25034597869437e-03 3.63510591050373e-05
2.41650000000000e+01 2.22373802387880e-03 3.59883266138096e-05
2.42550000000000e+01 2.19744467991248e-03 3.56289665699503e-05
2.43450000000000e+01 2.17146222685575e-03 3.52729520701558e-05
2.44350000000000e+01 2.14578698875329e-03 3.49202563363880e-05
2.45250000000000e+01 2.12041533311405e-03 3.45708527174612e-05
2.46150000000000e+01 2.09534367039734e-03 3.42247146905575e-05
2.47050000000000e+01 2.07056845350497e-03 3.38818158626656e-05
2.47950000000000e+01 2.04608617727944e-03 3.35421299719570e-05
2.48850000000000e+01 2.02189337800802e-03 3.32056308890940e-05
2.49750000000000e+01 1.99798663293269e-03 3.28722926184731e-05
2.50650000000000e+01 1.97436255976594e-03 3.25420892994059e-05
2.51550000000000e+01 1.95101781621220e-03 3.22149952072357e-05
2.52450000000000e+01 1.92794909949503e-03 3.18909847543970e-05
2.53350000000000e+01 1.90515314588978e-03 3.15700324914170e-05
2.54250000000000e+01 1.88262673026191e-03 3.12521131078610e-05
2.55150000000000e+01 1.86036666561067e-03 3.09372014332171e-05
2.56050000000000e+01 1.83836980261822e-03 3.06252724377358e-05
2.56950000000000e+01 1.81663302920405e-03 3.03163012332123e-05
2.57850000000000e+01 1.79515327008471e-03 3.00102630737175e-05
2.58750000000000e+01 1.77392748633871e-03 2.97071333562834e-05
2.59650000000000e+01 1.75295267497660e-03 2.94068876215380e-05
2.60550000000000e+01 1.73222586851608e-03 2.91095015542925e-05
2.61450000000000e+01 1.71174413456218e-03 2.88149509840848e-05
2.62350000000000e+01 1.69150457539241e-03 2.85232118856795e-05
2.63250000000000e+01 1.67150432754675e-03 2.82342603795226e-05
2.64150000000000e+01 1.65174056142257e-03 2.79480727321563e-05
2.65050000000000e+01 1.63221048087431e-03 2.76646253565938e-05
2.65950000000000e+01 1.61291132281782e-03 2.73838948126524e-05
2.66850000000000e+01 1.59384035683953e-03 2.71058578072483e-05
2.67750000000000e+01 1.57499488481010e-03 2.68304911946571e-05
2.68650000000000e+01 1.55637224050272e-03 2.65577719767366e-05
2.69550000000000e+01 1.53796978921586e-03 2.62876773031133e-05
2.70450000000000e+01 1.51978492740056e-03 2.60201844713349e-05
2.71350000000000e+01 1.50181508229207e-03 2.57552709269912e-05
2.72250000000000e+01 1.48405771154584e-03 2.54929142638032e-05
2.73150000000000e+01 1.46651030287785e-03 2.52330922236779e-05
2.74050000000000e+01 1.44917037370919e-03 2.49757826967344e-05
2.74950000000000e+01 1.43203547081480e-03 2.47209637213027e-05
2.75850000000000e+01 1.41510316997640e-03 2.44686134838899e-05
2.76750000000000e+01 1.39837107563953e-03 2.42187103191225e-05
2.77650000000000e+01 1.38183682057462e-03 2.39712327096592e-05
2.78550000000000e+01 1.36549806554209e-03 2.37261592860780e-05
2.79450000000000e+01 1.34935249896135e-03 2.34834688267388e-05
2.80350000000000e+01 1.33339783658385e-03 2.32431402576221e-05
2.81250000000000e+01 1.31763182116982e-03 2.30051526521419e-05
2.82150000000000e+01 1.30205222216896e-03 2.27694852309358e-05
2.83050000000000e+01 1.28665683540489e-03 2.25361173616367e-05
2.83950000000000e+01 1.27144348276324e-03 2.23050285586169e-05
