Energy (eV)          EEDF (eV^-(3/2))     First Anisotropy
1.58000000000000e-02 3.23927797253152e-01 2.41172620945903e-04
4.74000000000000e-02 3.19483193918586e-01 3.96846515365494e-04
7.90000000000000e-02 3.15099574849479e-01 5.20191763530115e-04
1.10600000000000e-01 3.10776103282661e-01 6.11682328101679e-04
1.42200000000000e-01 3.06511953936113e-01 6.86174753444622e-04
1.73800000000000e-01 3.02306312851483e-01 7.49344963561775e-04
2.05400000000000e-01 2.98158377238711e-01 8.04159445320131e-04
2.37000000000000e-01 2.94067355322795e-01 8.52426850343578e-04
2.68600000000000e-01 2.90032466192653e-01 8.95358032730379e-04
3.00200000000000e-01 2.86052939652059e-01 9.33816725483882e-04
3.31800000000000e-01 2.82128016072626e-01 9.68448113871592e-04
3.63400000000000e-01 2.78256946248807e-01 9.99751351743946e-04
3.95000000000000e-01 2.74438991254877e-01 1.02812344702986e-03
4.26600000000000e-01 2.70673422303890e-01 1.05388731013483e-03
4.58200000000000e-01 2.66959520608565e-01 1.07731048009437e-03
4.89800000000000e-01 2.63296577244076e-01 1.09861808212997e-03
5.21400000000000e-01 2.59683893012736e-01 1.11800206571225e-03
5.53000000000000e-01 2.56120778310525e-01 1.13562796017675e-03
5.84600000000000e-01 2.52606552995459e-01 1.15163992410778e-03
6.16200000000000e-01 2.49140546257764e-01 1.16616459188484e-03
6.47800000000000e-01 2.45722096491823e-01 1.17931405330696e-03
6.79400000000000e-01 2.42350551169890e-01 1.19118819611445e-03
7.11000000000000e-01 2.39025266717534e-01 1.20187657214143e-03
7.42600000000000e-01 2.35745608390786e-01 1.21145990173463e-03
7.74200000000000e-01 2.32510950154983e-01 1.22001129964333e-03
8.05800000000000e-01 2.29320674565261e-01 1.22759728373272e-03
8.37400000000000e-01 2.26174172648699e-01 1.23427861241162e-03
8.69000000000000e-01 2.23070843788077e-01 1.24011098554986e-03
9.00600000000000e-01 2.20010095607221e-01 1.24514563555343e-03
9.32200000000000e-01 2.16991343857937e-01 1.24942982927250e-03
9.63800000000000e-01 2.14014012308478e-01 1.25300729693379e-03
9.95400000000000e-01 2.11077532633559e-01 1.25591860089615e-03
1.02700000000000e+00 2.08181344305866e-01 1.25820145443346e-03
1.05860000000000e+00 2.05324894489064e-01 1.25989099874671e-03
1.09020000000000e+00 2.02507637932269e-01 1.26102004484693e-03
1.12180000000000e+00 1.99729036865967e-01 1.26161928572455e-03
1.15340000000000e+00 1.96988560899361e-01 1.26171748325096e-03
1.18500000000000e+00 1.94285686919134e-01 1.26134163348392e-03
1.21660000000000e+00 1.91619898989587e-01 1.26051711342647e-03
1.24820000000000e+00 1.88990688254161e-01 1.25926781178697e-03
1.27980000000000e+00 1.86397552838301e-01 1.25761624587918e-03
1.31140000000000e+00 1.83839997753658e-01 1.25558366646651e-03
1.34300000000000e+00 1.81317534803603e-01 1.25319015207993e-03
1.37460000000000e+00 1.78829682490037e-01 1.25045469411167e-03
1.40620000000000e+00 1.76375965921481e-01 1.24739527379729e-03
1.43780000000000e+00 1.73955916722431e-01 1.24402893204178e-03
1.46940000000000e+00 1.71569072943944e-01 1.24037183291224e-03
1.50100000000000e+00 1.69214978975469e-01 1.23643932150903e-03
1.53260000000000e+00 1.66893185457869e-01 1.23224597683222e-03
1.56420000000000e+00 1.64603249197652e-01 1.22780566018107e-03
1.59580000000000e+00 1.62344733082372e-01 1.22313155955529e-03
1.62740000000000e+00 1.60117205997185e-01 1.21823623046934e-03
1.65900000000000e+00 1.57920242742565e-01 1.21313163354060e-03
1.69060000000000e+00 1.55753423953132e-01 1.20782916916920e-03
1.72220000000000e+00 1.53616336017608e-01 1.20233970959000e-03
1.75380000000000e+00 1.51508570999862e-01 1.19667362854604e-03
1.78540000000000e+00 1.49429726561041e-01 1.19084082880344e-03
1.81700000000000e+00 1.47379405882773e-01 1.18485076770390e-03
1.84860000000000e+00 1.45357217591416e-01 1.17871248093055e-03
1.88020000000000e+00 1.43362775683356e-01 1.17243460464294e-03
1.91180000000000e+00 1.41395699451322e-01 1.16602539612142e-03
1.94340000000000e+00 1.39455613411716e-01 1.15949275304692e-03
1.97500000000000e+00 1.37542147232937e-01 1.15284423152858e-03
2.00660000000000e+00 1.35654935664695e-01 1.14608706298170e-03
2.03820000000000e+00 1.33793618468288e-01 1.13922816994754e-03
2.06980000000000e+00 1.31957840347836e-01 1.13227418093834e-03
2.10140000000000e+00 1.30147250882464e-01 1.12523144438258e-03
2.13300000000000e+00 1.28361504459411e-01 1.11810604173896e-03
2.16460000000000e+00 1.26600260208058e-01 1.11090379984135e-03
2.19620000000000e+00 1.24863181934862e-01 1.10363030253082e-03
2.22780000000000e+00 1.23149938059181e-01 1.09629090162673e-03
2.25940000000000e+00 1.21460201549979e-01 1.08889072728343e-03
2.29100000000000e+00 1.19793649863405e-01 1.08143469777594e-03
2.32260000000000e+00 1.18149964881221e-01 1.07392752875405e-03
2.35420000000000e+00 1.16528832850080e-01 1.06637374200046e-03
2.38580000000000e+00 1.14929944321636e-01 1.05877767372659e-03
2.41740000000000e+00 1.13352994093472e-01 1.05114348243633e-03
2.44900000000000e+00 1.11797681150845e-01 1.04347515638589e-03
2.48060000000000e+00 1.10263708609227e-01 1.03577652066535e-03
2.51220000000000e+00 1.08750783657633e-01 1.02805124392602e-03
2.54380000000000e+00 1.07258617502728e-01 1.02030284477557e-03
2.57540000000000e+00 1.05786925313700e-01 1.01253469786107e-03
2.60700000000000e+00 1.04335426167896e-01 1.00475003965926e-03
2.63860000000000e+00 1.02903842997190e-01 9.96951973991150e-04
2.67020000000000e+00 1.01491902535101e-01 9.89143477277215e-04
2.70180000000000e+00 1.00099335264628e-01 9.81327403548338e-04
2.73340000000000e+00 9.87258753668066e-02 9.73506489226602e-04
2.76500000000000e+00 9.73712606699640e-02 9.65683357688734e-04
2.79660000000000e+00 9.60352325996779e-02 9.57860523624383e-04
2.82820000000000e+00 9.47175361294173e-02 9.50040397200710e-04
2.85980000000000e+00 9.34179197318628e-02 9.42225288043643e-04
2.89140000000000e+00 9.21361353308932e-02 9.34417409045809e-04
2.92300000000000e+00 9.08719382542323e-02 9.26618880010281e-04
2.95460000000000e+00 8.96250871867446e-02 9.18831731138764e-04
2.98620000000000e+00 8.83953441243723e-02 9.11057906372329e-04
3.01780000000000e+00 8.71824743287038e-02 9.03299266592241e-04
3.04940000000000e+00 8.59862462821660e-02 8.95557592687969e-04
3.08100000000000e+00 8.48064316438315e-02 8.87834588499100e-04
3.11260000000000e+00 8.36428052058315e-02 8.80131883637276e-04
3.14420000000000e+00 8.24951448503676e-02 8.72451036194170e-04
3.17580000000000e+00 8.13632315073127e-02 8.64793535340996e-04
3.20740000000000e+00 8.02468491123943e-02 8.57160803824734e-04
3.23900000000000e+00 7.91457845659512e-02 8.49554200365949e-04
3.27060000000000e+00 7.80598276922559e-02 8.41975021962913e-04
3.30220000000000e+00 7.69887711993956e-02 8.34424506106294e-04
3.33380000000000e+00 7.59324106397037e-02 8.26903832908671e-04
3.36540000000000e+00 7.48905443707335e-02 8.19414127152557e-04
3.39700000000000e+00 7.38629735167682e-02 8.11956460260750e-04
3.42860000000000e+00 7.28495019308586e-02 8.04531852192514e-04
3.46020000000000e+00 7.18499361573816e-02 7.97141273268682e-04
3.49180000000000e+00 7.08640853951131e-02 7.89785645929073e-04
3.52340000000000e+00 6.98917614608064e-02 7.82465846424911e-04
3.55500000000000e+00 6.89327787532713e-02 7.75182706449145e-04
3.58660000000000e+00 6.79869542179462e-02 7.67937014707454e-04
3.61820000000000e+00 6.70541073119550e-02 7.60729518432172e-04
3.64980000000000e+00 6.61340599696453e-02 7.53560924841733e-04
3.68140000000000e+00 6.52266365685977e-02 7.46431902547893e-04
3.71300000000000e+00 6.43316638961028e-02 7.39343082912669e-04
3.74460000000000e+00 6.34489711160973e-02 7.32295061357413e-04
3.77620000000000e+00 6.25783897365546e-02 7.25288398625616e-04
3.80780000000000e+00 6.17197535773215e-02 7.18323622001455e-04
3.83940000000000e+00 6.08728987383979e-02 7.11401226485884e-04
3.87100000000000e+00 6.00376635686506e-02 7.04521675931875e-04
3.90260000000000e+00 5.92138886349565e-02 6.97685404140489e-04
3.93420000000000e+00 5.84014166917695e-02 6.90892815919168e-04
3.96580000000000e+00 5.76000926511047e-02 6.84144288103797e-04
3.99740000000000e+00 5.68097635529348e-02 6.77440170546035e-04
4.02900000000000e+00 5.60302785359924e-02 6.70780787067023e-04
4.06060000000000e+00 5.52614888089726e-02 6.64166436378877e-04
4.09220000000000e+00 5.45032476221317e-02 6.57597392975180e-04
4.12380000000000e+00 5.37554102392746e-02 6.51073907991540e-04
4.15540000000000e+00 5.30178339101271e-02 6.44596210037426e-04
4.18700000000000e+00 5.22903778430871e-02 6.38164506000299e-04
4.21860000000000e+00 5.15729031783498e-02 6.31778981823011e-04
4.25020000000000e+00 5.08652729614014e-02 6.25439803255505e-04
4.28180000000000e+00 5.01673521168769e-02 6.19147116581720e-04
4.31340000000000e+00 4.94790074227760e-02 6.12901049322577e-04
4.34500000000000e+00 4.88001074850337e-02 6.06701710915964e-04
4.37660000000000e+00 4.81305227124387e-02 6.00549193374420e-04
4.40820000000000e+00 4.74701252918968e-02 5.94443571921397e-04
4.43980000000000e+00 4.68187891640331e-02 5.88384905606834e-04
4.47140000000000e+00 4.61763899991299e-02 5.82373237902768e-04
4.50300000000000e+00 4.55428051733934e-02 5.76408597279630e-04
4.53460000000000e+00 4.49179137455473e-02 5.70490997763928e-04
4.56620000000000e+00 4.43015964337467e-02 5.64620439477974e-04
4.59780000000000e+00 4.36937355928093e-02 5.58796909162232e-04
4.62940000000000e+00 4.30942151917588e-02 5.53020380680915e-04
4.66100000000000e+00 4.25029207916761e-02 5.47290815511320e-04
4.69260000000000e+00 4.19197395238552e-02 5.41608163217503e-04
4.72420000000000e+00 4.13445600682580e-02 5.35972361908886e-04
4.75580000000000e+00 4.07772726322655e-02 5.30383338684196e-04
4.78740000000000e+00 4.02177689297195e-02 5.24841010061197e-04
4.81900000000000e+00 3.96659421602530e-02 5.19345282392784e-04
4.85060000000000e+00 3.91216869889035e-02 5.13896052269848e-04
4.88220000000000e+00 3.85848995260064e-02 5.08493206911327e-04
4.91380000000000e+00 3.80554773073638e-02 5.03136624541891e-04
4.94540000000000e+00 3.75333192746861e-02 4.97826174757605e-04
4.97700000000000e+00 3.70183257563012e-02 4.92561718880007e-04
5.00860000000000e+00 3.65103984481291e-02 4.87343110299040e-04
5.04020000000000e+00 3.60094403949170e-02 4.82170194805012e-04
5.07180000000000e+00 3.55153559717321e-02 4.77042810910051e-04
5.10340000000000e+00 3.50280508657083e-02 4.71960790159478e-04
5.13500000000000e+00 3.45474320580437e-02 4.66923957433216e-04
5.16660000000000e+00 3.40734078062443e-02 4.61932131237670e-04
5.19820000000000e+00 3.36058876266119e-02 4.56985123988443e-04
5.22980000000000e+00 3.31447822769727e-02 4.52082742283985e-04
5.26140000000000e+00 3.26900037396418e-02 4.47224787170606e-04
5.29300000000000e+00 3.22414652046221e-02 4.42411054399125e-04
5.32460000000000e+00 3.17990810530342e-02 4.37641334673285e-04
5.35620000000000e+00 3.13627668407724e-02 4.32915413890384e-04
5.38780000000000e+00 3.09324392823860e-02 4.28233073374211e-04
5.41940000000000e+00 3.05080162351815e-02 4.23594090100467e-04
5.45100000000000e+00 3.00894166835427e-02 4.18998236915167e-04
5.48260000000000e+00 2.96765607234663e-02 4.14445282746013e-04
5.51420000000000e+00 2.92693695473092e-02 4.09934992806958e-04
5.54580000000000e+00 2.88677654287456e-02 4.05467128796304e-04
5.57740000000000e+00 2.84716717079303e-02 4.01041449088390e-04
5.60900000000000e+00 2.80810127768655e-02 3.96657708919170e-04
5.64060000000000e+00 2.76957140649681e-02 3.92315660565826e-04
5.67220000000000e+00 2.73157020248362e-02 3.88015053520540e-04
5.70380000000000e+00 2.69409041182090e-02 3.83755634658698e-04
5.73540000000000e+00 2.65712488021212e-02 3.79537148401631e-04
5.76700000000000e+00 2.62066655152465e-02 3.75359336874096e-04
5.79860000000000e+00 2.58470846644281e-02 3.71221940056627e-04
5.83020000000000e+00 2.54924376113948e-02 3.67124695932869e-04
5.86180000000000e+00 2.51426566596591e-02 3.63067340632160e-04
5.89340000000000e+00 2.47976750415950e-02 3.59049608567421e-04
5.92500000000000e+00 2.44574269056927e-02 3.55071232568452e-04
5.95660000000000e+00 2.41218473039894e-02 3.51131944010894e-04
5.98820000000000e+00 2.37908721796710e-02 3.47231472940892e-04
6.01980000000000e+00 2.34644383548450e-02 3.43369548195585e-04
6.05140000000000e+00 2.31424835184808e-02 3.39545897519622e-04
6.08300000000000e+00 2.28249462145157e-02 3.35760247677746e-04
6.11460000000000e+00 2.25117658301236e-02 3.32012324563590e-04
6.14620000000000e+00 2.22028825841452e-02 3.28301853304803e-04
6.17780000000000e+00 2.18982375156765e-02 3.24628558364619e-04
6.20940000000000e+00 2.15977724728145e-02 3.20992163639913e-04
6.24100000000000e+00 2.13014301015563e-02 3.17392392555952e-04
6.27260000000000e+00 2.10091538348519e-02 3.13828968157872e-04
6.30420000000000e+00 2.07208878818059e-02 3.10301613198959e-04
6.33580000000000e+00 2.04365772170279e-02 3.06810050225897e-04
6.36740000000000e+00 2.01561675701295e-02 3.03354001661012e-04
6.39900000000000e+00 1.98796054153644e-02 2.99933189881606e-04
6.43060000000000e+00 1.96068379614114e-02 2.96547337296487e-04
6.46220000000000e+00 1.93378131412975e-02 2.93196166419812e-04
6.49380000000000e+00 1.90724796024591e-02 2.89879399942228e-04
6.52540000000000e+00 1.88107866969393e-02 2.86596760799477e-04
6.55700000000000e+00 1.85526844717205e-02 2.83347972238474e-04
6.58860000000000e+00 1.82981236591888e-02 2.80132757880988e-04
6.62020000000000e+00 1.80470556677298e-02 2.76950841784995e-04
6.65180000000000e+00 1.77994325724530e-02 2.73801948503671e-04
6.68340000000000e+00 1.75552071060439e-02 2.70685803142252e-04
6.71500000000000e+00 1.73143326497414e-02 2.67602131412720e-04
6.74660000000000e+00 1.70767632244391e-02 2.64550659686373e-04
6.77820000000000e+00 1.68424534819083e-02 2.61531115044389e-04
6.80980000000000e+00 1.66113586961420e-02 2.58543225326446e-04
6.84140000000000e+00 1.63834347548174e-02 2.55586719177405e-04
6.87300000000000e+00 1.61586381508756e-02 2.52661326092148e-04
6.90460000000000e+00 1.59369259742167e-02 2.49766776458634e-04
6.93620000000000e+00 1.57182559035087e-02 2.46902801599191e-04
6.96780000000000e+00 1.55025861981096e-02 2.44069133810106e-04
6.99940000000000e+00 1.52898756900994e-02 2.41265506399603e-04
7.03100000000000e+00 1.50800837764217e-02 2.38491653724244e-04
7.06260000000000e+00 1.48731704111336e-02 2.35747311223713e-04
7.09420000000000e+00 1.46690960977613e-02 2.33032215454146e-04
7.12580000000000e+00 1.44678218817607e-02 2.30346104120008e-04
7.15740000000000e+00 1.42693093430821e-02 2.27688716104551e-04
7.18900000000000e+00 1.40735205888359e-02 2.25059791498891e-04
7.22060000000000e+00 1.38804182460598e-02 2.22459071629758e-04
7.25220000000000e+00 1.36899654545847e-02 2.19886299085967e-04
7.28380000000000e+00 1.35021258599987e-02 2.17341217743627e-04
7.31540000000000e+00 1.33168636067078e-02 2.14823572790148e-04
7.34700000000000e+00 1.31341433310913e-02 2.12333110747056e-04
7.37860000000000e+00 1.29539301547520e-02 2.09869579491680e-04
7.41020000000000e+00 1.27761896778577e-02 2.07432728277719e-04
7.44180000000000e+00 1.26008879725756e-02 2.05022307754746e-04
7.47340000000000e+00 1.24279915765953e-02 2.02638069986659e-04
7.50500000000000e+00 1.22574674867420e-02 2.00279768469145e-04
7.53660000000000e+00 1.20892831526764e-02 1.97947158146141e-04
7.56820000000000e+00 1.19234064706813e-02 1.95639995425368e-04
7.59980000000000e+00 1.17598057775337e-02 1.93358038192929e-04
7.63140000000000e+00 1.15984498444607e-02 1.91101045827009e-04
7.66300000000000e+00 1.14393078711784e-02 1.88868779210746e-04
7.69460000000000e+00 1.12823494800126e-02 1.86661000744231e-04
7.72620000000000e+00 1.11275447101004e-02 1.84477474355712e-04
7.75780000000000e+00 1.09748640116709e-02 1.82317965512023e-04
7.78940000000000e+00 1.08242782404045e-02 1.80182241228226e-04
7.82100000000000e+00 1.06757586518702e-02 1.78070070076535e-04
7.85260000000000e+00 1.05292768960383e-02 1.75981222194528e-04
7.88420000000000e+00 1.03848050118691e-02 1.73915469292657e-04
7.91580000000000e+00 1.02423154219753e-02 1.71872584661100e-04
7.94740000000000e+00 1.01017809273582e-02 1.69852343175956e-04
7.97900000000000e+00 9.96317470221567e-03 1.67854521304819e-04
8.01060000000000e+00 9.82647028882164e-03 1.65878897111757e-04
8.04220000000000e+00 9.69164159247562e-03 1.63925250261671e-04
8.07380000000000e+00 9.55866287652176e-03 1.61993362024118e-04
8.10540000000000e+00 9.42750875743603e-03 1.60083015276581e-04
8.13700000000000e+00 9.29815419998097e-03 1.58193994507190e-04
8.16860000000000e+00 9.17057451242685e-03 1.56326085816952e-04
8.20020000000000e+00 9.04474534183839e-03 1.54479076921467e-04
8.23180000000000e+00 8.92064266942620e-03 1.52652757152180e-04
8.26340000000000e+00 8.79824280596194e-03 1.50846917457154e-04
8.29500000000000e+00 8.67752238725645e-03 1.49061350401402e-04
8.32660000000000e+00 8.55845836969990e-03 1.47295850166796e-04
8.35820000000000e+00 8.44102802586312e-03 1.45550212551539e-04
8.38980000000000e+00 8.32520894015928e-03 1.43824234969253e-04
8.42140000000000e+00 8.21097900456514e-03 1.42117716447673e-04
8.45300000000000e+00 8.09831641440095e-03 1.40430457626946e-04
8.48460000000000e+00 7.98719966416834e-03 1.38762260757595e-04
8.51620000000000e+00 7.87760754344518e-03 1.37112929698134e-04
8.54780000000000e+00 7.76951913283690e-03 1.35482269912317e-04
8.57940000000000e+00 7.66291379998330e-03 1.33870088466091e-04
8.61100000000000e+00 7.55777119562018e-03 1.32276194024219e-04
8.64260000000000e+00 7.45407124969492e-03 1.30700396846617e-04
8.67420000000000e+00 7.35179416753553e-03 1.29142508784385e-04
8.70580000000000e+00 7.25092042607206e-03 1.27602343275580e-04
8.73740000000000e+00 7.15143077011003e-03 1.26079715340694e-04
8.76900000000000e+00 7.05330620865489e-03 1.24574441577896e-04
8.80060000000000e+00 6.95652801128691e-03 1.23086340158024e-04
8.83220000000000e+00 6.86107770458591e-03 1.21615230819311e-04
8.86380000000000e+00 6.76693706860493e-03 1.20160934861919e-04
8.89540000000000e+00 6.67408813339232e-03 1.18723275142239e-04
8.92700000000000e+00 6.58251317556161e-03 1.17302076066973e-04
8.95860000000000e+00 6.49219471490835e-03 1.15897163587020e-04
8.99020000000000e+00 6.40311551107346e-03 1.14508365191163e-04
9.02180000000000e+00 6.31525856025227e-03 1.13135509899583e-04
9.05340000000000e+00 6.22860709194881e-03 1.11778428257185e-04
9.08500000000000e+00 6.14314456577455e-03 1.10436952326753e-04
9.11660000000000e+00 6.05885466829116e-03 1.09110915681948e-04
9.14820000000000e+00 5.97572130989645e-03 1.07800153400149e-04
9.17980000000000e+00 5.89372862175319e-03 1.06504502055144e-04
9.21140000000000e+00 5.81286095275998e-03 1.05223799709680e-04
9.24300000000000e+00 5.73310286656368e-03 1.03957885907884e-04
9.27460000000000e+00 5.65443913861290e-03 1.02706601667544e-04
9.30620000000000e+00 5.57685475325183e-03 1.01469789472280e-04
9.33780000000000e+00 5.50033490085404e-03 1.00247293263595e-04
9.36940000000000e+00 5.42486497499549e-03 9.90389584328159e-05
9.40100000000000e+00 5.35043056966647e-03 9.78446318129288e-05
9.43260000000000e+00 5.27701747652166e-03 9.66641616703178e-05
9.46420000000000e+00 5.20461168216803e-03 9.54973976964096e-05
9.49580000000000e+00 5.13319936548986e-03 9.43441909992327e-05
9.52740000000000e+00 5.06276689501056e-03 9.32043940948916e-05
9.55900000000000e+00 4.99330082629060e-03 9.20778608989635e-05
9.59060000000000e+00 4.92478789936117e-03 9.09644467178222e-05
9.62220000000000e+00 4.85721503619312e-03 8.98640082398919e-05
9.65380000000000e+00 4.79056933820051e-03 8.87764035268395e-05
9.68540000000000e+00 4.72483808377851e-03 8.77014920047106e-05
9.71700000000000e+00 4.66000872587504e-03 8.66391344550041e-05
9.74860000000000e+00 4.59606888959572e-03 8.55891930056964e-05
9.78020000000000e+00 4.53300636984175e-03 8.45515311222249e-05
9.81180000000000e+00 4.47080912898007e-03 8.35260135984249e-05
9.84340000000000e+00 4.40946529454565e-03 8.25125065474214e-05
9.87500000000000e+00 4.34896315697517e-03 8.15108773924880e-05
9.90660000000000e+00 4.28929116737186e-03 8.05209948578826e-05
9.93820000000000e+00 4.23043793530102e-03 7.95427289596395e-05
9.96980000000000e+00 4.17239222661575e-03 7.85759509963468e-05
