Energy (eV)          EEDF (eV^-(3/2))     First Anisotropy
3.00000000000000e-02 4.84816813125325e-01 5.64098664946282e-04
9.00000000000000e-02 4.68343156826119e-01 9.18750322731887e-04
1.50000000000000e-01 4.52429261130397e-01 1.17957378373522e-03
2.10000000000000e-01 4.37056105856587e-01 1.35854578884028e-03
2.70000000000000e-01 4.22205317112485e-01 1.49269056817273e-03
3.30000000000000e-01 4.07859145334873e-01 1.59662730879768e-03
3.90000000000000e-01 3.94000444075352e-01 1.67822673213335e-03
4.50000000000000e-01 3.80612649507021e-01 1.74241778366490e-03
5.10000000000000e-01 3.67679760627501e-01 1.79258028222043e-03
5.70000000000000e-01 3.55186320134647e-01 1.83117662444679e-03
6.30000000000000e-01 3.43117395952079e-01 1.86008012340959e-03
6.90000000000000e-01 3.31458563382469e-01 1.88076269113229e-03
7.50000000000000e-01 3.20195887867238e-01 1.89440997337089e-03
8.10000000000000e-01 3.09315908332062e-01 1.90199595848302e-03
8.70000000000000e-01 2.98805621098291e-01 1.90433349420986e-03
9.30000000000000e-01 2.88652464341035e-01 1.90210974635540e-03
9.90000000000000e-01 2.78844303075358e-01 1.89591184915250e-03
1.05000000000000e+00 2.69369414652625e-01 1.88624594143142e-03
1.11000000000000e+00 2.60216474749669e-01 1.87355160862511e-03
1.17000000000000e+00 2.51374543834036e-01 1.85821305108779e-03
1.23000000000000e+00 2.42833054089133e-01 1.84056786698648e-03
1.29000000000000e+00 2.34581796783638e-01 1.82091406244429e-03
1.35000000000000e+00 2.26610910070100e-01 1.79951572099147e-03
1.41000000000000e+00 2.18910867198119e-01 1.77660764307009e-03
1.47000000000000e+00 2.11472465128038e-01 1.75239918307378e-03
1.53000000000000e+00 2.04286813531538e-01 1.72707745312596e-03
1.59000000000000e+00 1.97345324165970e-01 1.70081002128494e-03
1.65000000000000e+00 1.90639700609747e-01 1.67374720181486e-03
1.71000000000000e+00 1.84161928346520e-01 1.64602401308960e-03
1.77000000000000e+00 1.77904265186276e-01 1.61776186226781e-03
1.83000000000000e+00 1.71859232011929e-01 1.58907000349607e-03
1.89000000000000e+00 1.66019603840328e-01 1.56004680696040e-03
1.95000000000000e+00 1.60378401187002e-01 1.53078086883770e-03
2.01000000000000e+00 1.54928881724335e-01 1.50135198654441e-03
2.07000000000000e+00 1.49664532223172e-01 1.47183201924188e-03
2.13000000000000e+00 1.44579060768259e-01 1.44228565004409e-03
2.19000000000000e+00 1.39666389238181e-01 1.41277106356978e-03
2.25000000000000e+00 1.34920646040838e-01 1.38334055022634e-03
2.31000000000000e+00 1.30336159095754e-01 1.35404104678765e-03
2.37000000000000e+00 1.25907449054847e-01 1.32491462134010e-03
2.43000000000000e+00 1.21629222753544e-01 1.29599890945076e-03
2.49000000000000e+00 1.17496366884431e-01 1.26732750740434e-03
2.55000000000000e+00 1.13503941885863e-01 1.23893032752066e-03
2.61000000000000e+00 1.09647176038227e-01 1.21083391986663e-03
2.67000000000000e+00 1.05921459760821e-01 1.18306176409293e-03
2.73000000000000e+00 1.02322340102509e-01 1.15563453463303e-03
2.79000000000000e+00 9.88455154195890e-02 1.12857034208536e-03
2.85000000000000e+00 9.54868302344914e-02 1.10188495324538e-03
2.91000000000000e+00 9.22422702691846e-02 1.07559199195204e-03
2.97000000000000e+00 8.91079576473347e-02 1.04970312265379e-03
3.03000000000000e+00 8.60801462594941e-02 1.02422821837632e-03
3.09000000000000e+00 8.31552172857766e-02 9.99175514582104e-04
3.15000000000000e+00 8.03296748706681e-02 9.74551750244552e-04
3.21000000000000e+00 7.76001419448036e-02 9.50362297315037e-04
3.27000000000000e+00 7.49633561887163e-02 9.26611279634277e-04
3.33000000000000e+00 7.24161661337355e-02 9.03301682229158e-04
3.39000000000000e+00 6.99555273953721e-02 8.80435451838913e-04
3.45000000000000e+00 6.75784990346908e-02 8.58013589429274e-04
3.51000000000000e+00 6.52822400433197e-02 8.36036235377874e-04
3.57000000000000e+00 6.30640059478959e-02 8.14502747947430e-04
3.63000000000000e+00 6.09211455298893e-02 7.93411775604286e-04
3.69000000000000e+00 5.88510976568842e-02 7.72761323687353e-04
3.75000000000000e+00 5.68513882215310e-02 7.52548815885617e-04
3.81000000000000e+00 5.49196271845093e-02 7.32771150940713e-04
3.87000000000000e+00 5.30535057179695e-02 7.13424754953588e-04
3.93000000000000e+00 5.12507934460365e-02 6.94505629640851e-04
3.99000000000000e+00 4.95093357790801e-02 6.76009396856216e-04
4.05000000000000e+00 4.78270513385635e-02 6.57931339665389e-04
4.11000000000000e+00 4.62019294693938e-02 6.40266440238329e-04
4.17000000000000e+00 4.46320278368001e-02 6.23009414800688e-04
4.23000000000000e+00 4.31154701048687e-02 6.06154745866308e-04
4.29000000000000e+00 4.16504436939584e-02 5.89696711954535e-04
4.35000000000000e+00 4.02351976143177e-02 5.73629414979721e-04
4.41000000000000e+00 3.88680403733135e-02 5.57946805485253e-04
4.47000000000000e+00 3.75473379537706e-02 5.42642705881002e-04
4.53000000000000e+00 3.62715118610050e-02 5.27710831830563e-04
4.59000000000000e+00 3.50390372362179e-02 5.13144811923437e-04
4.65000000000000e+00 3.38484410339946e-02 4.98938205756934e-04
4.71000000000000e+00 3.26983002617306e-02 4.85084520543119e-04
4.77000000000000e+00 3.15872402788800e-02 4.71577226347460e-04
4.83000000000000e+00 3.05139331539949e-02 4.58409770057909e-04
4.89000000000000e+00 2.94770960775900e-02 4.45575588175834e-04
4.95000000000000e+00 2.84754898289379e-02 4.33068118513535e-04
5.01000000000000e+00 2.75079172949603e-02 4.20880810876925e-04
5.07000000000000e+00 2.65732220394469e-02 4.09007136806182e-04
5.13000000000000e+00 2.56702869208900e-02 3.97440598442068e-04
5.19000000000000e+00 2.47980327572853e-02 3.86174736580772e-04
5.25000000000000e+00 2.39554170362998e-02 3.75203137975534e-04
5.31000000000000e+00 2.31414326692690e-02 3.64519441939360e-04
5.37000000000000e+00 2.23551067875305e-02 3.54117346299272e-04
5.43000000000000e+00 2.15954995796585e-02 3.43990612748954e-04
5.49000000000000e+00 2.08617031682069e-02 3.34133071643454e-04
5.55000000000000e+00 2.01528405246209e-02 3.24538626276592e-04
5.61000000000000e+00 1.94680644210177e-02 3.15201256678852e-04
5.67000000000000e+00 1.88065564175860e-02 3.06115022970984e-04
5.73000000000000e+00 1.81675258843917e-02 2.97274068306123e-04
5.79000000000000e+00 1.75502090564227e-02 2.88672621430987e-04
5.85000000000000e+00 1.69538681207419e-02 2.80304998894601e-04
5.91000000000000e+00 1.63777903346581e-02 2.72165606931082e-04
5.97000000000000e+00 1.58212871738607e-02 2.64248943041247e-04
6.03000000000000e+00 1.52836935095002e-02 2.56549597296049e-04
6.09000000000000e+00 1.47643668132306e-02 2.49062253383332e-04
6.15000000000000e+00 1.42626863892635e-02 2.41781689417980e-04
6.21000000000000e+00 1.37780526325173e-02 2.34702778534066e-04
6.27000000000000e+00 1.33098863119727e-02 2.27820489276457e-04
6.33000000000000e+00 1.28576278783797e-02 2.21129885808093e-04
6.39000000000000e+00 1.24207367954884e-02 2.14626127948031e-04
6.45000000000000e+00 1.19986908940035e-02 2.08304471054419e-04
6.51000000000000e+00 1.15909857474909e-02 2.02160265765485e-04
6.57000000000000e+00 1.11971340694910e-02 1.96188957610809e-04
6.63000000000000e+00 1.08166651311167e-02 1.90386086504300e-04
6.69000000000000e+00 1.04491241984418e-02 1.84747286129478e-04
6.75000000000000e+00 1.00940719890060e-02 1.79268283227002e-04
6.81000000000000e+00 9.75108414678705e-03 1.73944896793623e-04
6.87000000000000e+00 9.41975073501385e-03 1.68773037201176e-04
6.93000000000000e+00 9.09967574621236e-03 1.63748705243578e-04
6.99000000000000e+00 8.79047662890029e-03 1.58867991119263e-04
7.05000000000000e+00 8.49178383036406e-03 1.54127073355975e-04
7.11000000000000e+00 8.20324035497194e-03 1.49522217684337e-04
7.17000000000000e+00 7.92450133749521e-03 1.45049775866151e-04
7.23000000000000e+00 7.65523363092756e-03 1.40706184482987e-04
7.29000000000000e+00 7.39511540831005e-03 1.36487963690199e-04
7.35000000000000e+00 7.14383577808563e-03 1.32391715941126e-04
7.41000000000000e+00 6.90109441252369e-03 1.28414124685922e-04
7.47000000000000e+00 6.66660118877033e-03 1.24551953049098e-04
7.53000000000000e+00 6.44007584209549e-03 1.20802042489564e-04
7.59000000000000e+00 6.22124763092241e-03 1.17161311446688e-04
7.65000000000000e+00 6.00985501323911e-03 1.13626753975604e-04
7.71000000000000e+00 5.80564533400514e-03 1.10195438374766e-04
7.77000000000000e+00 5.60837452317998e-03 1.06864505808496e-04
7.83000000000000e+00 5.41780680401212e-03 1.03631168927078e-04
7.89000000000000e+00 5.23371441124029e-03 1.00492710486719e-04
7.95000000000000e+00 5.05587731886998e-03 9.74464819715334e-05
8.01000000000000e+00 4.88408297719978e-03 9.44899022195103e-05
8.07000000000000e+00 4.71812605878346e-03 9.16204560542782e-05
8.13000000000000e+00 4.55780821302393e-03 8.88356929242908e-05
8.19000000000000e+00 4.40293782910598e-03 8.61332255509475e-05
8.25000000000000e+00 4.25332980698429e-03 8.35107285870205e-05
8.31000000000000e+00 4.10880533615310e-03 8.09659372866127e-05
8.37000000000000e+00 3.96919168193311e-03 7.84966461877688e-05
8.43000000000000e+00 3.83432197902012e-03 7.61007078087641e-05
8.49000000000000e+00 3.70403503204876e-03 7.37760313589641e-05
8.55000000000000e+00 3.57817512293285e-03 7.15205814650726e-05
8.61000000000000e+00 3.45659182475220e-03 6.93323769134950e-05
8.67000000000000e+00 3.33913982196338e-03 6.72094894094523e-05
8.73000000000000e+00 3.22567873671949e-03 6.51500423534144e-05
8.79000000000000e+00 3.11607296109159e-03 6.31522096353397e-05
8.85000000000000e+00 3.01019149499093e-03 6.12142144471498e-05
8.91000000000000e+00 2.90790778959857e-03 5.93343281138018e-05
8.97000000000000e+00 2.80909959611508e-03 5.75108689432663e-05
9.03000000000000e+00 2.71364881964955e-03 5.57422010956573e-05
9.09000000000000e+00 2.62144137807342e-03 5.40267334717241e-05
9.15000000000000e+00 2.53236706567026e-03 5.23629186208613e-05
9.21000000000000e+00 2.44631942141861e-03 5.07492516687479e-05
9.27000000000000e+00 2.36319560175054e-03 4.91842692647017e-05
9.33000000000000e+00 2.28289625763367e-03 4.76665485487805e-05
9.39000000000000e+00 2.20532541582986e-03 4.61947061386364e-05
9.45000000000000e+00 2.13039036418868e-03 4.47673971361097e-05
9.51000000000000e+00 2.05800154083841e-03 4.33833141535022e-05
9.57000000000000e+00 1.98807242714235e-03 4.20411863594570e-05
9.63000000000000e+00 1.92051944429230e-03 4.07397785443430e-05
9.69000000000000e+00 1.85526185341572e-03 3.94778902050228e-05
9.75000000000000e+00 1.79222165907719e-03 3.82543546488602e-05
9.81000000000000e+00 1.73132351605875e-03 3.70680381168119e-05
9.87000000000000e+00 1.67249463930786e-03 3.59178389254237e-05
9.93000000000000e+00 1.61566471694514e-03 3.48026866275415e-05
9.99000000000000e+00 1.56076582622811e-03 3.37215411915353e-05
1.00500000000000e+01 1.50773235237038e-03 3.26733921988221e-05
1.01100000000000e+01 1.45650091011928e-03 3.16572580594566e-05
1.01700000000000e+01 1.40701026799826e-03 3.06721852455580e-05
1.02300000000000e+01 1.35920127512342e-03 2.97172475423306e-05
1.02900000000000e+01 1.31301679050675e-03 2.87915453164240e-05
1.03500000000000e+01 1.26840161476165e-03 2.78942048013774e-05
1.04100000000000e+01 1.22530242412898e-03 2.70243773998863e-05
1.04700000000000e+01 1.18366770674482e-03 2.61812390026216e-05
1.05300000000000e+01 1.14344770107388e-03 2.53639893233334e-05
1.05900000000000e+01 1.10459433643485e-03 2.45718512499625e-05
1.06500000000000e+01 1.06706117554659e-03 2.38040702114841e-05
1.07100000000000e+01 1.03080335902666e-03 2.30599135602052e-05
1.07700000000000e+01 9.95777551775666e-04 2.23386699692365e-05
1.08300000000000e+01 9.61941891183431e-04 2.16396488448554e-05
1.08900000000000e+01 9.29255937095095e-04 2.09621797534817e-05
1.09500000000000e+01 8.97680623477308e-04 2.03056118629852e-05
1.10100000000000e+01 8.67178211726770e-04 1.96693133980435e-05
1.10700000000000e+01 8.37712245565305e-04 1.90526711092701e-05
1.11300000000000e+01 8.09247507467561e-04 1.84550897558368e-05
1.11900000000000e+01 7.81749976569261e-04 1.78759916013128e-05
1.12500000000000e+01 7.55186788005693e-04 1.73148159224453e-05
1.13100000000000e+01 7.29526193631843e-04 1.67710185306092e-05
1.13700000000000e+01 7.04737524077227e-04 1.62440713056565e-05
1.14300000000000e+01 6.80791152090061e-04 1.57334617418962e-05
1.14900000000000e+01 6.57658457126975e-04 1.52386925059421e-05
1.15500000000000e+01 6.35311791145923e-04 1.47592810061645e-05
1.16100000000000e+01 6.13724445561434e-04 1.42947589734874e-05
1.16700000000000e+01 5.92870619322688e-04 1.38446720532772e-05
1.17300000000000e+01 5.72725388076273e-04 1.34085794080684e-05
1.17900000000000e+01 5.53264674376764e-04 1.29860533308801e-05
1.18500000000000e+01 5.34465218909523e-04 1.25766788688755e-05
1.19100000000000e+01 5.16304552691321e-04 1.21800534571256e-05
1.19700000000000e+01 4.98760970215559e-04 1.17957865622369e-05
1.20300000000000e+01 4.81813503509995e-04 1.14234993356120e-05
1.20900000000000e+01 4.65441897075959e-04 1.10628242761107e-05
1.21500000000000e+01 4.49626583679122e-04 1.07134049018864e-05
1.22100000000000e+01 4.34348660962864e-04 1.03748954311755e-05
1.22700000000000e+01 4.19589868856310e-04 1.00469604718217e-05
1.23300000000000e+01 4.05332567750008e-04 9.72927471932095e-06
1.23900000000000e+01 3.91559717413191e-04 9.42152266317586e-06
1.24500000000000e+01 3.78254856627407e-04 9.12339830135448e-06
1.25100000000000e+01 3.65402083512179e-04 8.83460486264982e-06
1.25700000000000e+01 3.52986036519187e-04 8.55485453674325e-06
1.26300000000000e+01 3.40991876072244e-04 8.28386821177541e-06
1.26900000000000e+01 3.29405266831138e-04 8.02137521923492e-06
1.27500000000000e+01 3.18212360558127e-04 7.76711308597926e-06
1.28100000000000e+01 3.07399779566620e-04 7.52082729320356e-06
1.28700000000000e+01 2.96954600732254e-04 7.28227104217854e-06
1.29300000000000e+01 2.86864340047263e-04 7.05120502658373e-06
1.29900000000000e+01 2.77116937699674e-04 6.82739721126336e-06
1.30500000000000e+01 2.67700743659503e-04 6.61062261723751e-06
1.31100000000000e+01 2.58604503754718e-04 6.40066311280537e-06
1.31700000000000e+01 2.49817346220322e-04 6.19730721057948e-06
1.32300000000000e+01 2.41328768704499e-04 6.00034987029494e-06
1.32900000000000e+01 2.33128625716272e-04 5.80959230724015e-06
1.33500000000000e+01 2.25207116499676e-04 5.62484180615941e-06
1.34100000000000e+01 2.17554773319966e-04 5.44591154048176e-06
1.34700000000000e+01 2.10162450147839e-04 5.27262039673281e-06
1.35300000000000e+01 2.03021311728165e-04 5.10479280399029e-06
1.35900000000000e+01 1.96122823020145e-04 4.94225856824753e-06
1.36500000000000e+01 1.89458738996291e-04 4.78485271155191e-06
1.37100000000000e+01 1.83021094788024e-04 4.63241531578822e-06
1.37700000000000e+01 1.76802196166114e-04 4.48479137098113e-06
1.38300000000000e+01 1.70794610344591e-04 4.34183062799301e-06
1.38900000000000e+01 1.64991157097129e-04 4.20338745549639e-06
1.39500000000000e+01 1.59384900175286e-04 4.06932070110412e-06
1.40100000000000e+01 1.53969139018347e-04 3.93949355654245e-06
1.40700000000000e+01 1.48737400744861e-04 3.81377342675536e-06
1.41300000000000e+01 1.43683432416292e-04 3.69203180283131e-06
1.41900000000000e+01 1.38801193563553e-04 3.57414413864625e-06
1.42500000000000e+01 1.34084848967474e-04 3.45998973111942e-06
1.43100000000000e+01 1.29528761684592e-04 3.34945160398122e-06
1.43700000000000e+01 1.25127486309910e-04 3.24241639495484e-06
1.44300000000000e+01 1.20875762468584e-04 3.13877424625583e-06
1.44900000000000e+01 1.16768508528765e-04 3.03841869831664e-06
1.45500000000000e+01 1.12800815528058e-04 2.94124658664496e-06
1.46100000000000e+01 1.08967941306373e-04 2.84715794172781e-06
1.46700000000000e+01 1.05265304838115e-04 2.75605589189484e-06
1.47300000000000e+01 1.01688480756984e-04 2.66784656905723e-06
1.47900000000000e+01 9.82331940668016e-05 2.58243901724033e-06
1.48500000000000e+01 9.48953150320630e-05 2.49974510383062e-06
1.49100000000000e+01 9.16708542421081e-05 2.41967943345960e-06
1.49700000000000e+01 8.85559578430026e-05 2.34215926444922e-06
1.50300000000000e+01 8.55469029314383e-05 2.26710442774555e-06
1.50900000000000e+01 8.26400931051439e-05 2.19443724826933e-06
1.51500000000000e+01 7.98320541644889e-05 2.12408246861393e-06
1.52100000000000e+01 7.71194299601435e-05 2.05596717502317e-06
1.52700000000000e+01 7.44989783818318e-05 1.99002072558338e-06
1.53300000000000e+01 7.19675674833828e-05 1.92617468056554e-06
1.53900000000000e+01 6.95221717394496e-05 1.86436273485544e-06
1.54500000000000e+01 6.71598684294219e-05 1.80452065241138e-06
1.55100000000000e+01 6.48778341442094e-05 1.74658620269051e-06
1.55700000000000e+01 6.26733414117229e-05 1.69049909898650e-06
1.56300000000000e+01 6.05437554370172e-05 1.63620093862316e-06
1.56900000000000e+01 5.84865309532023e-05 1.58363514494954e-06
1.57500000000000e+01 5.64992091793575e-05 1.53274691108418e-06
1.58100000000000e+01 5.45794148818124e-05 1.48348314535727e-06
1.58700000000000e+01 5.27248535352841e-05 1.43579241840099e-06
1.59300000000000e+01 5.09333085804758e-05 1.38962491183963e-06
1.59900000000000e+01 4.92026387748597e-05 1.34493236853266e-06
1.60500000000000e+01 4.75307756334787e-05 1.30166804432495e-06
1.61100000000000e+01 4.59157209567065e-05 1.25978666125977e-06
1.61700000000000e+01 4.43555444420136e-05 1.21924436221155e-06
1.62300000000000e+01 4.28483813768818e-05 1.17999866689638e-06
1.62900000000000e+01 4.13924304101127e-05 1.14200842921951e-06
1.63500000000000e+01 3.99859513988648e-05 1.10523379592036e-06
1.64100000000000e+01 3.86272633288466e-05 1.06963616647653e-06
1.64700000000000e+01 3.73147423051791e-05 1.03517815422950e-06
1.65300000000000e+01 3.60468196115280e-05 1.00182354869563e-06
1.65900000000000e+01 3.48219798351842e-05 9.69537279027361e-07
1.66500000000000e+01 3.36387590558525e-05 9.38285378590281e-07
1.67100000000000e+01 3.24957430959846e-05 9.08034950622751e-07
1.67700000000000e+01 3.13915658305627e-05 8.78754134945923e-07
1.68300000000000e+01 3.03249075543165e-05 8.50412075692636e-07
1.68900000000000e+01 2.92944934044202e-05 8.22978890024790e-07
1.69500000000000e+01 2.82990918367851e-05 7.96425637809609e-07
1.70100000000000e+01 2.73375131541260e-05 7.70724292226010e-07
1.70700000000000e+01 2.64086080840435e-05 7.45847711273263e-07
1.71300000000000e+01 2.55112664054210e-05 7.21769610154759e-07
1.71900000000000e+01 2.46444156214958e-05 6.98464534510599e-07
1.72500000000000e+01 2.38070196780183e-05 6.75907834473512e-07
1.73100000000000e+01 2.29980777249670e-05 6.54075639523284e-07
1.73700000000000e+01 2.22166229203390e-05 6.32944834115589e-07
1.74300000000000e+01 2.14617212745871e-05 6.12493034061908e-07
1.74900000000000e+01 2.07324705343217e-05 5.92698563637832e-07
1.75500000000000e+01 2.00279991039437e-05 5.73540433397722e-07
1.76100000000000e+01 1.93474650039188e-05 5.54998318674359e-07
1.76700000000000e+01 1.86900548644501e-05 5.37052538742858e-07
1.77300000000000e+01 1.80549829533429e-05 5.19684036628690e-07
1.77900000000000e+01 1.74414902369039e-05 5.02874359540282e-07
1.78500000000000e+01 1.68488434727482e-05 4.86605639907263e-07
1.79100000000000e+01 1.62763343334340e-05 4.70860577005893e-07
1.79700000000000e+01 1.57232785598731e-05 4.55622419153859e-07
1.80300000000000e+01 1.51890151435104e-05 4.40874946457114e-07
1.80900000000000e+01 1.46729055362897e-05 4.26602454091912e-07
1.81500000000000e+01 1.41743328874662e-05 4.12789736105768e-07
1.82100000000000e+01 1.36927013063501e-05 3.99422069721486e-07
1.82700000000000e+01 1.32274351501023e-05 3.86485200128885e-07
1.83300000000000e+01 1.27779783357299e-05 3.73965325749354e-07
1.83900000000000e+01 1.23437936754594e-05 3.61849083958760e-07
1.84500000000000e+01 1.19243622346937e-05 3.50123537254683e-07
1.85100000000000e+01 1.15191827117847e-05 3.38776159854387e-07
1.85700000000000e+01 1.11277708388811e-05 3.27794824710306e-07
1.86300000000000e+01 1.07496588031346e-05 3.17167790930271e-07
1.86900000000000e+01 1.03843946875733e-05 3.06883691590032e-07
1.87500000000000e+01 1.00315419309732e-05 2.96931521926051e-07
1.88100000000000e+01 9.69067880608361e-06 2.87300627896857e-07
1.88700000000000e+01 9.36139791558120e-06 2.77980695101664e-07
1.89300000000000e+01 9.04330570515164e-06 2.68961738045226e-07
