Energy (eV)          EEDF (eV^-(3/2))     First Anisotropy
6.25000000000000e-02 1.60913080515501e-01 1.87842952677015e-04
1.87500000000000e-01 1.55452469834939e-01 3.05947602138537e-04
3.12500000000000e-01 1.50177165836138e-01 3.92820760259185e-04
4.37500000000000e-01 1.45080880107737e-01 4.52442477380130e-04
5.62500000000000e-01 1.40157537636592e-01 4.97139934551646e-04
6.87500000000000e-01 1.35401269566086e-01 5.31780228557325e-04
8.12500000000000e-01 1.30806406200170e-01 5.58983564521777e-04
9.37500000000000e-01 1.26367470244825e-01 5.80390733845696e-04
1.06250000000000e+00 1.22079170278864e-01 5.97126796905081e-04
1.18750000000000e+00 1.17936394446308e-01 6.10011402414064e-04
1.31250000000000e+00 1.13934204362816e-01 6.19668100780799e-04
1.43750000000000e+00 1.10067829228896e-01 6.26586826962401e-04
1.56250000000000e+00 1.06332660142886e-01 6.31162229591219e-04
1.68750000000000e+00 1.02724244606926e-01 6.33718507908803e-04
1.81250000000000e+00 9.92382812193708e-02 6.34526227974430e-04
1.93750000000000e+00 9.58706145473176e-02 6.33814125862803e-04
2.06250000000000e+00 9.26172301731307e-02 6.31777645648081e-04
2.18750000000000e+00 8.94742499090684e-02 6.28585275561694e-04
2.31250000000000e+00 8.64379271742998e-02 6.24383354822378e-04
2.43750000000000e+00 8.35046425288031e-02 6.19299790735469e-04
2.56250000000000e+00 8.06708993588228e-02 6.13446981763800e-04
2.68750000000000e+00 7.79333197087406e-02 6.06924150527497e-04
2.81250000000000e+00 7.52886402543934e-02 5.99819230558541e-04
2.93750000000000e+00 7.27337084130361e-02 5.92210410251117e-04
3.06250000000000e+00 7.02654785853149e-02 5.84167409730011e-04
3.18750000000000e+00 6.78810085247687e-02 5.75752546958825e-04
3.31250000000000e+00 6.55774558305326e-02 5.67021635590107e-04
3.43750000000000e+00 6.33520745590618e-02 5.58024747056317e-04
3.56250000000000e+00 6.12022119508372e-02 5.48806862053446e-04
3.68750000000000e+00 5.91253052681511e-02 5.39408431100411e-04
3.81250000000000e+00 5.71188787402028e-02 5.29865859736017e-04
3.93750000000000e+00 5.51805406118627e-02 5.20211930774265e-04
4.06250000000000e+00 5.33079802925874e-02 5.10476173619279e-04
4.18750000000000e+00 5.14989656020872e-02 5.00685188759319e-04
4.31250000000000e+00 4.97513401094610e-02 4.90862934082079e-04
4.43750000000000e+00 4.80630205626294e-02 4.81030978484049e-04
4.56250000000000e+00 4.64319944049999e-02 4.71208727313620e-04
4.68750000000000e+00 4.48563173764041e-02 4.61413623437219e-04
4.81250000000000e+00 4.33341111954481e-02 4.51661327110294e-04
4.93750000000000e+00 4.18635613205125e-02 4.41965877339807e-04
5.06250000000000e+00 4.04429147867327e-02 4.32339837018713e-04
5.18750000000000e+00 3.90704781163826e-02 4.22794423777878e-04
5.31250000000000e+00 3.77446153001687e-02 4.13339628222806e-04
5.43750000000000e+00 3.64637458470302e-02 4.03984320990547e-04
5.56250000000000e+00 3.52263429001188e-02 3.94736349867792e-04
5.68750000000000e+00 3.40309314167133e-02 3.85602628047268e-04
5.81250000000000e+00 3.28760864098992e-02 3.76589214460924e-04
5.93750000000000e+00 3.17604312499169e-02 3.67701387010529e-04
6.06250000000000e+00 3.06826360231540e-02 3.58943709415702e-04
6.18750000000000e+00 2.96414159468257e-02 3.50320092313172e-04
6.31250000000000e+00 2.86355298374529e-02 3.41833849166905e-04
6.43750000000000e+00 2.76637786313129e-02 3.33487747484673e-04
6.56250000000000e+00 2.67250039550990e-02 3.25284055781197e-04
6.68750000000000e+00 2.58180867450848e-02 3.17224586679736e-04
6.81250000000000e+00 2.49419459131471e-02 3.09310736501882e-04
6.93750000000000e+00 2.40955370580583e-02 3.01543521658640e-04
7.06250000000000e+00 2.32778512205106e-02 2.93923612123472e-04
7.18750000000000e+00 2.24879136803889e-02 2.86451362239654e-04
7.31250000000000e+00 2.17247827948585e-02 2.79126839089197e-04
7.43750000000000e+00 2.09875488758820e-02 2.71949848628438e-04
7.56250000000000e+00 2.02753331058289e-02 2.64919959775739e-04
7.68750000000000e+00 1.95872864898829e-02 2.58036526619280e-04
7.81250000000000e+00 1.89225888440004e-02 2.51298708897366e-04
7.93750000000000e+00 1.82804478172121e-02 2.44705490889754e-04
8.06250000000000e+00 1.76600979471035e-02 2.38255698846103e-04
8.18750000000000e+00 1.70607997473474e-02 2.31948017066465e-04
8.31250000000000e+00 1.64818388262013e-02 2.25781002738750e-04
8.43750000000000e+00 1.59225250349189e-02 2.19753099629086e-04
8.56250000000000e+00 1.53821916450599e-02 2.13862650712864e-04
8.68750000000000e+00 1.48601945537188e-02 2.08107909826875e-04
8.81250000000000e+00 1.43559115157229e-02 2.02487052416385e-04
8.93750000000000e+00 1.38687414018877e-02 1.96998185444894e-04
9.06250000000000e+00 1.33981034824418e-02 1.91639356528925e-04
9.18750000000000e+00 1.29434367347701e-02 1.86408562355190e-04
9.31250000000000e+00 1.25041991746479e-02 1.81303756432948e-04
9.43750000000000e+00 1.20798672101704e-02 1.76322856230301e-04
9.56250000000000e+00 1.16699350176066e-02 1.71463749739348e-04
9.68750000000000e+00 1.12739139384330e-02 1.66724301511740e-04
9.81250000000000e+00 1.08913318968302e-02 1.62102358202985e-04
9.93750000000000e+00 1.05217328369457e-02 1.57595753660999e-04
1.00625000000000e+01 1.01646761792542e-02 1.53202313591761e-04
1.01875000000000e+01 9.81973629536585e-03 1.48919859832476e-04
1.03125000000000e+01 9.48650200065696e-03 1.44746214260456e-04
1.04375000000000e+01 9.16457606411880e-03 1.40679202363844e-04
1.05625000000000e+01 8.85357473483933e-03 1.36716656498441e-04
1.06875000000000e+01 8.55312728455404e-03 1.32856418853159e-04
1.08125000000000e+01 8.26287556572033e-03 1.29096344144987e-04
1.09375000000000e+01 7.98247358458876e-03 1.25434302062891e-04
1.10625000000000e+01 7.71158708876218e-03 1.21868179478742e-04
1.11875000000000e+01 7.44989316875105e-03 1.18395882442007e-04
1.13125000000000e+01 7.19707987305013e-03 1.15015337973846e-04
1.14375000000000e+01 6.95284583627755e-03 1.11724495675152e-04
1.15625000000000e+01 6.71689991993303e-03 1.08521329162026e-04
1.16875000000000e+01 6.48896086534707e-03 1.05403837341318e-04
1.18125000000000e+01 6.26875695840732e-03 1.02370045537924e-04
1.19375000000000e+01 6.05602570566256e-03 9.94180064847839e-05
1.20625000000000e+01 5.85051352141809e-03 9.65458011857414e-05
1.21875000000000e+01 5.65197542544959e-03 9.37515396607560e-05
1.23125000000000e+01 5.46017475097522e-03 9.10333615823032e-05
1.24375000000000e+01 5.27488286253752e-03 8.83894368111958e-05
1.25625000000000e+01 5.09587888345926e-03 8.58179658395019e-05
1.26875000000000e+01 4.92294943254796e-03 8.33171801477260e-05
1.28125000000000e+01 4.75588836973542e-03 8.08853424829207e-05
1.29375000000000e+01 4.59449655034910e-03 7.85207470639516e-05
1.30625000000000e+01 4.43858158772220e-03 7.62217197197124e-05
1.31875000000000e+01 4.28795762385970e-03 7.39866179657069e-05
1.33125000000000e+01 4.14244510788686e-03 7.18138310240323e-05
1.34375000000000e+01 4.00187058201610e-03 6.97017797914645e-05
1.35625000000000e+01 3.86606647477712e-03 6.76489167600322e-05
1.36875000000000e+01 3.73487090126380e-03 6.56537258941566e-05
1.38125000000000e+01 3.60812747015978e-03 6.37147224681641e-05
1.39375000000000e+01 3.48568509731256e-03 6.18304528677159e-05
1.40625000000000e+01 3.36739782563416e-03 5.99994943584620e-05
1.41875000000000e+01 3.25312465111326e-03 5.82204548249851e-05
1.43125000000000e+01 3.14272935473189e-03 5.64919724829061e-05
1.44375000000000e+01 3.03608034008582e-03 5.48127155668133e-05
1.45625000000000e+01 2.93305047651550e-03 5.31813819964920e-05
1.46875000000000e+01 2.83351694756030e-03 5.15966990237662e-05
1.48125000000000e+01 2.73736110455548e-03 5.00574228620909e-05
1.49375000000000e+01 2.64446832519739e-03 4.85623383008907e-05
1.50625000000000e+01 2.55472787690826e-03 4.71102583064914e-05
1.51875000000000e+01 2.46803278483777e-03 4.57000236113700e-05
1.53125000000000e+01 2.38427970434395e-03 4.43305022933084e-05
1.54375000000000e+01 2.30336879780151e-03 4.30005893459318e-05
1.55625000000000e+01 2.22520361559066e-03 4.17092062420020e-05
1.56875000000000e+01 2.14969098112460e-03 4.04553004907301e-05
1.58125000000000e+01 2.07674087977869e-03 3.92378451902858e-05
1.59375000000000e+01 2.00626635158868e-03 3.80558385765827e-05
1.60625000000000e+01 1.93818338759042e-03 3.69083035693392e-05
1.61875000000000e+01 1.87241082967714e-03 3.57942873163419e-05
1.63125000000000e+01 1.80887027385517e-03 3.47128607367583e-05
1.64375000000000e+01 1.74748597678270e-03 3.36631180642820e-05
1.65625000000000e+01 1.68818476548015e-03 3.26441763908298e-05
1.66875000000000e+01 1.63089595010448e-03 3.16551752114483e-05
1.68125000000000e+01 1.57555123968357e-03 3.06952759710339e-05
1.69375000000000e+01 1.52208466071023e-03 2.97636616134194e-05
1.70625000000000e+01 1.47043247849854e-03 2.88595361333295e-05
1.71875000000000e+01 1.42053312120921e-03 2.79821241316634e-05
1.73125000000000e+01 1.37232710645297e-03 2.71306703745220e-05
1.74375000000000e+01 1.32575697038480e-03 2.63044393563559e-05
1.75625000000000e+01 1.28076719920429e-03 2.55027148675720e-05
1.76875000000000e+01 1.23730416298054e-03 2.47247995669081e-05
1.78125000000000e+01 1.19531605172284e-03 2.39700145588469e-05
1.79375000000000e+01 1.15475281362060e-03 2.32376989763150e-05
1.80625000000000e+01 1.11556609537935e-03 2.25272095688817e-05
1.81875000000000e+01 1.07770918458121e-03 2.18379202966499e-05
1.83125000000000e+01 1.04113695400159e-03 2.11692219300056e-05
1.84375000000000e+01 1.00580580781534e-03 2.05205216553686e-05
1.85625000000000e+01 9.71673629628477e-04 1.98912426870711e-05
1.86875000000000e+01 9.38699732273489e-04 1.92808238854667e-05
1.88125000000000e+01 9.06844809308279e-04 1.86887193813567e-05
1.89375000000000e+01 8.76070888161043e-04 1.81143982068052e-05
1.90625000000000e+01 8.46341284865170e-04 1.75573439323964e-05
1.91875000000000e+01 8.17620560330222e-04 1.70170543109758e-05
1.93125000000000e+01 7.89874478096865e-04 1.64930409279029e-05
1.94375000000000e+01 7.63069963525394e-04 1.59848288578302e-05
1.95625000000000e+01 7.37175064369201e-04 1.54919563280145e-05
1.96875000000000e+01 7.12158912686191e-04 1.50139743881543e-05
1.98125000000000e+01 6.87991688042734e-04 1.45504465867370e-05
1.99375000000000e+01 6.64644581966303e-04 1.41009486538742e-05
2.00625000000000e+01 6.42089763604415e-04 1.36650681905918e-05
2.01875000000000e+01 6.20300346548942e-04 1.32424043645360e-05
2.03125000000000e+01 5.99250356786238e-04 1.28325676120522e-05
2.04375000000000e+01 5.78914701734896e-04 1.24351793465815e-05
2.05625000000000e+01 5.59269140334203e-04 1.20498716733209e-05
2.06875000000000e+01 5.40290254147651e-04 1.16762871100845e-05
2.08125000000000e+01 5.21955419447056e-04 1.13140783142983e-05
2.09375000000000e+01 5.04242780244006e-04 1.09629078160602e-05
2.10625000000000e+01 4.87131222236491e-04 1.06224477571895e-05
2.11875000000000e+01 4.70600347639660e-04 1.02923796361909e-05
2.13125000000000e+01 4.54630450870695e-04 9.97239405905050e-06
2.14375000000000e+01 4.39202495058830e-04 9.66219049578431e-06
2.15625000000000e+01 4.24298089352500e-04 9.36147704265253e-06
2.16875000000000e+01 4.09899466996579e-04 9.06997018995476e-06
2.18125000000000e+01 3.95989464153568e-04 8.78739459531775e-06
2.19375000000000e+01 3.82551499443494e-04 8.51348286238581e-06
2.20625000000000e+01 3.69569554178117e-04 8.24797532482439e-06
2.21875000000000e+01 3.57028153265901e-04 7.99061983554603e-06
2.23125000000000e+01 3.44912346764975e-04 7.74117156106530e-06
2.24375000000000e+01 3.33207692062093e-04 7.49939278089175e-06
2.25625000000000e+01 3.21900236656362e-04 7.26505269186785e-06
2.26875000000000e+01 3.10976501527199e-04 7.03792721735897e-06
2.28125000000000e+01 3.00423465066703e-04 6.81779882120296e-06
2.29375000000000e+01 2.90228547557285e-04 6.60445632632640e-06
2.30625000000000e+01 2.80379596176047e-04 6.39769473793556e-06
2.31875000000000e+01 2.70864870508049e-04 6.19731507118998e-06
2.33125000000000e+01 2.61673028551177e-04 6.00312418326686e-06
2.34375000000000e+01 2.52793113195940e-04 5.81493460972595e-06
2.35625000000000e+01 2.44214539164083e-04 5.63256440508478e-06
2.36875000000000e+01 2.35927080390429e-04 5.45583698751437e-06
2.38125000000000e+01 2.27920857832932e-04 5.28458098756697e-06
2.39375000000000e+01 2.20186327696390e-04 5.11863010084844e-06
2.40625000000000e+01 2.12714270055792e-04 4.95782294454843e-06
2.41875000000000e+01 2.05495777865731e-04 4.80200291774250e-06
2.43125000000000e+01 1.98522246342786e-04 4.65101806538172e-06
2.44375000000000e+01 1.91785362708214e-04 4.50472094588609e-06
2.45625000000000e+01 1.85277096278725e-04 4.36296850225940e-06
2.46875000000000e+01 1.78989688893530e-04 4.22562193664451e-06
2.48125000000000e+01 1.72915645666244e-04 4.09254658823874e-06
2.49375000000000e+01 1.67047726050631e-04 3.96361181449072e-06
2.50625000000000e+01 1.61378935209529e-04 3.83869087550128e-06
2.51875000000000e+01 1.55902515676675e-04 3.71766082155179e-06
2.53125000000000e+01 1.50611939301485e-04 3.60040238368518e-06
2.54375000000000e+01 1.45500899467191e-04 3.48679986726593e-06
2.55625000000000e+01 1.40563303573059e-04 3.37674104844662e-06
2.56875000000000e+01 1.35793265771716e-04 3.27011707346982e-06
2.58125000000000e+01 1.31185099952944e-04 3.16682236073559e-06
2.59375000000000e+01 1.26733312965572e-04 3.06675450556624e-06
2.60625000000000e+01 1.22432598069375e-04 2.96981418760105e-06
2.61875000000000e+01 1.18277828609193e-04 2.87590508075490e-06
2.63125000000000e+01 1.14264051903715e-04 2.78493376567678e-06
2.64375000000000e+01 1.10386483341646e-04 2.69680964464430e-06
2.65625000000000e+01 1.06640500678231e-04 2.61144485883270e-06
2.66875000000000e+01 1.03021638525315e-04 2.52875420789736e-06
2.68125000000000e+01 9.95255830283931e-05 2.44865507181065e-06
2.69375000000000e+01 9.61481667242904e-05 2.37106733489469e-06
2.70625000000000e+01 9.28853635733502e-05 2.29591331199324e-06
2.71875000000000e+01 8.97332841602043e-05 2.22311767672716e-06
2.73125000000000e+01 8.66881710574064e-05 2.15260739177879e-06
2.74375000000000e+01 8.37463943464014e-05 2.08431164115199e-06
2.75625000000000e+01 8.09044472904905e-05 2.01816176435609e-06
2.76875000000000e+01 7.81589421546365e-05 1.95409119246243e-06
2.78125000000000e+01 7.55066061671228e-05 1.89203538598419e-06
2.79375000000000e+01 7.29442776182556e-05 1.83193177453066e-06
2.80625000000000e+01 7.04689020914566e-05 1.77371969818853e-06
2.81875000000000e+01 6.80775288222540e-05 1.71734035058410e-06
2.83125000000000e+01 6.57673071808324e-05 1.66273672358091e-06
2.84375000000000e+01 6.35354832739470e-05 1.60985355356863e-06
2.85625000000000e+01 6.13793966621534e-05 1.55863726930038e-06
2.86875000000000e+01 5.92964771884378e-05 1.50903594123607e-06
2.88125000000000e+01 5.72842419144686e-05 1.46099923235085e-06
2.89375000000000e+01 5.53402921608169e-05 1.41447835036873e-06
2.90625000000000e+01 5.34623106476172e-05 1.36942600138210e-06
2.91875000000000e+01 5.16480587322604e-05 1.32579634481920e-06
2.93125000000000e+01 4.98953737408264e-05 1.28354494972233e-06
2.94375000000000e+01 4.82021663900744e-05 1.24262875230053e-06
2.95625000000000e+01 4.65664182969187e-05 1.20300601472150e-06
2.96875000000000e+01 4.49861795724210e-05 1.16463628510834e-06
2.98125000000000e+01 4.34595664974307e-05 1.12748035870748e-06
2.99375000000000e+01 4.19847592771024e-05 1.09150024019507e-06
3.00625000000000e+01 4.05599998716151e-05 1.05665910709024e-06
3.01875000000000e+01 3.91835899005054e-05 1.02292127424379e-06
3.03125000000000e+01 3.78538886181177e-05 9.90252159372406e-07
3.04375000000000e+01 3.65693109577583e-05 9.58618249608846e-07
3.05625000000000e+01 3.53283256422209e-05 9.27987069039305e-07
3.06875000000000e+01 3.41294533584319e-05 8.98327147200255e-07
3.08125000000000e+01 3.29712649940392e-05 8.69607988507323e-07
3.09375000000000e+01 3.18523799338433e-05 8.41800042589887e-07
3.10625000000000e+01 3.07714644140383e-05 8.14874675505577e-07
3.11875000000000e+01 2.97272299323027e-05 7.88804141809570e-07
3.13125000000000e+01 2.87184317118439e-05 7.63561557454260e-07
3.14375000000000e+01 2.77438672175653e-05 7.39120873495527e-07
3.15625000000000e+01 2.68023747225881e-05 7.15456850582511e-07
3.16875000000000e+01 2.58928319234174e-05 6.92545034208341e-07
3.18125000000000e+01 2.50141546021040e-05 6.70361730699945e-07
3.19375000000000e+01 2.41652953338052e-05 6.48883983925625e-07
3.20625000000000e+01 2.33452422382050e-05 6.28089552699694e-07
3.21875000000000e+01 2.25530177733049e-05 6.07956888863944e-07
3.23125000000000e+01 2.17876775701478e-05 5.88465116026452e-07
3.24375000000000e+01 2.10483093070857e-05 5.69594008938552e-07
3.25625000000000e+01 2.03340316222489e-05 5.51323973491476e-07
3.26875000000000e+01 1.96439930629216e-05 5.33636027314596e-07
3.28125000000000e+01 1.89773710705695e-05 5.16511780957763e-07
3.29375000000000e+01 1.83333710003116e-05 4.99933419640706e-07
3.30625000000000e+01 1.77112251736657e-05 4.83883685552831e-07
3.31875000000000e+01 1.71101919634397e-05 4.68345860687441e-07
3.33125000000000e+01 1.65295549096767e-05 4.53303750194554e-07
3.34375000000000e+01 1.59686218656012e-05 4.38741666237224e-07
3.35625000000000e+01 1.54267241725473e-05 4.24644412336523e-07
3.36875000000000e+01 1.49032158628859e-05 4.10997268190754e-07
3.38125000000000e+01 1.43974728900011e-05 3.97785974954985e-07
3.39375000000000e+01 1.39088923843969e-05 3.84996720967299e-07
3.40625000000000e+01 1.34368919350484e-05 3.72616127908532e-07
3.41875000000000e+01 1.29809088951405e-05 3.60631237382711e-07
3.43125000000000e+01 1.25403997113659e-05 3.49029497905721e-07
3.44375000000000e+01 1.21148392759847e-05 3.37798752290101e-07
3.45625000000000e+01 1.17037203008703e-05 3.26927225414180e-07
3.46875000000000e+01 1.13065527127986e-05 3.16403512364165e-07
3.48125000000000e+01 1.09228630692573e-05 3.06216566938078e-07
3.49375000000000e+01 1.05521939940803e-05 2.96355690500723e-07
3.50625000000000e+01 1.01941036322334e-05 2.86810521179277e-07
3.51875000000000e+01 9.84816512310257e-06 2.77571023389287e-07
3.53125000000000e+01 9.51396609165581e-06 2.68627477681222e-07
3.54375000000000e+01 9.19110815687263e-06 2.59970470897979e-07
3.55625000000000e+01 8.87920645685508e-06 2.51590886634033e-07
3.56875000000000e+01 8.57788919005423e-06 2.43479895987208e-07
3.58125000000000e+01 8.28679717206514e-06 2.35628948594241e-07
3.59375000000000e+01 8.00558340746212e-06 2.28029763941667e-07
3.60625000000000e+01 7.73391267616378e-06 2.20674322943718e-07
3.61875000000000e+01 7.47146113383491e-06 2.13554859779199e-07
3.63125000000000e+01 7.21791592584869e-06 2.06663853979554e-07
3.64375000000000e+01 6.97297481434925e-06 1.99994022760535e-07
3.65625000000000e+01 6.73634581796988e-06 1.93538313590142e-07
3.66875000000000e+01 6.50774686377742e-06 1.87289896985661e-07
3.68125000000000e+01 6.28690545102805e-06 1.81242159532918e-07
3.69375000000000e+01 6.07355832633352e-06 1.75388697120989e-07
3.70625000000000e+01 5.86745116985069e-06 1.69723308385859e-07
3.71875000000000e+01 5.66833829212028e-06 1.64239988356700e-07
3.73125000000000e+01 5.47598234119342e-06 1.58932922298603e-07
3.74375000000000e+01 5.29015401969693e-06 1.53796479745817e-07
3.75625000000000e+01 5.11063181150005e-06 1.48825208719703e-07
3.76875000000000e+01 4.93720171765672e-06 1.44013830125775e-07
3.78125000000000e+01 4.76965700130875e-06 1.39357232324390e-07
3.79375000000000e+01 4.60779794124575e-06 1.34850465869798e-07
3.80625000000000e+01 4.45143159382797e-06 1.30488738412408e-07
3.81875000000000e+01 4.30037156298843e-06 1.26267409759305e-07
3.83125000000000e+01 4.15443777803996e-06 1.22181987088181e-07
3.84375000000000e+01 4.01345627902247e-06 1.18228120309993e-07
3.85625000000000e+01 3.87725900933446e-06 1.14401597575799e-07
3.86875000000000e+01 3.74568361540163e-06 1.10698340923371e-07
3.88125000000000e+01 3.61857325314373e-06 1.07114402059296e-07
3.89375000000000e+01 3.49577640100903e-06 1.03645958272414e-07
3.90625000000000e+01 3.37714667935347e-06 1.00289308474576e-07
3.91875000000000e+01 3.26254267594924e-06 9.70408693648030e-08
3.93125000000000e+01 3.15182777741468e-06 9.38971717130702e-08
3.94375000000000e+01 3.04487000636472e-06 9.08548567600340e-08
