Energy (eV)          EEDF (eV^-(3/2))     First Anisotropy
5.00806451612903e-04 1.47653638671284e+01 6.52360420523330e-03
1.50241935483871e-03 1.46833144296020e+01 1.07786301206889e-02
2.50403225806452e-03 1.46017209310683e+01 1.42457269075637e-02
3.50564516129032e-03 1.45205808384632e+01 1.68899055826191e-02
4.50725806451613e-03 1.44398916321207e+01 1.91036418941306e-02
5.50887096774194e-03 1.43596508063609e+01 2.10350414247519e-02
6.51048387096774e-03 1.42798558697432e+01 2.27606096964811e-02
7.51209677419355e-03 1.42005043444895e+01 2.43264642399391e-02
8.51370967741935e-03 1.41215937665213e+01 2.57631373623117e-02
9.51532258064516e-03 1.40431216856375e+01 2.70921709994666e-02
1.05169354838710e-02 1.39650856653365e+01 2.83294838920988e-02
1.15185483870968e-02 1.38874832822721e+01 2.94872621120961e-02
1.25201612903226e-02 1.38103121267716e+01 3.05750981031186e-02
1.35217741935484e-02 1.37335698025527e+01 3.16007155064295e-02
1.45233870967742e-02 1.36572539266488e+01 3.25704508972652e-02
1.55250000000000e-02 1.35813621293354e+01 3.34895856891554e-02
1.65266129032258e-02 1.35058920536537e+01 3.43625815653675e-02
1.75282258064516e-02 1.34308413565742e+01 3.51932520336376e-02
1.85298387096774e-02 1.33562077076548e+01 3.59848900836641e-02
1.95314516129032e-02 1.32819887894038e+01 3.67403648161106e-02
2.05330645161290e-02 1.32081822972083e+01 3.74621960751406e-02
2.15346774193548e-02 1.31347859392618e+01 3.81526128165560e-02
2.25362903225806e-02 1.30617974364936e+01 3.88135993853352e-02
2.35379032258065e-02 1.29892145224977e+01 3.94469326432874e-02
2.45395161290323e-02 1.29170349434626e+01 4.00542120755213e-02
2.55411290322581e-02 1.28452564581008e+01 4.06368844411745e-02
2.65427419354839e-02 1.27738768375799e+01 4.11962641361517e-02
2.75443548387097e-02 1.27028938654525e+01 4.17335501504196e-02
2.85459677419355e-02 1.26323053375884e+01 4.22498402947849e-02
2.95475806451613e-02 1.25621090621050e+01 4.27461432190258e-02
3.05491935483871e-02 1.24923028593004e+01 4.32233886289242e-02
3.15508064516129e-02 1.24228845615845e+01 4.36824360234954e-02
3.25524193548387e-02 1.23538520134126e+01 4.41240822077376e-02
3.35540322580645e-02 1.22852030712181e+01 4.45490677858143e-02
3.45556451612903e-02 1.22169356033460e+01 4.49580827999933e-02
3.55572580645161e-02 1.21490474899870e+01 4.53517716495891e-02
3.65588709677419e-02 1.20815366231111e+01 4.57307374001144e-02
3.75604838709677e-02 1.20144009064024e+01 4.60955455732196e-02
3.85620967741935e-02 1.19476382551941e+01 4.64467274924804e-02
3.95637096774194e-02 1.18812465964037e+01 4.67847832475486e-02
4.05653225806452e-02 1.18152238684685e+01 4.71101843290063e-02
4.15669354838710e-02 1.17495680212818e+01 4.74233759779230e-02
4.25685483870968e-02 1.16842770161290e+01 4.77247792873529e-02
4.35701612903226e-02 1.16193488256245e+01 4.80147930873182e-02
4.45717741935484e-02 1.15547814336487e+01 4.82937956401868e-02
4.55733870967742e-02 1.14905728352852e+01 4.85621461695061e-02
4.65750000000000e-02 1.14267210367589e+01 4.88201862603904e-02
4.75766129032258e-02 1.13632240552586e+01 4.90682410562406e-02
4.85782258064516e-02 1.13000799192248e+01 4.93066204336105e-02
4.95798387096774e-02 1.12372866679355e+01 4.95356200743881e-02
5.05814516129032e-02 1.11748423515639e+01 4.97555223533311e-02
5.15830645161290e-02 1.11127450311185e+01 4.99665972197227e-02
5.25846774193548e-02 1.10509927783823e+01 5.01691029871863e-02
5.35862903225806e-02 1.09895836758534e+01 5.03632870581241e-02
5.45879032258065e-02 1.09285158166851e+01 5.05493865893947e-02
5.55895161290323e-02 1.08677873046270e+01 5.07276291049745e-02
5.65911290322581e-02 1.08073962539659e+01 5.08982330607863e-02
5.75927419354839e-02 1.07473407894671e+01 5.10614083662353e-02
5.85943548387097e-02 1.06876190463167e+01 5.12173568664708e-02
5.95959677419355e-02 1.06282291700631e+01 5.13662727890305e-02
6.05975806451613e-02 1.05691693165599e+01 5.15083431580478e-02
6.15991935483871e-02 1.05104376519082e+01 5.16437481788899e-02
6.26008064516129e-02 1.04520323524001e+01 5.17726615958468e-02
6.36024193548387e-02 1.03939516044615e+01 5.18952510251297e-02
6.46040322580645e-02 1.03361936045964e+01 5.20116782653020e-02
6.56056451612903e-02 1.02787565593307e+01 5.21220995870285e-02
6.66072580645161e-02 1.02216386851562e+01 5.22266660037879e-02
6.76088709677419e-02 1.01648382084757e+01 5.23255235251075e-02
6.86104838709677e-02 1.01083533655474e+01 5.24188133937030e-02
6.96120967741936e-02 1.00521824024306e+01 5.25066723077788e-02
7.06137096774194e-02 9.99632357493110e+00 5.25892326296288e-02
7.16153225806452e-02 9.94077514854686e+00 5.26666225815731e-02
7.26169354838710e-02 9.88553539841433e+00 5.27389664301906e-02
7.36185483870968e-02 9.83060260925483e+00 5.28063846596822e-02
7.46201612903226e-02 9.77597507532128e+00 5.28689941351717e-02
7.56217741935484e-02 9.72165110034526e+00 5.29269082566780e-02
7.66233870967742e-02 9.66762899748431e+00 5.29802371043823e-02
7.76250000000000e-02 9.61390708926956e+00 5.30290875877936e-02
7.86266129032258e-02 9.56048370749530e+00 5.30735635392380e-02
7.96282258064516e-02 9.50735719334364e+00 5.31137658608372e-02
8.06298387096774e-02 9.45452589715511e+00 5.31497926649390e-02
8.16314516129032e-02 9.40198817843718e+00 5.31817393472961e-02
8.26330645161290e-02 9.34974240581335e+00 5.32096987036862e-02
8.36346774193548e-02 9.29778695697251e+00 5.32337610288400e-02
8.46362903225806e-02 9.24612021861855e+00 5.32540142103636e-02
8.56379032258065e-02 9.19474058642026e+00 5.32705438179426e-02
8.66395161290323e-02 9.14364646496151e+00 5.32834331881696e-02
8.76411290322581e-02 9.09283626769173e+00 5.32927635052258e-02
8.86427419354839e-02 9.04230841687662e+00 5.32986138776750e-02
8.96443548387097e-02 8.99206134354917e+00 5.33010614116244e-02
9.06459677419355e-02 8.94209348746097e+00 5.33001812804283e-02
9.16475806451613e-02 8.89240329703370e+00 5.32960467911638e-02
9.26491935483871e-02 8.84298922931100e+00 5.32887294480758e-02
9.36508064516129e-02 8.79384974991055e+00 5.32782990131309e-02
9.46524193548387e-02 8.74498333297639e+00 5.32648235638411e-02
9.56540322580645e-02 8.69638846113158e+00 5.32483695485572e-02
9.66556451612903e-02 8.64806362543110e+00 5.32290018393479e-02
9.76572580645161e-02 8.60000732531493e+00 5.32067837825688e-02
9.86588709677419e-02 8.55221806856152e+00 5.31817772472703e-02
9.96604838709677e-02 8.50469437124142e+00 5.31540426437015e-02
1.00662096774194e-01 8.45743475779116e+00 5.31236390610327e-02
1.01663709677419e-01 8.41043776056567e+00 5.30906242348676e-02
1.02665322580645e-01 8.36370192023785e+00 5.30550545315507e-02
1.03666935483871e-01 8.31722578558988e+00 5.30169850919058e-02
1.04668548387097e-01 8.27100791346776e+00 5.29764698304300e-02
1.05670161290323e-01 8.22504686873713e+00 5.29335614713546e-02
1.06671774193548e-01 8.17934122423865e+00 5.28883115835344e-02
1.07673387096774e-01 8.13388956074350e+00 5.28407706137937e-02
1.08675000000000e-01 8.08869046690931e+00 5.27909878336753e-02
1.09676612903226e-01 8.04374253958812e+00 5.27390116275898e-02
1.10678225806452e-01 7.99904438272087e+00 5.26848893501444e-02
1.11679838709677e-01 7.95459460836274e+00 5.26286671810617e-02
1.12681451612903e-01 7.91039183628152e+00 5.25703904145007e-02
1.13683064516129e-01 7.86643469391476e+00 5.25101033978943e-02
1.14684677419355e-01 7.82272181632703e+00 5.24478495575130e-02
1.15686290322581e-01 7.77925184616753e+00 5.23836714229719e-02
1.16687903225806e-01 7.73602343362836e+00 5.23176106510936e-02
1.17689516129032e-01 7.69303523640232e+00 5.22497080489456e-02
1.18691129032258e-01 7.65028591964123e+00 5.21800035187443e-02
1.19692741935484e-01 7.60777415621910e+00 5.21085363119748e-02
1.20694354838710e-01 7.56549862577153e+00 5.20353448941851e-02
1.21695967741935e-01 7.52345801557974e+00 5.19604668077393e-02
1.22697580645161e-01 7.48165102021956e+00 5.18839389279462e-02
1.23699193548387e-01 7.44007634152089e+00 5.18057974023287e-02
1.24700806451613e-01 7.39873268852738e+00 5.17260776687354e-02
1.25702419354839e-01 7.35761877745603e+00 5.16448144725968e-02
1.26704032258065e-01 7.31673333165802e+00 5.15620418838050e-02
1.27705645161290e-01 7.27607508157866e+00 5.14777933132146e-02
1.28707258064516e-01 7.23564276471804e+00 5.13921015283597e-02
1.29708870967742e-01 7.19543512559179e+00 5.13049985992814e-02
1.30710483870968e-01 7.15545091595455e+00 5.12165161229044e-02
1.31712096774194e-01 7.11568889396925e+00 5.11266850971437e-02
1.32713709677419e-01 7.07614782496520e+00 5.10355357932234e-02
1.33715322580645e-01 7.03682648113263e+00 5.09430979824656e-02
1.34716935483871e-01 6.99772364148453e+00 5.08494008779754e-02
1.35718548387097e-01 6.95883809181860e+00 5.07544731472703e-02
1.36720161290323e-01 6.92016862467980e+00 5.06583429245614e-02
1.37721774193548e-01 6.88171403932285e+00 5.05610378228165e-02
1.38723387096774e-01 6.84347314167486e+00 5.04625849453650e-02
1.39725000000000e-01 6.80544474429825e+00 5.03630108338593e-02
1.40726612903226e-01 6.76762766658428e+00 5.02623416700810e-02
1.41728225806452e-01 6.73002073402123e+00 5.01606031588676e-02
1.42729838709677e-01 6.69262277885713e+00 5.00578204094140e-02
1.43731451612903e-01 6.65543263982902e+00 4.99540181395874e-02
1.44733064516129e-01 6.61844916212697e+00 4.98492206206361e-02
1.45734677419355e-01 6.58167119735807e+00 4.97434516866890e-02
1.46736290322581e-01 6.54509760351085e+00 4.96367347438945e-02
1.47737903225806e-01 6.50872724492001e+00 4.95290927794576e-02
1.48739516129032e-01 6.47255899223096e+00 4.94205483704360e-02
1.49741129032258e-01 6.43659172236482e+00 4.93111236343869e-02
1.50742741935484e-01 6.40082431868682e+00 4.92008404119548e-02
1.51744354838710e-01 6.36525567035831e+00 4.90897201583202e-02
1.52745967741935e-01 6.32988467291903e+00 4.89777838331510e-02
1.53747580645161e-01 6.29471022804608e+00 4.88650520857016e-02
1.54749193548387e-01 6.25973124351980e+00 4.87515452028093e-02
1.55750806451613e-01 6.22494663318986e+00 4.86372831161970e-02
1.56752419354839e-01 6.19035531694136e+00 4.85222854094362e-02
1.57754032258065e-01 6.15595622066163e+00 4.84065713248378e-02
1.58755645161290e-01 6.12174827620674e+00 4.82901597702684e-02
1.59757258064516e-01 6.08773042136828e+00 4.81730693256374e-02
1.60758870967742e-01 6.05390159984041e+00 4.80553181967759e-02
1.61760483870968e-01 6.02026076136530e+00 4.79369243799710e-02
1.62762096774194e-01 5.98680686116285e+00 4.78179055621584e-02
1.63763709677419e-01 5.95353886043886e+00 4.76982790197309e-02
1.64765322580645e-01 5.92045572617161e+00 4.75780617855051e-02
1.65766935483871e-01 5.88755643107974e+00 4.74572706004064e-02
1.66768548387097e-01 5.85483995359026e+00 4.73359219189316e-02
1.67770161290323e-01 5.82230527780700e+00 4.72140319144963e-02
1.68771774193548e-01 5.78995139347906e+00 4.70916164847476e-02
1.69773387096774e-01 5.75777729596936e+00 4.69686912566817e-02
1.70775000000000e-01 5.72578198622347e+00 4.68452715434602e-02
1.71776612903226e-01 5.69396447089728e+00 4.67213724945437e-02
1.72778225806452e-01 5.66232376184752e+00 4.65970090033543e-02
1.73779838709677e-01 5.63085887658231e+00 4.64721956136529e-02
1.74781451612903e-01 5.59956883806932e+00 4.63469466719846e-02
1.75783064516129e-01 5.56845267470551e+00 4.62212762826209e-02
1.76784677419355e-01 5.53750942028684e+00 4.60951983119214e-02
1.77786290322581e-01 5.50673811397834e+00 4.59687263925474e-02
1.78787903225806e-01 5.47613780028435e+00 4.58418739276551e-02
1.79789516129032e-01 5.44570752901879e+00 4.57146540950085e-02
1.80791129032258e-01 5.41544635527565e+00 4.55870798066727e-02
1.81792741935484e-01 5.38535333954140e+00 4.54591638463722e-02
1.82794354838710e-01 5.35542754723830e+00 4.53309187840870e-02
1.83795967741935e-01 5.32566804912521e+00 4.52023568894346e-02
1.84797580645161e-01 5.29607392112462e+00 4.50734902712317e-02
1.85799193548387e-01 5.26664424429405e+00 4.49443308355509e-02
1.86800806451613e-01 5.23737810479744e+00 4.48148902892609e-02
1.87802419354839e-01 5.20827459387671e+00 4.46851801433780e-02
1.88804032258065e-01 5.17933280782375e+00 4.45552117164246e-02
1.89805645161290e-01 5.15055184795227e+00 4.44249961377891e-02
1.90807258064516e-01 5.12193082056982e+00 4.42945443509036e-02
1.91808870967742e-01 5.09346883695014e+00 4.41638670759457e-02
1.92810483870968e-01 5.06516501343123e+00 4.40329749348480e-02
1.93812096774194e-01 5.03701847100876e+00 4.39018783728251e-02
1.94813709677419e-01 5.00902833568995e+00 4.37705875787827e-02
1.95815322580645e-01 4.98119373833866e+00 4.36391126123812e-02
1.96816935483871e-01 4.95351381464846e+00 4.35074633653157e-02
1.97818548387097e-01 4.92598770511569e+00 4.33756495640780e-02
1.98820161290323e-01 4.89861455501291e+00 4.32436807726639e-02
1.99821774193548e-01 4.87139351436231e+00 4.31115663952992e-02
2.00823387096774e-01 4.84432373790928e+00 4.29793156790566e-02
2.01825000000000e-01 4.81740438509623e+00 4.28469376791351e-02
2.02826612903226e-01 4.79063462014944e+00 4.27144413737750e-02
2.03828225806452e-01 4.76401361171235e+00 4.25818355916182e-02
2.04829838709677e-01 4.73754053316231e+00 4.24491289380205e-02
2.05831451612903e-01 4.71121456247007e+00 4.23163299118947e-02
2.06833064516129e-01 4.68503488217432e+00 4.21834468697161e-02
2.07834677419355e-01 4.65900067935627e+00 4.20504880278219e-02
2.08836290322581e-01 4.63311114561437e+00 4.19174614646221e-02
2.09837903225806e-01 4.60736547703934e+00 4.17843751228191e-02
2.10839516129032e-01 4.58176287418911e+00 4.16512368116053e-02
2.11841129032258e-01 4.55630254206402e+00 4.15180541743437e-02
2.12842741935484e-01 4.53098369018394e+00 4.13848347943797e-02
2.13844354838710e-01 4.50580553225676e+00 4.12515861277830e-02
2.14845967741935e-01 4.48076728646248e+00 4.11183154350877e-02
2.15847580645161e-01 4.45586817532558e+00 4.09850298889007e-02
2.16849193548387e-01 4.43110742569088e+00 4.08517365404660e-02
2.17850806451613e-01 4.40648426869955e+00 4.07184423215912e-02
2.18852419354839e-01 4.38199793976512e+00 4.05851540464588e-02
2.19854032258065e-01 4.35764767854994e+00 4.04518784134691e-02
2.20855645161290e-01 4.33343272894144e+00 4.03186220070772e-02
2.21857258064516e-01 4.30935233902868e+00 4.01853912995334e-02
2.22858870967742e-01 4.28540576107901e+00 4.00521926210590e-02
2.23860483870968e-01 4.26159225160591e+00 3.99190322566961e-02
2.24862096774194e-01 4.23791107107132e+00 3.97859163844081e-02
2.25863709677419e-01 4.21436148413865e+00 3.96528510122574e-02
2.26865322580645e-01 4.19094275955748e+00 3.95198420769374e-02
2.27866935483871e-01 4.16765417014087e+00 3.93868954129254e-02
2.28868548387097e-01 4.14449499274272e+00 3.92540167540185e-02
2.29870161290323e-01 4.12146450823542e+00 3.91212117348617e-02
2.30871774193548e-01 4.09856200148745e+00 3.89884858924775e-02
2.31873387096774e-01 4.07578676134121e+00 3.88558446677445e-02
2.32875000000000e-01 4.05313808059091e+00 3.87232933776477e-02
2.33876612903226e-01 4.03061525604305e+00 3.85908373047192e-02
2.34878225806452e-01 4.00821758824608e+00 3.84584816396558e-02
2.35879838709677e-01 3.98594438171841e+00 3.83262314230473e-02
2.36881451612903e-01 3.96379494484316e+00 3.81940916363978e-02
2.37883064516129e-01 3.94176858984669e+00 3.80620671734468e-02
2.38884677419355e-01 3.91986463277722e+00 3.79301628414841e-02
2.39886290322581e-01 3.89808239348359e+00 3.77983833626231e-02
2.40887903225806e-01 3.87642119559418e+00 3.76667333750777e-02
2.41889516129032e-01 3.85488036649591e+00 3.75352174344378e-02
2.42891129032258e-01 3.83345923731332e+00 3.74038399878409e-02
2.43892741935484e-01 3.81215714296254e+00 3.72726054566736e-02
2.44894354838710e-01 3.79097342190536e+00 3.71415181833317e-02
2.45895967741935e-01 3.76990741635508e+00 3.70105823771548e-02
2.46897580645161e-01 3.74895847218022e+00 3.68798021985871e-02
2.47899193548387e-01 3.72812593888425e+00 3.67491817325252e-02
2.48900806451613e-01 3.70740916958537e+00 3.66187249894417e-02
2.49902419354839e-01 3.68680752099639e+00 3.64884359064502e-02
2.50904032258065e-01 3.66632035340482e+00 3.63583183483883e-02
2.51905645161290e-01 3.64594703065299e+00 3.62283761089087e-02
2.52907258064516e-01 3.62568692011827e+00 3.60986129115079e-02
2.53908870967742e-01 3.60553939269345e+00 3.59690323856691e-02
2.54910483870968e-01 3.58550382283446e+00 3.58396381428715e-02
2.55912096774194e-01 3.56557958833818e+00 3.57104337274911e-02
2.56913709677419e-01 3.54576607052684e+00 3.55814225669483e-02
2.57915322580645e-01 3.52606265416062e+00 3.54526080490699e-02
2.58916935483871e-01 3.50646872741850e+00 3.53239934974720e-02
2.59918548387097e-01 3.48698368187928e+00 3.51955821724771e-02
2.60920161290323e-01 3.46760691250266e+00 3.50673772720282e-02
2.61921774193548e-01 3.44833781761051e+00 3.49393819326155e-02
2.62923387096774e-01 3.42917579886816e+00 3.48115992301653e-02
2.63925000000000e-01 3.41012026126581e+00 3.46840321578281e-02
2.64926612903226e-01 3.39117061316125e+00 3.45566836964068e-02
2.65928225806452e-01 3.37232626607702e+00 3.44295567687554e-02
2.66929838709677e-01 3.35358663486753e+00 3.43026541934581e-02
2.67931451612903e-01 3.33495113763874e+00 3.41759787565159e-02
2.68933064516129e-01 3.31641919573014e+00 3.40495331884428e-02
2.69934677419355e-01 3.29799023369676e+00 3.39233201650642e-02
2.70936290322581e-01 3.27966367929130e+00 3.37973423082901e-02
2.71937903225806e-01 3.26143896344640e+00 3.36716021869028e-02
2.72939516129032e-01 3.24331552025692e+00 3.35461023173298e-02
2.73941129032258e-01 3.22529278696241e+00 3.34208451429687e-02
2.74942741935484e-01 3.20737020398537e+00 3.32958330994890e-02
2.75944354838710e-01 3.18954721474579e+00 3.31710685724515e-02
2.76945967741935e-01 3.17182326581276e+00 3.30465538542543e-02
2.77947580645161e-01 3.15419780683074e+00 3.29222912106126e-02
2.78949193548387e-01 3.13667029050243e+00 3.27982828592478e-02
2.79950806451613e-01 3.11924017257181e+00 3.26745309705772e-02
2.80952419354839e-01 3.10190691180719e+00 3.25510376683715e-02
2.81954032258065e-01 3.08466996998447e+00 3.24278050304317e-02
2.82955645161290e-01 3.06752881187040e+00 3.23048350892618e-02
2.83957258064516e-01 3.05048290520598e+00 3.21821298327124e-02
2.84958870967742e-01 3.03353172068986e+00 3.20596911848570e-02
2.85960483870968e-01 3.01667473201246e+00 3.19375210661743e-02
2.86962096774194e-01 2.99991141568747e+00 3.18156213544036e-02
2.87963709677419e-01 2.98324125118844e+00 3.16939938447749e-02
2.88965322580645e-01 2.96666372088143e+00 3.15726403112866e-02
2.89966935483871e-01 2.95017831000891e+00 3.14515624869931e-02
2.90968548387097e-01 2.93378450667379e+00 3.13307620645813e-02
2.91970161290323e-01 2.91748180182355e+00 3.12102406969427e-02
2.92971774193548e-01 2.90126968923441e+00 3.10899999977566e-02
2.93973387096774e-01 2.88514766549561e+00 3.09700415420529e-02
2.94975000000000e-01 2.86911522999382e+00 3.08503668483880e-02
2.95976612903226e-01 2.85317188494360e+00 3.07309774347485e-02
2.96978225806452e-01 2.83731713523311e+00 3.06118747821251e-02
2.97979838709677e-01 2.82155048854828e+00 3.04930602975066e-02
2.98981451612903e-01 2.80587145531074e+00 3.03745353708018e-02
2.99983064516129e-01 2.79027954866268e+00 3.02563013564732e-02
3.00984677419355e-01 2.77477428445167e+00 3.01383595740454e-02
3.01986290322581e-01 2.75935518121566e+00 3.00207113085968e-02
3.02987903225806e-01 2.74402176016805e+00 2.99033578112563e-02
3.03989516129032e-01 2.72877354518279e+00 2.97863002996997e-02
3.04991129032258e-01 2.71361006277962e+00 2.96695399415418e-02
3.05992741935484e-01 2.69853084215149e+00 2.95530779062835e-02
3.06994354838710e-01 2.68353541502293e+00 2.94369153314127e-02
3.07995967741935e-01 2.66862331576313e+00 2.93210532879519e-02
3.08997580645161e-01 2.65379408132871e+00 2.92054928333602e-02
3.09999193548387e-01 2.63904725124940e+00 2.90902349944195e-02
3.11000806451613e-01 2.62438236761370e+00 2.89752807676848e-02
3.12002419354839e-01 2.60979897505464e+00 2.88606311199058e-02
3.13004032258065e-01 2.59529662073570e+00 2.87462869884554e-02
3.14005645161290e-01 2.58087485433673e+00 2.86322492817708e-02
3.15007258064516e-01 2.56653322803992e+00 2.85185188797556e-02
3.16008870967742e-01 2.55227129651598e+00 2.84050966184064e-02
