Energy (eV)          EEDF (eV^-(3/2))     First Anisotropy
2.58888888888889e-02 2.52205595399118e-01 2.20926010932705e-04
7.76666666666667e-02 2.47410824670920e-01 3.62562721046226e-04
1.29444444444444e-01 2.42707209013422e-01 4.72702856861972e-04
1.81222222222222e-01 2.38093015515105e-01 5.52859616391395e-04
2.33000000000000e-01 2.33566544092927e-01 6.16861760856287e-04
2.84777777777778e-01 2.29126127032720e-01 6.70037464933586e-04
3.36555555555556e-01 2.24770128325423e-01 7.15193635307040e-04
3.88333333333333e-01 2.20496943076500e-01 7.54054565860215e-04
4.40111111111111e-01 2.16304996877162e-01 7.87782931633180e-04
4.91888888888889e-01 2.12192745263410e-01 8.17213741570200e-04
5.43666666666667e-01 2.08158673133171e-01 8.42974718292662e-04
5.95444444444444e-01 2.04201294188763e-01 8.65554406565348e-04
6.47222222222222e-01 2.00319150395206e-01 8.85343523919465e-04
6.99000000000000e-01 1.96510811423638e-01 9.02661472272891e-04
7.50777777777778e-01 1.92774874144371e-01 9.17774095298744e-04
8.02555555555556e-01 1.89109962103097e-01 9.30906007472011e-04
8.54333333333333e-01 1.85514725018095e-01 9.42249413351918e-04
9.06111111111111e-01 1.81987838269459e-01 9.51970578047846e-04
9.57888888888889e-01 1.78528002424650e-01 9.60214680104023e-04
1.00966666666667e+00 1.75133942755019e-01 9.67109523653141e-04
1.06144444444444e+00 1.71804408753189e-01 9.72768418021236e-04
1.11322222222222e+00 1.68538173736461e-01 9.77292461349183e-04
1.16500000000000e+00 1.65334034274629e-01 9.80772358037636e-04
1.21677777777778e+00 1.62190809847486e-01 9.83289884751227e-04
1.26855555555556e+00 1.59107342378068e-01 9.84919100648911e-04
1.32033333333333e+00 1.56082495829165e-01 9.85727345632773e-04
1.37211111111111e+00 1.53115155714011e-01 9.85776065911390e-04
1.42388888888889e+00 1.50204228757790e-01 9.85121506989978e-04
1.47566666666667e+00 1.47348642470031e-01 9.83815309459100e-04
1.52744444444444e+00 1.44547344749978e-01 9.81905008476903e-04
1.57922222222222e+00 1.41799303516198e-01 9.79434470004247e-04
1.63100000000000e+00 1.39103506272744e-01 9.76444260191261e-04
1.68277777777778e+00 1.36458959790727e-01 9.72971965482541e-04
1.73455555555556e+00 1.33864689723872e-01 9.69052478256586e-04
1.78633333333333e+00 1.31319740263827e-01 9.64718246491975e-04
1.83811111111111e+00 1.28823173744431e-01 9.59999488873103e-04
1.88988888888889e+00 1.26374070340591e-01 9.54924384621889e-04
1.94166666666667e+00 1.23971527714202e-01 9.49519248707775e-04
1.99344444444444e+00 1.21614660681934e-01 9.43808681728487e-04
2.04522222222222e+00 1.19302600900279e-01 9.37815709657702e-04
2.09700000000000e+00 1.17034496511076e-01 9.31561903881055e-04
2.14877777777778e+00 1.14809511862813e-01 9.25067488945668e-04
2.20055555555556e+00 1.12626827190840e-01 9.18351444580936e-04
2.25233333333333e+00 1.10485638324828e-01 9.11431597499221e-04
2.30411111111111e+00 1.08385156363571e-01 9.04324701111381e-04
2.35588888888889e+00 1.06324607413718e-01 8.97046507821855e-04
2.40766666666667e+00 1.04303232294613e-01 8.89611840008786e-04
2.45944444444444e+00 1.02320286258707e-01 8.82034650150116e-04
2.51122222222222e+00 1.00375038724824e-01 8.74328080255688e-04
2.56300000000000e+00 9.84667729854222e-02 8.66504512324485e-04
2.61477777777778e+00 9.65947859664934e-02 8.58575614565078e-04
2.66655555555556e+00 9.47583879604144e-02 8.50552387610275e-04
2.71833333333333e+00 9.29569023784324e-02 8.42445206749747e-04
2.77011111111111e+00 9.11896654812982e-02 8.34263858190839e-04
2.82188888888889e+00 8.94560261551292e-02 8.26017572478966e-04
2.87366666666667e+00 8.77553456645586e-02 8.17715059373994e-04
2.92544444444444e+00 8.60869974174788e-02 8.09364536562895e-04
2.97722222222222e+00 8.44503667396072e-02 8.00973759732033e-04
3.02900000000000e+00 8.28448506313510e-02 7.92550047388719e-04
3.08077777777778e+00 8.12698575625753e-02 7.84100303878071e-04
3.13255555555556e+00 7.97248072489329e-02 7.75631043680261e-04
3.18433333333333e+00 7.82091304427946e-02 7.67148413789110e-04
3.23611111111111e+00 7.67222687091264e-02 7.58658212471740e-04
3.28788888888889e+00 7.52636742343575e-02 7.50165906728147e-04
3.33966666666667e+00 7.38328096195698e-02 7.41676651687247e-04
3.39144444444444e+00 7.24291476825485e-02 7.33195305930201e-04
3.44322222222222e+00 7.10521712674928e-02 7.24726448520438e-04
3.49500000000000e+00 6.97013730423801e-02 7.16274392514247e-04
3.54677777777778e+00 6.83762553243327e-02 7.07843197580944e-04
3.59855555555556e+00 6.70763298920978e-02 6.99436684088210e-04
3.65033333333333e+00 6.58011178096334e-02 6.91058446116976e-04
3.70211111111111e+00 6.45501492391091e-02 6.82711862015872e-04
3.75388888888889e+00 6.33229632785031e-02 6.74400104280603e-04
3.80566666666667e+00 6.21191077881496e-02 6.66126151266680e-04
3.85744444444444e+00 6.09381392241848e-02 6.57892795985120e-04
3.90922222222222e+00 5.97796224780498e-02 6.49702656501326e-04
3.96100000000000e+00 5.86431307072326e-02 6.41558183794945e-04
4.01277777777778e+00 5.75282451870893e-02 6.33461669131562e-04
4.06455555555556e+00 5.64345551534985e-02 6.25415252783965e-04
4.11633333333333e+00 5.53616576541023e-02 6.17420932092413e-04
4.16811111111111e+00 5.43091573919897e-02 6.09480567740092e-04
4.21988888888889e+00 5.32766665880271e-02 6.01595889644138e-04
4.27166666666667e+00 5.22638048352772e-02 5.93768504436377e-04
4.32344444444444e+00 5.12701989588633e-02 5.85999900759190e-04
4.37522222222222e+00 5.02954828806735e-02 5.78291455950620e-04
4.42700000000000e+00 4.93392974777664e-02 5.70644440820308e-04
4.47877777777778e+00 4.84012904568756e-02 5.63060024136223e-04
4.53055555555556e+00 4.74811162223069e-02 5.55539278274028e-04
4.58233333333333e+00 4.65784357505578e-02 5.48083184428547e-04
4.63411111111111e+00 4.56929164594788e-02 5.40692636480250e-04
4.68588888888889e+00 4.48242320917555e-02 5.33368444627539e-04
4.73766666666667e+00 4.39720625926603e-02 5.26111340353159e-04
4.78944444444444e+00 4.31360939921461e-02 5.18921979710342e-04
4.84122222222222e+00 4.23160182908368e-02 5.11800947776196e-04
4.89300000000000e+00 4.15115333414470e-02 5.04748761633290e-04
4.94477777777778e+00 4.07223427426379e-02 4.97765873169810e-04
4.99655555555556e+00 3.99481557280615e-02 4.90852672854873e-04
5.04833333333333e+00 3.91886870607195e-02 4.84009493209061e-04
5.10011111111111e+00 3.84436569233475e-02 4.77236611237219e-04
5.15188888888889e+00 3.77127908199101e-02 4.70534250711349e-04
5.20366666666667e+00 3.69958194729087e-02 4.63902585557779e-04
5.25544444444444e+00 3.62924787241797e-02 4.57341741930220e-04
5.30722222222222e+00 3.56025094388484e-02 4.50851801250475e-04
5.35900000000000e+00 3.49256574059430e-02 4.44432802096368e-04
5.41077777777778e+00 3.42616732487030e-02 4.38084741970863e-04
5.46255555555556e+00 3.36103123313578e-02 4.31807579879305e-04
5.51433333333333e+00 3.29713346701396e-02 4.25601238687029e-04
5.56611111111111e+00 3.23445048413819e-02 4.19465606663962e-04
5.61788888888889e+00 3.17295918983139e-02 4.13400538929531e-04
5.66966666666667e+00 3.11263692847723e-02 4.07405859806046e-04
5.72144444444444e+00 3.05346147517369e-02 4.01481364132767e-04
5.77322222222222e+00 2.99541102764355e-02 3.95626819377260e-04
5.82500000000000e+00 2.93846419789935e-02 3.89841966833988e-04
5.87677777777778e+00 2.88260000466991e-02 3.84126522742606e-04
5.92855555555556e+00 2.82779786556651e-02 3.78480180072230e-04
5.98033333333333e+00 2.77403758958828e-02 3.72902610143462e-04
6.03211111111111e+00 2.72129936941316e-02 3.67393463606621e-04
6.08388888888889e+00 2.66956377437403e-02 3.61952371351803e-04
6.13566666666667e+00 2.61881174320682e-02 3.56578946164488e-04
6.18744444444444e+00 2.56902457702820e-02 3.51272783552467e-04
6.23922222222222e+00 2.52018393252319e-02 3.46033463228008e-04
6.29100000000000e+00 2.47227181495168e-02 3.40860549861656e-04
6.34277777777778e+00 2.42527057175704e-02 3.35753593780463e-04
6.39455555555556e+00 2.37916288598169e-02 3.30712132213751e-04
6.44633333333333e+00 2.33393176995613e-02 3.25735690416703e-04
6.49811111111111e+00 2.28956055882950e-02 3.20823782280325e-04
6.54988888888889e+00 2.24603290464322e-02 3.15975910893802e-04
6.60166666666667e+00 2.20333277023536e-02 3.11191569718132e-04
6.65344444444444e+00 2.16144442333241e-02 3.06470243095153e-04
6.70522222222222e+00 2.12035243081311e-02 3.01811407294527e-04
6.75700000000000e+00 2.08004165283840e-02 2.97214530976129e-04
6.80877777777778e+00 2.04049723745996e-02 2.92679075613270e-04
6.86055555555556e+00 2.00170461508513e-02 2.88204496365728e-04
6.91233333333333e+00 1.96364949316331e-02 2.83790242859492e-04
6.96411111111111e+00 1.92631785075483e-02 2.79435759554328e-04
7.01588888888889e+00 1.88969593353269e-02 2.75140486077579e-04
7.06766666666667e+00 1.85377024865816e-02 2.70903858059253e-04
7.11944444444444e+00 1.81852755980981e-02 2.66725307431603e-04
7.17122222222222e+00 1.78395488235416e-02 2.62604263170309e-04
7.22300000000000e+00 1.75003947841697e-02 2.58540151564384e-04
7.27477777777778e+00 1.71676885233694e-02 2.54532396458132e-04
7.32655555555556e+00 1.68413074601222e-02 2.50580419862567e-04
7.37833333333333e+00 1.65211313442691e-02 2.46683642494877e-04
7.43011111111111e+00 1.62070422109043e-02 2.42841483985626e-04
7.48188888888889e+00 1.58989243382330e-02 2.39053363061739e-04
7.53366666666667e+00 1.55966642044873e-02 2.35318698140803e-04
7.58544444444444e+00 1.53001504461034e-02 2.31636907492259e-04
7.63722222222222e+00 1.50092738170651e-02 2.28007409761290e-04
7.68900000000000e+00 1.47239271475112e-02 2.24429624111407e-04
7.74077777777778e+00 1.44440053054091e-02 2.20902970346903e-04
7.79255555555556e+00 1.41694051574287e-02 2.17426869338913e-04
7.84433333333333e+00 1.39000255312829e-02 2.14000743395475e-04
7.89611111111111e+00 1.36357671774227e-02 2.10624016362850e-04
7.94788888888889e+00 1.33765327335140e-02 2.07296113709282e-04
7.99966666666667e+00 1.31222266882118e-02 2.04016462946534e-04
8.05144444444444e+00 1.28727553459720e-02 2.00784493700060e-04
8.10322222222222e+00 1.26280267928278e-02 1.97599638077303e-04
8.15500000000000e+00 1.23879508616190e-02 1.94461330726553e-04
8.20677777777778e+00 1.21524390996899e-02 1.91369008881182e-04
8.25855555555555e+00 1.19214047359897e-02 1.88322112653561e-04
8.31033333333333e+00 1.16947626493718e-02 1.85320085285135e-04
8.36211111111111e+00 1.14724293364149e-02 1.82362373178431e-04
8.41388888888889e+00 1.12543228814857e-02 1.79448425916325e-04
8.46566666666667e+00 1.10403629262777e-02 1.76577696558886e-04
8.51744444444445e+00 1.08304706402053e-02 1.73749641654485e-04
8.56922222222222e+00 1.06245686915960e-02 1.70963721496109e-04
8.62100000000000e+00 1.04225812184784e-02 1.68219400125965e-04
8.67277777777778e+00 1.02244338013619e-02 1.65516145329429e-04
8.72455555555556e+00 1.00300534355716e-02 1.62853428834460e-04
8.77633333333333e+00 9.83936850456455e-03 1.60230726476508e-04
8.82811111111111e+00 9.65230875289263e-03 1.57647518186059e-04
8.87988888888889e+00 9.46880526097804e-03 1.55103287966894e-04
8.93166666666667e+00 9.28879041949722e-03 1.52597524102681e-04
8.98344444444444e+00 9.11219790447195e-03 1.50129719130687e-04
9.03522222222222e+00 8.93896265302166e-03 1.47699370017350e-04
9.08700000000000e+00 8.76902083881732e-03 1.45305978128672e-04
9.13877777777778e+00 8.60230984914805e-03 1.42949049192813e-04
9.19055555555556e+00 8.43876826165557e-03 1.40628093431919e-04
9.24233333333333e+00 8.27833582187497e-03 1.38342625666672e-04
9.29411111111111e+00 8.12095342051482e-03 1.36092165276289e-04
9.34588888888889e+00 7.96656307220633e-03 1.33876236151735e-04
9.39766666666667e+00 7.81510789396091e-03 1.31694366836932e-04
9.44944444444444e+00 7.66653208421306e-03 1.29546090479837e-04
9.50122222222222e+00 7.52078090241180e-03 1.27430944949819e-04
9.55300000000000e+00 7.37780064839265e-03 1.25348472787461e-04
9.60477777777778e+00 7.23753864305858e-03 1.23298221148703e-04
9.65655555555556e+00 7.09994320881361e-03 1.21279741888446e-04
9.70833333333333e+00 6.96496365065994e-03 1.19292591622540e-04
9.76011111111111e+00 6.83255023710372e-03 1.17336331671737e-04
9.81188888888889e+00 6.70265418225418e-03 1.15410528000702e-04
9.86366666666667e+00 6.57522762770633e-03 1.13514751311949e-04
9.91544444444444e+00 6.45022362490857e-03 1.11648576984265e-04
9.96722222222222e+00 6.32759611798612e-03 1.09811585148281e-04
1.00190000000000e+01 6.20729992640382e-03 1.08003360650456e-04
1.00707777777778e+01 6.08929072857788e-03 1.06223492959825e-04
1.01225555555556e+01 5.97352504554632e-03 1.04471575947787e-04
1.01743333333333e+01 5.85996022615769e-03 1.02747208640690e-04
1.02261111111111e+01 5.74855442789529e-03 1.01049994734497e-04
1.02778888888889e+01 5.63926660484842e-03 9.93795420356679e-05
1.03296666666667e+01 5.53205649144269e-03 9.77354632210381e-05
1.03814444444444e+01 5.42688458760833e-03 9.61173753371591e-05
1.04332222222222e+01 5.32371214519886e-03 9.45249004439090e-05
1.04850000000000e+01 5.22250115075310e-03 9.29576651469925e-05
1.05367777777778e+01 5.12321431449213e-03 9.14153001116237e-05
1.05885555555556e+01 5.02581505556607e-03 8.98974405367414e-05
1.06403333333333e+01 4.93026748946045e-03 8.84037265016688e-05
1.06921111111111e+01 4.83653641208733e-03 8.69338025318013e-05
1.07438888888889e+01 4.74458728953941e-03 8.54873171471056e-05
1.07956666666667e+01 4.65438624444417e-03 8.40639234735142e-05
1.08474444444444e+01 4.56590004348501e-03 8.26632788176004e-05
1.08992222222222e+01 4.47909608593956e-03 8.12850451832244e-05
1.09510000000000e+01 4.39394238928357e-03 7.99288888740494e-05
1.10027777777778e+01 4.31040757982495e-03 7.85944800808785e-05
1.10545555555556e+01 4.22846088032784e-03 7.72814932597770e-05
1.11063333333333e+01 4.14807209938573e-03 7.59896074058195e-05
1.11581111111111e+01 4.06921161813173e-03 7.47185056839594e-05
1.12098888888889e+01 3.99185038152159e-03 7.34678750459986e-05
1.12616666666667e+01 3.91595988688563e-03 7.22374067231084e-05
1.13134444444444e+01 3.84151217342941e-03 7.10267958648437e-05
1.13652222222222e+01 3.76847981256346e-03 6.98357419543284e-05
1.14170000000000e+01 3.69683589587375e-03 6.86639484706455e-05
1.14687777777778e+01 3.62655402715781e-03 6.75111225389519e-05
1.15205555555556e+01 3.55760831204062e-03 6.63769752322553e-05
1.15723333333333e+01 3.48997334900949e-03 6.52612217876424e-05
1.16241111111111e+01 3.42362421830638e-03 6.41635812928350e-05
1.16758888888889e+01 3.35853647451924e-03 6.30837763615110e-05
1.17276666666667e+01 3.29468613697547e-03 6.20215335304559e-05
1.17794444444444e+01 3.23204968090825e-03 6.09765829534146e-05
1.18312222222222e+01 3.17060402929946e-03 5.99486587350501e-05
1.18830000000000e+01 3.11032654282272e-03 5.89374986444224e-05
1.19347777777778e+01 3.05119501307801e-03 5.79428438185231e-05
1.19865555555556e+01 2.99318765387700e-03 5.69644390032783e-05
1.20383333333333e+01 2.93628309368146e-03 5.60020327243517e-05
1.20901111111111e+01 2.88046036631497e-03 5.50553770211910e-05
1.21418888888889e+01 2.82569890467171e-03 5.41242271719747e-05
1.21936666666667e+01 2.77197853265365e-03 5.32083420141271e-05
1.22454444444444e+01 2.71927945773828e-03 5.23074836848486e-05
1.22972222222222e+01 2.66758226409933e-03 5.14214178899373e-05
1.23490000000000e+01 2.61686790419519e-03 5.05499136607855e-05
1.24007777777778e+01 2.56711769302633e-03 4.96927431033137e-05
1.24525555555556e+01 2.51831330082033e-03 4.88496815905189e-05
1.25043333333333e+01 2.47043674665525e-03 4.80205078973770e-05
1.25561111111111e+01 2.42347039068956e-03 4.72050039753191e-05
1.26078888888889e+01 2.37739692882377e-03 4.64029547193240e-05
1.26596666666667e+01 2.33219938593222e-03 4.56141482267834e-05
1.27114444444444e+01 2.28786110960980e-03 4.48383755777004e-05
1.27632222222222e+01 2.24436576437142e-03 4.40754310512108e-05
1.28150000000000e+01 2.20169732461369e-03 4.33251119195958e-05
1.28667777777778e+01 2.15984006974411e-03 4.25872182357534e-05
1.29185555555556e+01 2.11877857803990e-03 4.18615529870860e-05
1.29703333333333e+01 2.07849772127161e-03 4.11479222019920e-05
1.30221111111111e+01 2.03898265820053e-03 4.04461347587251e-05
1.30738888888889e+01 2.00021883005206e-03 3.97560021882556e-05
1.31256666666667e+01 1.96219195483316e-03 3.90773388834674e-05
1.31774444444444e+01 1.92488802207117e-03 3.84099619130336e-05
1.32292222222222e+01 1.88829328792359e-03 3.77536911959053e-05
1.32810000000000e+01 1.85239426928674e-03 3.71083493267784e-05
1.33327777777778e+01 1.81717773966691e-03 3.64737613962447e-05
1.33845555555556e+01 1.78263072402393e-03 3.58497551137988e-05
1.34363333333333e+01 1.74874049423883e-03 3.52361608918526e-05
1.34881111111111e+01 1.71549456367005e-03 3.46328116837942e-05
1.35398888888889e+01 1.68288068331736e-03 3.40395428171742e-05
1.35916666666667e+01 1.65088683705032e-03 3.34561921628599e-05
1.36434444444444e+01 1.61950123718163e-03 3.28825999774785e-05
1.36952222222222e+01 1.58871232034504e-03 3.23186090440863e-05
1.37470000000000e+01 1.55850874256239e-03 3.17640645243404e-05
1.37987777777778e+01 1.52887937574578e-03 3.12188138063475e-05
1.38505555555556e+01 1.49981330336729e-03 3.06827066029906e-05
1.39023333333333e+01 1.47129981663873e-03 3.01555950181438e-05
1.39541111111111e+01 1.44332840995282e-03 2.96373334095197e-05
1.40058888888889e+01 1.41588877763413e-03 2.91277782475542e-05
1.40576666666667e+01 1.38897080993179e-03 2.86267882522375e-05
1.41094444444444e+01 1.36256458929522e-03 2.81342242597797e-05
1.41612222222222e+01 1.33666038689980e-03 2.76499493360482e-05
1.42130000000000e+01 1.31124865851527e-03 2.71738286513960e-05
1.42647777777778e+01 1.28632004154387e-03 2.67057293519721e-05
1.43165555555556e+01 1.26186535138346e-03 2.62455206383101e-05
1.43683333333333e+01 1.23787557820784e-03 2.57930738174533e-05
1.44201111111111e+01 1.21434188314802e-03 2.53482621868269e-05
1.44718888888889e+01 1.19125559554154e-03 2.49109609148900e-05
1.45236666666667e+01 1.16860820956678e-03 2.44810471518584e-05
1.45754444444444e+01 1.14639138110948e-03 2.40583999168917e-05
1.46272222222222e+01 1.12459692483481e-03 2.36429001895932e-05
1.46790000000000e+01 1.10321681072598e-03 2.32344308040479e-05
1.47307777777778e+01 1.08224316157734e-03 2.28328763399972e-05
1.47825555555556e+01 1.06166824993956e-03 2.24381231856358e-05
1.48343333333333e+01 1.04148449540639e-03 2.20500595785837e-05
1.48861111111111e+01 1.02168446141504e-03 2.16685755075868e-05
1.49378888888889e+01 1.00226085291843e-03 2.12935626115948e-05
1.49896666666667e+01 9.83206513558084e-04 2.09249142693806e-05
1.50414444444444e+01 9.64514423027696e-04 2.05625255041116e-05
1.50932222222222e+01 9.46177694605970e-04 2.02062930571629e-05
1.51450000000000e+01 9.28189572255966e-04 1.98561152984344e-05
1.51967777777778e+01 9.10543428504158e-04 1.95118921343398e-05
1.52485555555556e+01 8.93232761874253e-04 1.91735250579668e-05
1.53003333333333e+01 8.76251194600970e-04 1.88409171812249e-05
1.53521111111111e+01 8.59592469948457e-04 1.85139731516530e-05
1.54038888888889e+01 8.43250450241332e-04 1.81925990670910e-05
1.54556666666667e+01 8.27219114489599e-04 1.78767025482363e-05
1.55074444444444e+01 8.11492556170541e-04 1.75661926579303e-05
1.55592222222222e+01 7.96064981149937e-04 1.72609799607057e-05
1.56110000000000e+01 7.80930705250791e-04 1.69609764469006e-05
1.56627777777778e+01 7.66084152459570e-04 1.66660954548703e-05
1.57145555555556e+01 7.51519852770300e-04 1.63762517110315e-05
1.57663333333333e+01 7.37232440258335e-04 1.60913613550370e-05
1.58181111111111e+01 7.23216650832486e-04 1.58113418693821e-05
1.58698888888889e+01 7.09467320570048e-04 1.55361120072663e-05
1.59216666666667e+01 6.95979383721379e-04 1.52655918513448e-05
1.59734444444444e+01 6.82747870843677e-04 1.49997027454717e-05
1.60252222222222e+01 6.69767907049618e-04 1.47383673427365e-05
1.60770000000000e+01 6.57034709969092e-04 1.44815095412616e-05
1.61287777777778e+01 6.44543588232637e-04 1.42290544184478e-05
1.61805555555556e+01 6.32289939660072e-04 1.39809282629222e-05
1.62323333333333e+01 6.20269249637706e-04 1.37370585942020e-05
1.62841111111111e+01 6.08477089233658e-04 1.34973741031405e-05
1.63358888888889e+01 5.96909113790379e-04 1.32618045909486e-05
