Energy (eV)          EEDF (eV^-(3/2))     First Anisotropy
2.14750000000000e-01 2.63417134043803e-01 6.42858879869429e-04
6.44250000000000e-01 2.21559440987954e-01 9.80497971127559e-04
1.07375000000000e+00 1.86353048252099e-01 1.09605927202375e-03
1.50325000000000e+00 1.56741046276323e-01 1.09911451458459e-03
1.93275000000000e+00 1.31834471280347e-01 1.05147314474896e-03
2.36225000000000e+00 1.10885618226181e-01 9.79245723146360e-04
2.79175000000000e+00 9.32655944229919e-02 8.96186708926240e-04
3.22125000000000e+00 7.84454399246902e-02 8.10139659312455e-04
3.65075000000000e+00 6.59802479472662e-02 7.25681325044976e-04
4.08025000000000e+00 5.54958085946374e-02 6.45442117894295e-04
4.50975000000000e+00 4.66773749324813e-02 5.70845328864729e-04
4.93925000000000e+00 3.92602141632364e-02 5.02551454909745e-04
5.36875000000000e+00 3.30216602448780e-02 4.40737738509277e-04
5.79825000000000e+00 2.77744293700070e-02 3.85279224530013e-04
6.22775000000000e+00 2.33609976333386e-02 3.35868087450072e-04
6.65725000000000e+00 1.96488721029921e-02 2.92092926525915e-04
7.08675000000000e+00 1.65266133313059e-02 2.53491466477266e-04
7.51625000000000e+00 1.39004898994129e-02 2.19585295971790e-04
7.94575000000000e+00 1.16916645637048e-02 1.89902346641241e-04
8.37525000000000e+00 9.83382753121271e-03 1.63990960917482e-04
8.80475000000000e+00 8.27120581391310e-03 1.41428187067291e-04
9.23425000000000e+00 6.95688890200346e-03 1.21824131043360e-04
9.66375000000000e+00 5.85142049221017e-03 1.04823643600861e-04
1.00932500000000e+01 4.92161399426643e-03 9.01062397379048e-05
1.05227500000000e+01 4.13955625660566e-03 7.73848804745325e-05
1.09522500000000e+01 3.48176960272911e-03 6.64040583475723e-05
1.13817500000000e+01 2.92850702225479e-03 5.69374939196333e-05
1.18112500000000e+01 2.46315935800961e-03 4.87856549408148e-05
1.22407500000000e+01 2.07175669269147e-03 4.17732414547980e-05
1.26702500000000e+01 1.74254896653550e-03 3.57467313544117e-05
1.30997500000000e+01 1.46565323596430e-03 3.05720461894038e-05
1.35292500000000e+01 1.23275698378996e-03 2.61323725044923e-05
1.39587500000000e+01 1.03686857422524e-03 2.23261568293806e-05
1.43882500000000e+01 8.72107361266485e-04 1.90652806208978e-05
1.48177500000000e+01 7.33527149420548e-04 1.62734134917042e-05
1.52472500000000e+01 6.16967706998430e-04 1.38845378705073e-05
1.56767500000000e+01 5.18929874346977e-04 1.18416350357521e-05
1.61062500000000e+01 4.36470517719421e-04 1.00955206701469e-05
1.65357500000000e+01 3.67114175259217e-04 8.60381727417623e-06
1.69652500000000e+01 3.08778742675335e-04 7.33005064409832e-06
1.73947500000000e+01 2.59712967664183e-04 6.24285793918999e-06
1.78242500000000e+01 2.18443876636477e-04 5.31529547173024e-06
1.82537500000000e+01 1.83732555478988e-04 4.52423513487447e-06
1.86832500000000e+01 1.54536956872530e-04 3.84983925554088e-06
1.91127500000000e+01 1.29980617627415e-04 3.27510456403748e-06
1.95422500000000e+01 1.09326346918686e-04 2.78546687005207e-06
1.99717500000000e+01 9.19540955317330e-05 2.36845889982631e-06
2.04012500000000e+01 7.73423417444658e-05 2.01341456554451e-06
2.08307500000000e+01 6.50524350430202e-05 1.71121369584514e-06
2.12602500000000e+01 5.47154276632589e-05 1.45406195148731e-06
2.16897500000000e+01 4.60209986358463e-05 1.23530128157338e-06
2.21192500000000e+01 3.87081378304340e-05 1.04924684465689e-06
2.25487500000000e+01 3.25573103303504e-05 8.91046828372339e-07
2.29782500000000e+01 2.73838659092853e-05 7.56562054652838e-07
2.34077500000000e+01 2.30324957599053e-05 6.42262659397485e-07
2.38372500000000e+01 1.93725700632421e-05 5.45139490062190e-07
2.42667500000000e+01 1.62942164308800e-05 4.62628176525536e-07
2.46962500000000e+01 1.37050214932571e-05 3.92544104038802e-07
2.51257500000000e+01 1.15272566144804e-05 3.33026756194785e-07
2.55552500000000e+01 9.69554444854098e-06 2.82492104455445e-07
2.59847500000000e+01 8.15489628603801e-06 2.39591902371498e-07
2.64142500000000e+01 6.85906127180348e-06 2.03178900403838e-07
2.68437500000000e+01 5.76913793629760e-06 1.72277134104634e-07
2.72732500000000e+01 4.85240635841075e-06 1.46056556925955e-07
2.77027500000000e+01 4.08134590074577e-06 1.23811391407668e-07
2.81322500000000e+01 3.43280902941317e-06 1.04941661006425e-07
2.85617500000000e+01 2.88732641608919e-06 8.89374411785107e-08
2.89912500000000e+01 2.42852246123099e-06 7.53654341195870e-08
2.94207500000000e+01 2.04262369222935e-06 6.38575281976969e-08
2.98502500000000e+01 1.71804527842075e-06 5.41010518214553e-08
3.02797500000000e+01 1.44504324997931e-06 4.58304733367361e-08
3.07092500000000e+01 1.21542198016471e-06 3.88203344781901e-08
3.11387500000000e+01 1.02228814942988e-06 3.28792357304684e-08
3.15682500000000e+01 8.59843805295634e-07 2.78447183847855e-08
3.19977500000000e+01 7.23212305569218e-07 2.35789107220299e-08
3.24272500000000e+01 6.08291919655004e-07 1.99648251442395e-08
3.28567500000000e+01 5.11632693011686e-07 1.69032096702460e-08
3.32862500000000e+01 4.30332878179368e-07 1.43098714043280e-08
3.37157500000000e+01 3.61951823195764e-07 1.21134017200321e-08
3.41452500000000e+01 3.04436702278025e-07 1.02532432688449e-08
3.45747500000000e+01 2.56060889196823e-07 8.67804777810381e-09
3.50042500000000e+01 2.15372123287517e-07 7.34428116192111e-09
3.54337500000000e+01 1.81148912021933e-07 6.21503891982822e-09
3.58632500000000e+01 1.52363861329086e-07 5.25904030074086e-09
3.62927500000000e+01 1.28152832826830e-07 4.44977440230283e-09
3.67222500000000e+01 1.07789002052591e-07 3.76477537565123e-09
3.71517500000000e+01 9.06610389111976e-08 3.18500731421527e-09
3.75812500000000e+01 7.62547553084067e-08 2.69434230884007e-09
3.80107500000000e+01 6.41376690249553e-08 2.27911762435466e-09
3.84402500000000e+01 5.39460204326588e-08 1.92776005800352e-09
3.88697500000000e+01 4.53738522893392e-08 1.63046733206363e-09
3.92992500000000e+01 3.81638247837904e-08 1.37893789772391e-09
3.97287500000000e+01 3.20994900948726e-08 1.16614182441260e-09
4.01582500000000e+01 2.69987945440013e-08 9.86126551939188e-10
4.05877500000000e+01 2.27086132731321e-08 8.33852220848240e-10
4.10172500000000e+01 1.91001533771532e-08 7.05052093807476e-10
4.14467500000000e+01 1.60650874909394e-08 5.96114258602838e-10
4.18762500000000e+01 1.35123017598514e-08 5.03981379230566e-10
4.23057500000000e+01 1.13651605664929e-08 4.26065750864005e-10
4.27352500000000e+01 9.55920589976417e-09 3.60177330082353e-10
4.31647500000000e+01 8.04022230037740e-09 3.04462764709606e-10
4.35942500000000e+01 6.76260929174890e-09 2.57353747314824e-10
4.40237500000000e+01 5.68801243601211e-09 2.17523270862138e-10
4.44532500000000e+01 4.78417191892235e-09 1.83848580971585e-10
4.48827500000000e+01 4.02395409772561e-09 1.55379802545524e-10
4.53122500000000e+01 3.38453693868302e-09 1.31313374050776e-10
4.57417500000000e+01 2.84672489076960e-09 1.10969554707782e-10
4.61712500000000e+01 2.39437262779012e-09 9.37733817819176e-11
4.66007500000000e+01 2.01390035942696e-09 7.92385501218701e-11
4.70302500000000e+01 1.69388616066970e-09 6.69537666145954e-11
4.74597500000000e+01 1.42472308119791e-09 5.65712005083802e-11
4.78892500000000e+01 1.19833074100773e-09 4.77967084489599e-11
4.83187500000000e+01 1.00791275427134e-09 4.03815621529163e-11
4.87482500000000e+01 8.47752699199328e-10 3.41154482446917e-11
4.91777500000000e+01 7.13042508842261e-10 2.88205450435465e-11
4.96072500000000e+01 5.99738131056685e-10 2.43465109681209e-11
5.00367500000000e+01 5.04438124491867e-10 2.05662445466469e-11
5.04662500000000e+01 4.24281546001653e-10 1.73722974741676e-11
5.08957500000000e+01 3.56862064021997e-10 1.46738403330833e-11
5.13252500000000e+01 3.00155719564441e-10 1.23940959893795e-11
5.17547500000000e+01 2.52460166182568e-10 1.04681687176239e-11
5.21842500000000e+01 2.12343564871654e-10 8.84120815250590e-12
5.26137500000000e+01 1.78601599706606e-10 7.46685651798892e-12
5.30432500000000e+01 1.50221323810962e-10 6.30593550535972e-12
5.34727500000000e+01 1.26350750298925e-10 5.32533587756581e-12
5.39022500000000e+01 1.06273275298725e-10 4.49707855486459e-12
5.43317500000000e+01 8.93861652265523e-11 3.79752074329056e-12
5.47612500000000e+01 7.51824624906840e-11 3.20668473611572e-12
5.51907500000000e+01 6.32357664280250e-11 2.70769046231483e-12
5.56202500000000e+01 5.31874325908815e-11 2.28627577078316e-12
5.60497500000000e+01 4.47358061015900e-11 1.93039090579099e-12
5.64792500000000e+01 3.76271658561342e-11 1.62985571660131e-12
5.69087500000000e+01 3.16481077182314e-11 1.37606991051835e-12
5.73382500000000e+01 2.66191380444215e-11 1.16176815316278e-12
5.77677500000000e+01 2.23892852152983e-11 9.80813084225374e-13
5.81972500000000e+01 1.88315674089615e-11 8.28020386681039e-13
5.86267500000000e+01 1.58391805574904e-11 6.99010952376397e-13
5.90562500000000e+01 1.33222920474159e-11 5.90085952376792e-13
5.94857500000000e+01 1.12053439098342e-11 4.98121267922958e-13
5.99152500000000e+01 9.42478454088637e-12 4.20478285462914e-13
6.03447500000000e+01 7.92716085797005e-12 3.54928522361058e-13
6.07742500000000e+01 6.66751361747550e-12 2.99589941553286e-13
6.12037500000000e+01 5.60802772086112e-12 2.52873144623897e-13
6.16332500000000e+01 4.71689699073379e-12 2.13435912844225e-13
6.20627500000000e+01 3.96736933707187e-12 1.80144802518330e-13
6.24922500000000e+01 3.33694364911062e-12 1.52042701198609e-13
6.29217500000000e+01 2.80669430327303e-12 1.28321420607842e-13
6.33512500000000e+01 2.36070300861233e-12 1.08298545208970e-13
6.37807500000000e+01 1.98558093354608e-12 9.13978763392084e-14
6.42102500000000e+01 1.67006676794097e-12 7.71329140877969e-14
6.46397500000000e+01 1.40468865421650e-12 6.50929055371584e-14
6.50692500000000e+01 1.18147983850806e-12 5.49310610498347e-14
6.54987500000000e+01 9.93739505627048e-13 4.63546020359267e-14
6.59282500000000e+01 8.35831617990960e-13 3.91163558262268e-14
6.63577500000000e+01 7.03015719589976e-13 3.30076573834121e-14
6.67872500000000e+01 5.91304625659611e-13 2.78523548578424e-14
6.72167500000000e+01 4.97344725848201e-13 2.35017474928416e-14
6.76462500000000e+01 4.18315307533908e-13 1.98303110007065e-14
6.80757500000000e+01 3.51843876938181e-13 1.67320880207735e-14
6.85052500000000e+01 2.95934935942681e-13 1.41176402736034e-14
6.89347500000000e+01 2.48910076462084e-13 1.19114750808024e-14
6.93642500000000e+01 2.09357593982620e-13 1.00498724847617e-14
6.97937500000000e+01 1.76090107645233e-13 8.47905066260241e-15
7.02232500000000e+01 1.48108914611829e-13 7.15361701005723e-15
7.06527500000000e+01 1.24574008618864e-13 6.03526044963269e-15
7.10822500000000e+01 1.04778862663635e-13 5.09164742618821e-15
7.15117500000000e+01 8.81292187897243e-14 4.29548988898960e-15
7.19412500000000e+01 7.41252482327494e-14 3.62375848876777e-15
7.23707500000000e+01 6.23465463670644e-14 3.05701838198421e-15
7.28002500000000e+01 5.24395119959025e-14 2.57886855121945e-15
7.32297500000000e+01 4.41067321063526e-14 2.17546852078067e-15
7.36592500000000e+01 3.70980534154011e-14 1.83513885512395e-15
7.40887500000000e+01 3.12030726713877e-14 1.54802394619653e-15
7.45182500000000e+01 2.62448202668150e-14 1.30580738489777e-15
7.49477500000000e+01 2.20744475421174e-14 1.10147172270760e-15
7.53772500000000e+01 1.85667582911905e-14 9.29095705370826e-16
7.58067500000000e+01 1.56164503227438e-14 7.83683137876707e-16
7.62362500000000e+01 1.31349542476911e-14 6.61018449687047e-16
7.66657500000000e+01 1.10477745917502e-14 5.57544797304918e-16
7.70952500000000e+01 9.29225341242247e-15 4.70261189852532e-16
7.75247500000000e+01 7.81568928326572e-15 3.96635670935375e-16
7.79542500000000e+01 6.57375517663910e-15 3.34532052415155e-16
7.83837500000000e+01 5.52916774914734e-15 2.82148086060927e-16
7.88132500000000e+01 4.65056808121675e-15 2.37963288598637e-16
7.92427500000000e+01 3.91158027017126e-15 2.00694913895465e-16
7.96722500000000e+01 3.29001961540792e-15 1.69260800886833e-16
8.01017500000000e+01 2.76722662508342e-15 1.42748024128384e-16
8.05312500000000e+01 2.32750685093441e-15 1.20386441230588e-16
8.09607500000000e+01 1.95765973485577e-15 1.01526372721578e-16
8.13902500000000e+01 1.64658232302817e-15 8.56197691473044e-17
8.18197500000000e+01 1.38493595093971e-15 7.22043208877804e-17
8.22492500000000e+01 1.16486589305651e-15 6.08900511409118e-17
8.26787500000000e+01 9.79765560916836e-16 5.13480042468388e-17
8.31082500000000e+01 8.24078170784005e-16 4.33007020609962e-17
8.35377500000000e+01 6.93129926844157e-16 3.65140921765957e-17
8.39672500000000e+01 5.82989712043847e-16 3.07907549189340e-17
8.43967500000000e+01 4.90351074431944e-16 2.59641724274653e-17
8.48262500000000e+01 4.12432966190110e-16 2.18938938560219e-17
8.52557500000000e+01 3.46896255499040e-16 1.84614566425382e-17
8.56852500000000e+01 2.91773504894335e-16 1.69105083691376e-17
