Energy (eV)          EEDF (eV^-(3/2))     First Anisotropy
2.18644067796610e-03 1.73804304809327e+00 8.34939959191949e-04
6.55932203389831e-03 1.72791594944015e+00 1.37934354923915e-03
1.09322033898305e-02 1.71784785861482e+00 1.82253397754922e-03
1.53050847457627e-02 1.70783843174969e+00 2.16023192689824e-03
1.96779661016949e-02 1.69788732710319e+00 2.44270750252633e-03
2.40508474576271e-02 1.68799420478381e+00 2.68893812501982e-03
2.84237288135593e-02 1.67815872698794e+00 2.90873038848293e-03
3.27966101694915e-02 1.66838055780062e+00 3.10799782735851e-03
3.71694915254237e-02 1.65865936332931e+00 3.29065691183089e-03
4.15423728813559e-02 1.64899481157260e+00 3.45947186979047e-03
4.59152542372881e-02 1.63938657248985e+00 3.61648607892149e-03
5.02881355932203e-02 1.62983431798468e+00 3.76326433614191e-03
5.46610169491525e-02 1.62033772183025e+00 3.90103882930272e-03
5.90338983050847e-02 1.61089645973821e+00 4.03080203751423e-03
6.34067796610169e-02 1.60151020927602e+00 4.15336848906247e-03
6.77796610169492e-02 1.59217864992050e+00 4.26941730929830e-03
7.21525423728814e-02 1.58290146298815e+00 4.37952242630452e-03
7.65254237288136e-02 1.57367833166611e+00 4.48417455554806e-03
8.08983050847458e-02 1.56450894099956e+00 4.58379757283667e-03
8.52711864406780e-02 1.55539297784478e+00 4.67876091925008e-03
8.96440677966102e-02 1.54633013090508e+00 4.76938917227481e-03
9.40169491525424e-02 1.53732009067672e+00 4.85596953584799e-03
9.83898305084746e-02 1.52836254947893e+00 4.93875777663520e-03
1.02762711864407e-01 1.51945720142193e+00 5.01798300446239e-03
1.07135593220339e-01 1.51060374232414e+00 5.09385150376436e-03
1.11508474576271e-01 1.50180186992686e+00 5.16654992084711e-03
1.15881355932203e-01 1.49305128364479e+00 5.23624790772288e-03
1.20254237288136e-01 1.48435168457465e+00 5.30310023591206e-03
1.24627118644068e-01 1.47570277570081e+00 5.36724865759892e-03
1.29000000000000e-01 1.46710426166223e+00 5.42882347940156e-03
1.33372881355932e-01 1.45855584875801e+00 5.48794481388173e-03
1.37745762711864e-01 1.45005724512653e+00 5.54472373348882e-03
1.42118644067797e-01 1.44160816054032e+00 5.59926326386680e-03
1.46491525423729e-01 1.43320830640864e+00 5.65165916169100e-03
1.50864406779661e-01 1.42485739593586e+00 5.70200066846601e-03
1.55237288135593e-01 1.41655514393881e+00 5.75037116905974e-03
1.59610169491525e-01 1.40830126684691e+00 5.79684869282304e-03
1.63983050847458e-01 1.40009548284363e+00 5.84150643599473e-03
1.68355932203390e-01 1.39193751165506e+00 5.88441318410366e-03
1.72728813559322e-01 1.38382707473742e+00 5.92563368433296e-03
1.77101694915254e-01 1.37576389512012e+00 5.96522901752136e-03
1.81474576271186e-01 1.36774769740383e+00 6.00325685177703e-03
1.85847457627119e-01 1.35977820788177e+00 6.03977173762720e-03
1.90220338983051e-01 1.35185515439682e+00 6.07482537339314e-03
1.94593220338983e-01 1.34397826633887e+00 6.10846677751542e-03
1.98966101694915e-01 1.33614727475467e+00 6.14074250872015e-03
2.03338983050847e-01 1.32836191221690e+00 6.17169686546695e-03
2.07711864406780e-01 1.32062191282096e+00 6.20137200380951e-03
2.12084745762712e-01 1.31292701228490e+00 6.22980810592147e-03
2.16457627118644e-01 1.30527694782912e+00 6.25704353385944e-03
2.20830508474576e-01 1.29767145817230e+00 6.28311491002493e-03
2.25203389830508e-01 1.29011028362301e+00 6.30805725555714e-03
2.29576271186441e-01 1.28259316593671e+00 6.33190408592743e-03
2.33949152542373e-01 1.27511984843856e+00 6.35468749729948e-03
2.38322033898305e-01 1.26769007591616e+00 6.37643827838222e-03
2.42694915254237e-01 1.26030359461479e+00 6.39718595098447e-03
2.47067796610169e-01 1.25296015231841e+00 6.41695886226047e-03
2.51440677966102e-01 1.24565949824987e+00 6.43578427021175e-03
2.55813559322034e-01 1.23840138306598e+00 6.45368836926249e-03
2.60186440677966e-01 1.23118555893226e+00 6.47069636641408e-03
2.64559322033898e-01 1.22401177942970e+00 6.48683255206334e-03
2.68932203389830e-01 1.21687979954979e+00 6.50212031467733e-03
2.73305084745763e-01 1.20978937576359e+00 6.51658220464884e-03
2.77677966101695e-01 1.20274026593462e+00 6.53023999390655e-03
2.82050847457627e-01 1.19573222931348e+00 6.54311468257244e-03
2.86423728813559e-01 1.18876502660213e+00 6.55522655323925e-03
2.90796610169492e-01 1.18183841987213e+00 6.56659522189467e-03
2.95169491525424e-01 1.17495217255909e+00 6.57723963862793e-03
2.99542372881356e-01 1.16810604952245e+00 6.58717813940205e-03
3.03915254237288e-01 1.16129981694702e+00 6.59642846995531e-03
3.08288135593220e-01 1.15453324242404e+00 6.60500780728025e-03
3.12661016949153e-01 1.14780609487651e+00 6.61293280535147e-03
3.17033898305085e-01 1.14111814455358e+00 6.62021958874940e-03
3.21406779661017e-01 1.13446916308446e+00 6.62688379029930e-03
3.25779661016949e-01 1.12785892340795e+00 6.63294058662336e-03
3.30152542372881e-01 1.12128719976680e+00 6.63840468907021e-03
3.34525423728814e-01 1.11475376775810e+00 6.64329037712627e-03
3.38898305084746e-01 1.10825840426667e+00 6.64761153003695e-03
3.43271186440678e-01 1.10180088745938e+00 6.65138161573598e-03
3.47644067796610e-01 1.09538099683231e+00 6.65461372074339e-03
3.52016949152542e-01 1.08899851314775e+00 6.65732057856140e-03
3.56389830508475e-01 1.08265321842839e+00 6.65951455712490e-03
3.60762711864407e-01 1.07634489600163e+00 6.66120768999459e-03
3.65135593220339e-01 1.07007333042321e+00 6.66241168511516e-03
3.69508474576271e-01 1.06383830753790e+00 6.66313793237170e-03
3.73881355932203e-01 1.05763961442121e+00 6.66339753230517e-03
3.78254237288136e-01 1.05147703937360e+00 6.66320128170575e-03
3.82627118644068e-01 1.04535037196092e+00 6.66255969684306e-03
3.87000000000000e-01 1.03925940295901e+00 6.66148303562537e-03
3.91372881355932e-01 1.03320392434792e+00 6.65998128261015e-03
3.95745762711864e-01 1.02718372934998e+00 6.65806417036135e-03
4.00118644067797e-01 1.02119861237705e+00 6.65574119983475e-03
4.04491525423729e-01 1.01524836902477e+00 6.65302162500560e-03
4.08864406779661e-01 1.00933279610845e+00 6.64991447259339e-03
4.13237288135593e-01 1.00345169161278e+00 6.64642856093296e-03
4.17610169491525e-01 9.97604854686129e-01 6.64257248437408e-03
4.21983050847458e-01 9.91792085674374e-01 6.63835463518379e-03
4.26355932203390e-01 9.86013186059850e-01 6.63378320665542e-03
4.30728813559322e-01 9.80267958508142e-01 6.62886619546315e-03
4.35101694915254e-01 9.74556206821208e-01 6.62361142231620e-03
4.39474576271186e-01 9.68877735931747e-01 6.61802651606203e-03
4.43847457627119e-01 9.63232351934315e-01 6.61211893009709e-03
4.48220338983051e-01 9.57619862040503e-01 6.60589595812602e-03
4.52593220338983e-01 9.52040074573380e-01 6.59936471831658e-03
4.56966101694915e-01 9.46492798996911e-01 6.59253216871071e-03
4.61338983050847e-01 9.40977845873070e-01 6.58540512201769e-03
4.65711864406780e-01 9.35495026856344e-01 6.57799022988641e-03
4.70084745762712e-01 9.30044154721576e-01 6.57029399741273e-03
4.74457627118644e-01 9.24625043322912e-01 6.56232279708399e-03
4.78830508474576e-01 9.19237507588327e-01 6.55408285321513e-03
4.83203389830508e-01 9.13881363546029e-01 6.54558025874146e-03
4.87576271186441e-01 9.08556428274563e-01 6.53682097596216e-03
4.91949152542373e-01 9.03262519939663e-01 6.52781083673445e-03
4.96322033898305e-01 8.97999457755764e-01 6.51855555853776e-03
5.00694915254237e-01 8.92767061980614e-01 6.50906072912669e-03
5.05067796610169e-01 8.87565153939669e-01 6.49933181910403e-03
5.09440677966102e-01 8.82393555989150e-01 6.48937419405370e-03
5.13813559322034e-01 8.77252091510736e-01 6.47919309944363e-03
5.18186440677966e-01 8.72140584934714e-01 6.46879367258743e-03
5.22559322033898e-01 8.67058861704491e-01 6.45818095417287e-03
5.26932203389830e-01 8.62006748271366e-01 6.44735987343415e-03
5.31305084745763e-01 8.56984072116516e-01 6.43633525954608e-03
5.35677966101695e-01 8.51990661716893e-01 6.42511185261178e-03
5.40050847457627e-01 8.47026346540052e-01 6.41369428911718e-03
5.44423728813559e-01 8.42090957065048e-01 6.40208711279158e-03
5.48796610169492e-01 8.37184324749666e-01 6.39029478510828e-03
5.53169491525424e-01 8.32306282025279e-01 6.37832167102869e-03
5.57542372881356e-01 8.27456662316743e-01 6.36617205199036e-03
5.61915254237288e-01 8.22635300002581e-01 6.35385012546700e-03
5.66288135593220e-01 8.17842030443084e-01 6.34136000411654e-03
5.70661016949152e-01 8.13076689949396e-01 6.32870572833299e-03
5.75033898305085e-01 8.08339115778499e-01 6.31589125238561e-03
5.79406779661017e-01 8.03629146151684e-01 6.30292045412706e-03
5.83779661016949e-01 7.98946620224762e-01 6.28979714438063e-03
5.88152542372881e-01 7.94291378083138e-01 6.27652505338433e-03
5.92525423728814e-01 7.89663260759390e-01 6.26310784010705e-03
5.96898305084746e-01 7.85062110204569e-01 6.24954910125632e-03
6.01271186440678e-01 7.80487769283335e-01 6.23585235802666e-03
6.05644067796610e-01 7.75940081790706e-01 6.22202106504138e-03
6.10016949152542e-01 7.71418892424400e-01 6.20805861901576e-03
6.14389830508475e-01 7.66924046780018e-01 6.19396834580531e-03
6.18762711864407e-01 7.62455391367023e-01 6.17975351128681e-03
6.23135593220339e-01 7.58012773575181e-01 6.16541732051906e-03
6.27508474576271e-01 7.53596041697374e-01 6.15096291656146e-03
6.31881355932203e-01 7.49205044903423e-01 6.13639339104377e-03
6.36254237288136e-01 7.44839633235385e-01 6.12171177163206e-03
6.40627118644068e-01 7.40499657622442e-01 6.10692103013601e-03
6.45000000000000e-01 7.36184969855616e-01 6.09202409036974e-03
6.49372881355932e-01 7.31895422583159e-01 6.07702381591616e-03
6.53745762711864e-01 7.27630869324739e-01 6.06192301794380e-03
6.58118644067797e-01 7.23391164447036e-01 6.04672446278385e-03
6.62491525423729e-01 7.19176163159188e-01 6.03143085998600e-03
6.66864406779661e-01 7.14985721526342e-01 6.01604486985551e-03
6.71237288135593e-01 7.10819696446076e-01 6.00056911077075e-03
6.75610169491525e-01 7.06677945643902e-01 5.98500614752300e-03
6.79983050847458e-01 7.02560327686214e-01 5.96935850060136e-03
6.84355932203390e-01 6.98466701951730e-01 5.95362864519400e-03
6.88728813559322e-01 6.94396928650184e-01 5.93781900989457e-03
6.93101694915254e-01 6.90350868799947e-01 5.92193198575338e-03
6.97474576271186e-01 6.86328384223645e-01 5.90596991501966e-03
7.01847457627119e-01 6.82329337560244e-01 5.88993509804125e-03
7.06220338983051e-01 6.78353592243412e-01 5.87382979996905e-03
7.10593220338983e-01 6.74401012497201e-01 5.85765623977283e-03
7.14966101694915e-01 6.70471463347604e-01 5.84141659691715e-03
7.19338983050847e-01 6.66564810601609e-01 5.82511301784380e-03
7.23711864406780e-01 6.62680920842957e-01 5.80874760525447e-03
7.28084745762712e-01 6.58819661443186e-01 5.79232242456889e-03
7.32457627118644e-01 6.54980900541363e-01 5.77583951020089e-03
7.36830508474576e-01 6.51164507039904e-01 5.75930085510185e-03
7.41203389830508e-01 6.47370350615133e-01 5.74270841878781e-03
7.45576271186441e-01 6.43598301692789e-01 5.72606412629486e-03
7.49949152542373e-01 6.39848231463453e-01 5.70936986688210e-03
7.54322033898305e-01 6.36120011863279e-01 5.69262750187497e-03
7.58694915254237e-01 6.32413515569903e-01 5.67583885457848e-03
7.63067796610169e-01 6.28728616012339e-01 5.65900571622714e-03
7.67440677966102e-01 6.25065187352298e-01 5.64212985177826e-03
7.71813559322034e-01 6.21423104480178e-01 5.62521299007154e-03
7.76186440677966e-01 6.17802243024523e-01 5.60825682959910e-03
7.80559322033898e-01 6.14202479333930e-01 5.59126304411772e-03
7.84932203389830e-01 6.10623690473095e-01 5.57423327304976e-03
7.89305084745763e-01 6.07065754231876e-01 5.55716912707942e-03
7.93677966101695e-01 6.03528549107749e-01 5.54007219359599e-03
7.98050847457627e-01 6.00011954301922e-01 5.52294402732946e-03
8.02423728813559e-01 5.96515849728005e-01 5.50578615577473e-03
8.06796610169492e-01 5.93040115995013e-01 5.48860008447738e-03
8.11169491525424e-01 5.89584634403528e-01 5.47138728789728e-03
8.15542372881356e-01 5.86149286954013e-01 5.45414921620357e-03
8.19915254237288e-01 5.82733956326305e-01 5.43688729425903e-03
8.24288135593220e-01 5.79338525891933e-01 5.41960292038942e-03
8.28661016949153e-01 5.75962879697908e-01 5.40229747303903e-03
8.33033898305085e-01 5.72606902462985e-01 5.38497230196131e-03
8.37406779661017e-01 5.69270479585460e-01 5.36762873325008e-03
8.41779661016949e-01 5.65953497127430e-01 5.35026807423991e-03
8.46152542372881e-01 5.62655841811135e-01 5.33289160491182e-03
8.50525423728814e-01 5.59377401026413e-01 5.31550058278145e-03
8.54898305084746e-01 5.56118062815439e-01 5.29809624765878e-03
8.59271186440678e-01 5.52877715869109e-01 5.28067981326294e-03
8.63644067796610e-01 5.49656249534201e-01 5.26325247196823e-03
8.68016949152542e-01 5.46453553798552e-01 5.24581539943224e-03
8.72389830508475e-01 5.43269519287504e-01 5.22836974641380e-03
8.76762711864407e-01 5.40104037270765e-01 5.21091664474657e-03
8.81135593220339e-01 5.36956999644577e-01 5.19345720637412e-03
8.85508474576271e-01 5.33828298942018e-01 5.17599252219532e-03
8.89881355932203e-01 5.30717828318845e-01 5.15852366792308e-03
8.94254237288136e-01 5.27625481550039e-01 5.14105169619550e-03
8.98627118644068e-01 5.24551153036241e-01 5.12357764099147e-03
9.03000000000000e-01 5.21494737790003e-01 5.10610252193880e-03
9.07372881355932e-01 5.18456131432391e-01 5.08862733661538e-03
9.11745762711864e-01 5.15435230199156e-01 5.07115306484436e-03
9.16118644067797e-01 5.12431930927377e-01 5.05368067288363e-03
9.20491525423729e-01 5.09446131052121e-01 5.03621110591253e-03
9.24864406779661e-01 5.06477728612356e-01 5.01874529220882e-03
9.29237288135593e-01 5.03526622237986e-01 5.00128414722537e-03
9.33610169491525e-01 5.00592711146547e-01 4.98382856625759e-03
9.37983050847458e-01 4.97675895148896e-01 4.96637942971993e-03
9.42355932203390e-01 4.94776074633629e-01 4.94893760224507e-03
9.46728813559322e-01 4.91893150575731e-01 4.93150393161339e-03
9.51101694915254e-01 4.89027024524168e-01 4.91407925393234e-03
9.55474576271186e-01 4.86177598598679e-01 4.89666438656818e-03
9.59847457627119e-01 4.83344775495115e-01 4.87926013204200e-03
9.64220338983051e-01 4.80528458473374e-01 4.86186728183288e-03
9.68593220338983e-01 4.77728551354251e-01 4.84448660947844e-03
9.72966101694915e-01 4.74944958524559e-01 4.82711887436825e-03
9.77338983050847e-01 4.72177584925395e-01 4.80976482544574e-03
9.81711864406780e-01 4.69426336049046e-01 4.79242519447311e-03
9.86084745762712e-01 4.66691117943901e-01 4.77510069972422e-03
9.90457627118644e-01 4.63971837203043e-01 4.75779204959060e-03
9.94830508474576e-01 4.61268400961199e-01 4.74049993600518e-03
9.99203389830508e-01 4.58580716899461e-01 4.72322503803718e-03
1.00357627118644e+00 4.55908693234186e-01 4.70596802325783e-03
1.00794915254237e+00 4.53252238719070e-01 4.68872954673058e-03
1.01232203389830e+00 4.50611262636888e-01 4.67151025232982e-03
1.01669491525424e+00 4.47985674799003e-01 4.65431078124125e-03
1.02106779661017e+00 4.45375385517633e-01 4.63713174158053e-03
1.02544067796610e+00 4.42780305677151e-01 4.61997372977813e-03
1.02981355932203e+00 4.40200346656261e-01 4.60283735216639e-03
1.03418644067797e+00 4.37635420350041e-01 4.58572319293666e-03
1.03855932203390e+00 4.35085439166913e-01 4.56863182509391e-03
1.04293220338983e+00 4.32550316025691e-01 4.55156381062913e-03
1.04730508474576e+00 4.30029964352592e-01 4.53451971064989e-03
1.05167796610169e+00 4.27524298055295e-01 4.51750005556392e-03
1.05605084745763e+00 4.25033231589320e-01 4.50050536529985e-03
1.06042372881356e+00 4.22556679885404e-01 4.48353616972140e-03
1.06479661016949e+00 4.20094558369961e-01 4.46659297829839e-03
1.06916949152542e+00 4.17646782962181e-01 4.44967629047053e-03
1.07354237288136e+00 4.15213270071174e-01 4.43278659579381e-03
1.07791525423729e+00 4.12793936593123e-01 4.41592437410233e-03
1.08228813559322e+00 4.10388699908431e-01 4.39909010498759e-03
1.08666101694915e+00 4.07997477857697e-01 4.38228423981615e-03
1.09103389830508e+00 4.05620188802885e-01 4.36550722069137e-03
1.09540677966102e+00 4.03256751560203e-01 4.34875949960120e-03
1.09977966101695e+00 4.00907085418893e-01 4.33204150994786e-03
1.10415254237288e+00 3.98571110138470e-01 4.31535367625734e-03
1.10852542372881e+00 3.96248745945999e-01 4.29869641431816e-03
1.11289830508475e+00 3.93939913533364e-01 4.28207014015736e-03
1.11727118644068e+00 3.91644534034747e-01 4.26547524353315e-03
1.12164406779661e+00 3.89362529083685e-01 4.24891210588191e-03
1.12601694915254e+00 3.87093820750314e-01 4.23238111844065e-03
1.13038983050847e+00 3.84838331558850e-01 4.21588265528473e-03
1.13476271186441e+00 3.82595984484928e-01 4.19941708251433e-03
1.13913559322034e+00 3.80366702952991e-01 4.18298475837295e-03
1.14350847457627e+00 3.78150410833672e-01 4.16658604174708e-03
1.14788135593220e+00 3.75947032422680e-01 4.15022126705067e-03
1.15225423728814e+00 3.73756492494044e-01 4.13389076121651e-03
1.15662711864407e+00 3.71578716241410e-01 4.11759486085771e-03
1.16100000000000e+00 3.69413629294304e-01 4.10133388671895e-03
1.16537288135593e+00 3.67261157715578e-01 4.08510815237864e-03
1.16974576271186e+00 3.65121227998899e-01 4.06891796435059e-03
1.17411864406780e+00 3.62993767066242e-01 4.05276362219681e-03
1.17849152542373e+00 3.60878702265388e-01 4.03664542649873e-03
1.18286440677966e+00 3.58775961350311e-01 4.02056365525231e-03
1.18723728813559e+00 3.56685472530385e-01 4.00451857982763e-03
1.19161016949153e+00 3.54607164415978e-01 3.98851048108861e-03
1.19598305084746e+00 3.52540966033425e-01 3.97253962538150e-03
1.20035593220339e+00 3.50486806822595e-01 3.95660627269848e-03
1.20472881355932e+00 3.48444616634507e-01 3.94071067677422e-03
1.20910169491525e+00 3.46414325728916e-01 3.92485309264453e-03
1.21347457627119e+00 3.44395864755901e-01 3.90903375426234e-03
1.21784745762712e+00 3.42389164801856e-01 3.89325288962092e-03
1.22222033898305e+00 3.40394157338519e-01 3.87751073602927e-03
1.22659322033898e+00 3.38410774236924e-01 3.86180751734673e-03
1.23096610169492e+00 3.36438947765064e-01 3.84614345172000e-03
1.23533898305085e+00 3.34478610585595e-01 3.83051875166570e-03
1.23971186440678e+00 3.32529695753533e-01 3.81493363123209e-03
1.24408474576271e+00 3.30592136698947e-01 3.79938828477273e-03
1.24845762711864e+00 3.28665867269977e-01 3.78388290128080e-03
1.25283050847458e+00 3.26750821685042e-01 3.76841767887050e-03
1.25720338983051e+00 3.24846934545853e-01 3.75299280318361e-03
1.26157627118644e+00 3.22954140835176e-01 3.73760845472667e-03
1.26594915254237e+00 3.21072375914613e-01 3.72226480894239e-03
1.27032203389831e+00 3.19201575522402e-01 3.70696203628983e-03
1.27469491525424e+00 3.17341675771217e-01 3.69170030897344e-03
1.27906779661017e+00 3.15492613132055e-01 3.67647978096881e-03
1.28344067796610e+00 3.13654324474083e-01 3.66130060150367e-03
1.28781355932203e+00 3.11826747020241e-01 3.64616292867692e-03
1.29218644067797e+00 3.10009818359256e-01 3.63106690914424e-03
1.29655932203390e+00 3.08203476443497e-01 3.61601268500794e-03
1.30093220338983e+00 3.06407659586881e-01 3.60100039388567e-03
1.30530508474576e+00 3.04622306462751e-01 3.58603017529733e-03
1.30967796610169e+00 3.02847356088718e-01 3.57110215170739e-03
1.31405084745763e+00 3.01082747863981e-01 3.55621644131226e-03
1.31842372881356e+00 2.99328421527650e-01 3.54137317096011e-03
1.32279661016949e+00 2.97584317169958e-01 3.52657245687064e-03
1.32716949152542e+00 2.95850375230210e-01 3.51181441117427e-03
1.33154237288136e+00 2.94126536494758e-01 3.49709914197062e-03
1.33591525423729e+00 2.92412742094981e-01 3.48242675339515e-03
1.34028813559322e+00 2.90708933505267e-01 3.46779735162106e-03
1.34466101694915e+00 2.89015052528882e-01 3.45321102701100e-03
1.34903389830508e+00 2.87331041332579e-01 3.43866786615130e-03
1.35340677966102e+00 2.85656842407838e-01 3.42416796401343e-03
1.35777966101695e+00 2.83992398581218e-01 3.40971140579893e-03
1.36215254237288e+00 2.82337653012414e-01 3.39529827308932e-03
1.36652542372881e+00 2.80692549192315e-01 3.38092864390347e-03
1.37089830508475e+00 2.79057030941078e-01 3.36660259839699e-03
1.37527118644068e+00 2.77431042394806e-01 3.35232020191394e-03
1.37964406779661e+00 2.75814528038009e-01 3.33808151640911e-03
