Energy (eV)          EEDF (eV^-(3/2))     First Anisotropy
4.52500000000000e-02 3.64058944522862e-01 4.72160840183083e-04
1.35750000000000e-01 3.48663902698770e-01 7.65761011340571e-04
2.26250000000000e-01 3.33919874443605e-01 9.74697006989395e-04
3.16750000000000e-01 3.19799330201291e-01 1.11292930019535e-03
4.07250000000000e-01 3.06275904564248e-01 1.21230489642109e-03
4.97750000000000e-01 2.93324347044770e-01 1.28556606154585e-03
5.88250000000000e-01 2.80920474928163e-01 1.33964662721290e-03
6.78750000000000e-01 2.69041128119581e-01 1.37892514240201e-03
7.69250000000000e-01 2.57664125900282e-01 1.40642243397590e-03
8.59750000000000e-01 2.46768225512522e-01 1.42434823234561e-03
9.50250000000000e-01 2.36333082495799e-01 1.43438710405777e-03
1.04075000000000e+00 2.26339212700347e-01 1.43786295933131e-03
1.13125000000000e+00 2.16767955906992e-01 1.43584063966366e-03
1.22175000000000e+00 2.07601440985413e-01 1.42919219095274e-03
1.31225000000000e+00 1.98822552525761e-01 1.41864204051761e-03
1.40275000000000e+00 1.90414898881345e-01 1.40479892266118e-03
1.49325000000000e+00 1.82362781562696e-01 1.38817912834011e-03
1.58375000000000e+00 1.74651165925870e-01 1.36922387339079e-03
1.67425000000000e+00 1.67265653100267e-01 1.34831255944589e-03
1.76475000000000e+00 1.60192453103543e-01 1.32577309189454e-03
1.85525000000000e+00 1.53418359093411e-01 1.30189004132987e-03
1.94575000000000e+00 1.46930722708274e-01 1.27691119321827e-03
2.03625000000000e+00 1.40717430450622e-01 1.25105287159458e-03
2.12675000000000e+00 1.34766881069120e-01 1.22450431549793e-03
2.21725000000000e+00 1.29067963897133e-01 1.19743131311267e-03
2.30775000000000e+00 1.23610038107269e-01 1.16997924678244e-03
2.39825000000000e+00 1.18382912843176e-01 1.14227566503900e-03
2.48875000000000e+00 1.13376828191519e-01 1.11443247088821e-03
2.57925000000000e+00 1.08582436958597e-01 1.08654779576617e-03
2.66975000000000e+00 1.03990787217574e-01 1.05870761376100e-03
2.76025000000000e+00 9.95933055937423e-02 1.03098713948647e-03
2.85075000000000e+00 9.53817812566020e-02 1.00345204441557e-03
2.94125000000000e+00 9.13483505888765e-02 9.76159519847050e-04
3.03175000000000e+00 8.74854825038267e-02 9.49159209496311e-04
3.12225000000000e+00 8.37859643834595e-02 9.22494030616257e-04
3.21275000000000e+00 8.02428886113679e-02 8.96200899305549e-04
3.30325000000000e+00 7.68496396750615e-02 8.70311373057732e-04
3.39375000000000e+00 7.35998818137027e-02 8.44852221501728e-04
3.48425000000000e+00 7.04875471881862e-02 8.19845934573604e-04
3.57475000000000e+00 6.75068245514730e-02 7.95311175958576e-04
3.66525000000000e+00 6.46521483980244e-02 7.71263188487812e-04
3.75575000000000e+00 6.19181885720762e-02 7.47714157217667e-04
3.84625000000000e+00 5.92998403153505e-02 7.24673535120971e-04
3.93675000000000e+00 5.67922147356217e-02 7.02148335651349e-04
4.02725000000000e+00 5.43906296783406e-02 6.80143395878127e-04
4.11775000000000e+00 5.20906009842725e-02 6.58661613412443e-04
4.20825000000000e+00 4.98878341168245e-02 6.37704159939805e-04
4.29875000000000e+00 4.77782161434312e-02 6.17270673827910e-04
4.38925000000000e+00 4.57578080560241e-02 5.97359433981622e-04
4.47975000000000e+00 4.38228374162481e-02 5.77967516861343e-04
4.57025000000000e+00 4.19696913116904e-02 5.59090938360099e-04
4.66075000000000e+00 4.01949096099718e-02 5.40724782043112e-04
4.75125000000000e+00 3.84951784981029e-02 5.22863315086994e-04
4.84175000000000e+00 3.68673242950439e-02 5.05500093110176e-04
4.93225000000000e+00 3.53083075259130e-02 4.88628054958884e-04
5.02275000000000e+00 3.38152172467813e-02 4.72239608401166e-04
5.11325000000000e+00 3.23852656094551e-02 4.56326707582985e-04
5.20375000000000e+00 3.10157826560994e-02 4.40880923013517e-04
5.29425000000000e+00 2.97042113339822e-02 4.25893504769914e-04
5.38475000000000e+00 2.84481027210306e-02 4.11355439543543e-04
5.47525000000000e+00 2.72451114532860e-02 3.97257502089083e-04
5.56575000000000e+00 2.60929913457191e-02 3.83590301583869e-04
5.65625000000000e+00 2.49895911982278e-02 3.70344323356557e-04
5.74675000000000e+00 2.39328507789889e-02 3.57509966401141e-04
5.83725000000000e+00 2.29207969776621e-02 3.45077577053596e-04
5.92775000000000e+00 2.19515401212641e-02 3.33037479173804e-04
6.01825000000000e+00 2.10232704458351e-02 3.21380001144127e-04
6.10875000000000e+00 2.01342547173073e-02 3.10095499967938e-04
6.19925000000000e+00 1.92828329952689e-02 2.99174382726062e-04
6.28975000000000e+00 1.84674155335788e-02 2.88607125626167e-04
6.38025000000000e+00 1.76864798120454e-02 2.78384290859442e-04
6.47075000000000e+00 1.69385676936284e-02 2.68496541460140e-04
6.56125000000000e+00 1.62222827018539e-02 2.58934654346581e-04
6.65175000000000e+00 1.55362874133602e-02 2.49689531706720e-04
6.74225000000000e+00 1.48793009607057e-02 2.40752210877402e-04
6.83275000000000e+00 1.42500966407762e-02 2.32113872853663e-04
6.92325000000000e+00 1.36474996243257e-02 2.23765849552784e-04
7.01375000000000e+00 1.30703847623749e-02 2.15699629947223e-04
7.10425000000000e+00 1.25176744853703e-02 2.07906865170929e-04
7.19475000000000e+00 1.19883367911824e-02 2.00379372694668e-04
7.28525000000000e+00 1.14813833181865e-02 1.93109139657951e-04
7.37575000000000e+00 1.09958674998259e-02 1.86088325437815e-04
7.46625000000000e+00 1.05308827972156e-02 1.79309263527918e-04
7.55675000000000e+00 1.00855610064824e-02 1.72764462795288e-04
7.64725000000000e+00 9.65907063768414e-03 1.66446608176370e-04
7.73775000000000e+00 9.25061536227938e-03 1.60348560868880e-04
7.82825000000000e+00 8.85943252624938e-03 1.54463358071181e-04
7.91875000000000e+00 8.48479172609610e-03 1.48784212316567e-04
8.00925000000000e+00 8.12599344505717e-03 1.43304510445837e-04
8.09975000000000e+00 7.78236774699168e-03 1.38017812257871e-04
8.19025000000000e+00 7.45327302549778e-03 1.32917848874525e-04
8.28075000000000e+00 7.13809480592670e-03 1.27998520853106e-04
8.37125000000000e+00 6.83624459805627e-03 1.23253896076809e-04
8.46175000000000e+00 6.54715879728167e-03 1.18678207450886e-04
8.55225000000000e+00 6.27029763227175e-03 1.14265850429924e-04
8.64275000000000e+00 6.00514415712609e-03 1.10011380399383e-04
8.73325000000000e+00 5.75120328615093e-03 1.05909509932517e-04
8.82375000000000e+00 5.50800086945168e-03 1.01955105941936e-04
8.91425000000000e+00 5.27508280761619e-03 9.81431867433251e-05
9.00475000000000e+00 5.05201420383545e-03 9.44689190472844e-05
9.09525000000000e+00 4.83837855187887e-03 9.09276148937579e-05
9.18575000000000e+00 4.63377695840777e-03 8.75147285422221e-05
9.27625000000000e+00 4.43782739817509e-03 8.42258533295428e-05
9.36675000000000e+00 4.25016400072064e-03 8.10567185062874e-05
9.45725000000000e+00 4.07043636723002e-03 7.80031860612327e-05
9.54775000000000e+00 3.89830891628169e-03 7.50612475428586e-05
9.63825000000000e+00 3.73346025726056e-03 7.22270208857322e-05
9.72875000000000e+00 3.57558259026819e-03 6.94967472488731e-05
9.81925000000000e+00 3.42438113140915e-03 6.68667878724621e-05
9.90975000000000e+00 3.27957356238035e-03 6.43336209585563e-05
1.00002500000000e+01 3.14088950333579e-03 6.18938385808577e-05
1.00907500000000e+01 3.00807000804236e-03 5.95441436280066e-05
1.01812500000000e+01 2.88086708038407e-03 5.72813467843423e-05
1.02717500000000e+01 2.75904321131204e-03 5.51023635515893e-05
1.03622500000000e+01 2.64237093537554e-03 5.30042113144891e-05
1.04527500000000e+01 2.53063240600611e-03 5.09840064529913e-05
1.05432500000000e+01 2.42361898876174e-03 4.90389615032453e-05
1.06337500000000e+01 2.32113087177162e-03 4.71663823692980e-05
1.07242500000000e+01 2.22297669265411e-03 4.53636655870912e-05
1.08147500000000e+01 2.12897318121131e-03 4.36282956420806e-05
1.09052500000000e+01 2.03894481723307e-03 4.19578423415253e-05
1.09957500000000e+01 1.95272350277153e-03 4.03499582422789e-05
1.10862500000000e+01 1.87014824827426e-03 3.88023761346916e-05
1.11767500000000e+01 1.79106487198997e-03 3.73129065830449e-05
1.12672500000000e+01 1.71532571208547e-03 3.58794355227649e-05
1.13577500000000e+01 1.64278935093647e-03 3.44999219145025e-05
1.14482500000000e+01 1.57332035107733e-03 3.31723954550285e-05
1.15387500000000e+01 1.50678900231672e-03 3.18949543447612e-05
1.16292500000000e+01 1.44307107954711e-03 3.06657631116308e-05
1.17197500000000e+01 1.38204761079584e-03 2.94830504908818e-05
1.18102500000000e+01 1.32360465508458e-03 2.83451073603252e-05
1.19007500000000e+01 1.26763308968259e-03 2.72502847304661e-05
1.19912500000000e+01 1.21402840635639e-03 2.61969917888637e-05
1.20817500000000e+01 1.16269051623549e-03 2.51836939980181e-05
1.21722500000000e+01 1.11352356292979e-03 2.42089112460178e-05
1.22627500000000e+01 1.06643574354976e-03 2.32712160491393e-05
1.23532500000000e+01 1.02133913729516e-03 2.23692318055439e-05
1.24437500000000e+01 9.78149541292207e-04 2.15016310991842e-05
1.25342500000000e+01 9.36786313372867e-04 2.06671340529998e-05
1.26247500000000e+01 8.97172221502446e-04 1.98645067304593e-05
1.27152500000000e+01 8.59233299574536e-04 1.90925595844836e-05
1.28057500000000e+01 8.22898709303977e-04 1.83501459527710e-05
1.28962500000000e+01 7.88100607959980e-04 1.76361605985279e-05
1.29867500000000e+01 7.54774021692451e-04 1.69495382956069e-05
1.30772500000000e+01 7.22856724214994e-04 1.62892524570419e-05
1.31677500000000e+01 6.92289120618071e-04 1.56543138059720e-05
1.32582500000000e+01 6.63014136095382e-04 1.50437690879415e-05
1.33487500000000e+01 6.34977109375697e-04 1.44566998235690e-05
1.34392500000000e+01 6.08125690661159e-04 1.38922211005805e-05
1.35297500000000e+01 5.82409743881495e-04 1.33494804042087e-05
1.36202500000000e+01 5.57781253081622e-04 1.28276564849690e-05
1.37107500000000e+01 5.34194232767867e-04 1.23259582628299e-05
1.38012500000000e+01 5.11604642045385e-04 1.18436237668085e-05
1.38917500000000e+01 4.89970302386482e-04 1.13799191090335e-05
1.39822500000000e+01 4.69250818876275e-04 1.09341374923290e-05
1.40727500000000e+01 4.49407504788662e-04 1.05055982503889e-05
1.41632500000000e+01 4.30403309351758e-04 1.00936459196246e-05
1.42537500000000e+01 4.12202748567937e-04 9.69764934178506e-06
1.43442500000000e+01 3.94771838959301e-04 9.31700079646287e-06
1.44347500000000e+01 3.78078034114861e-04 8.95111516261864e-06
1.45252500000000e+01 3.62090163920976e-04 8.59942910827075e-06
1.46157500000000e+01 3.46778376361552e-04 8.26140030751571e-06
1.47062500000000e+01 3.32114081779364e-04 7.93650668406125e-06
1.47967500000000e+01 3.18069899494400e-04 7.62424568047272e-06
1.48872500000000e+01 3.04619606679574e-04 7.32413355235058e-06
1.49777500000000e+01 2.91738089398340e-04 7.03570468667406e-06
1.50682500000000e+01 2.79401295712791e-04 6.75851094356514e-06
1.51587500000000e+01 2.67586190774686e-04 6.49212102074398e-06
1.52492500000000e+01 2.56270713815550e-04 6.23611983996510e-06
1.53397500000000e+01 2.45433736955549e-04 5.99010795474107e-06
1.54302500000000e+01 2.35055025754217e-04 5.75370097867816e-06
1.55207500000000e+01 2.25115201429386e-04 5.52652903376635e-06
1.56112500000000e+01 2.15595704673777e-04 5.30823621798264e-06
1.57017500000000e+01 2.06478761001677e-04 5.09848009158400e-06
1.57922500000000e+01 1.97747347561016e-04 4.89693118148317e-06
1.58827500000000e+01 1.89385161348869e-04 4.70327250311739e-06
1.59732500000000e+01 1.81376588771035e-04 4.51719909923624e-06
1.60637500000000e+01 1.73706676488852e-04 4.33841759505080e-06
1.61542500000000e+01 1.66361103498829e-04 4.16664576920257e-06
1.62447500000000e+01 1.59326154392944e-04 4.00161214002615e-06
1.63352500000000e+01 1.52588693749696e-04 3.84305556659427e-06
1.64257500000000e+01 1.46136141608083e-04 3.69072486404978e-06
1.65162500000000e+01 1.39956449978720e-04 3.54437843274335e-06
1.66067500000000e+01 1.34038080348240e-04 3.40378390070965e-06
1.66972500000000e+01 1.28369982134964e-04 3.26871777902987e-06
1.67877500000000e+01 1.22941572055627e-04 3.13896512964099e-06
1.68782500000000e+01 1.17742714364623e-04 3.01431924516653e-06
1.69687500000000e+01 1.12763701928885e-04 2.89458134035646e-06
1.70592500000000e+01 1.07995238103045e-04 2.77956025473636e-06
1.71497500000000e+01 1.03428419371056e-04 2.66907216607887e-06
1.72402500000000e+01 9.90547187218385e-05 2.56294031432256e-06
1.73307500000000e+01 9.48659697279323e-05 2.46099473557500e-06
1.74212500000000e+01 9.08543512974194e-05 2.36307200584855e-06
1.75117500000000e+01 8.70123730706400e-05 2.26901499418887e-06
1.76022500000000e+01 8.33328614344449e-05 2.17867262486665e-06
1.76927500000000e+01 7.98089461278651e-05 2.09189964831420e-06
1.77832500000000e+01 7.64340474141897e-05 2.00855642049846e-06
1.78737500000000e+01 7.32018637955028e-05 1.92850869043246e-06
1.79642500000000e+01 7.01063602467368e-05 1.85162739553712e-06
1.80547500000000e+01 6.71417569472759e-05 1.77778846457420e-06
1.81452500000000e+01 6.43025184890682e-05 1.70687262788109e-06
1.82357500000000e+01 6.15833435410973e-05 1.63876523464715e-06
1.83262500000000e+01 5.89791549509148e-05 1.57335607697947e-06
1.84167500000000e+01 5.64850902647505e-05 1.51053922051479e-06
1.85072500000000e+01 5.40964926485017e-05 1.45021284134251e-06
1.85977500000000e+01 5.18089021926488e-05 1.39227906901170e-06
1.86882500000000e+01 4.96180475848612e-05 1.33664383540252e-06
1.87787500000000e+01 4.75198381347459e-05 1.28321672925021e-06
1.88692500000000e+01 4.55103561358473e-05 1.23191085611707e-06
1.89597500000000e+01 4.35858495506368e-05 1.18264270361442e-06
1.90502500000000e+01 4.17427250048344e-05 1.13533201168426e-06
1.91407500000000e+01 3.99775410779797e-05 1.08990164775590e-06
1.92312500000000e+01 3.82870018777274e-05 1.04627748659995e-06
1.93217500000000e+01 3.66679508858674e-05 1.00438829470801e-06
1.94122500000000e+01 3.51173650645791e-05 9.64165619032440e-07
1.95027500000000e+01 3.36323492119173e-05 9.25543679926110e-07
1.95932500000000e+01 3.22101305559870e-05 8.88459268128237e-07
1.96837500000000e+01 3.08480535777175e-05 8.52851645647180e-07
1.97742500000000e+01 2.95435750525654e-05 8.18662450396756e-07
1.98647500000000e+01 2.82942593018909e-05 7.85835604447573e-07
1.99552500000000e+01 2.70977736451406e-05 7.54317225759765e-07
2.00457500000000e+01 2.59518840443440e-05 7.24055543268307e-07
2.01362500000000e+01 2.48544509327930e-05 6.95000815196652e-07
2.02267500000000e+01 2.38034252201141e-05 6.67105250478879e-07
2.03172500000000e+01 2.27968444662758e-05 6.40322933174839e-07
2.04077500000000e+01 2.18328292173859e-05 6.14609749766880e-07
2.04982500000000e+01 2.09095794964386e-05 5.89923319230831e-07
2.05887500000000e+01 2.00253714424573e-05 5.66222925777695e-07
2.06792500000000e+01 1.91785540917590e-05 5.43469454166242e-07
2.07697500000000e+01 1.83675462953306e-05 5.21625327490424e-07
2.08602500000000e+01 1.75908337665601e-05 5.00654447348840e-07
2.09507500000000e+01 1.68469662538112e-05 4.80522136306974e-07
2.10412500000000e+01 1.61345548325624e-05 4.61195082566120e-07
2.11317500000000e+01 1.54522693120532e-05 4.42641286756052e-07
2.12222500000000e+01 1.47988357515967e-05 4.24830010771554e-07
2.13127500000000e+01 1.41730340819200e-05 4.07731728575777e-07
2.14032500000000e+01 1.35736958270918e-05 3.91318078896295e-07
2.14937500000000e+01 1.29997019227834e-05 3.75561819742372e-07
2.15842500000000e+01 1.24499806267889e-05 3.60436784674645e-07
2.16747500000000e+01 1.19235055179043e-05 3.45917840760915e-07
2.17652500000000e+01 1.14192935794281e-05 3.31980848154185e-07
2.18557500000000e+01 1.09364033637053e-05 3.18602621231478e-07
2.19462500000000e+01 1.04739332342881e-05 3.05760891234190e-07
2.20367500000000e+01 1.00310196824303e-05 2.93434270352953e-07
2.21272500000000e+01 9.60683571477276e-06 2.81602217202098e-07
2.22177500000000e+01 9.20058930920900e-06 2.70245003630849e-07
2.23082500000000e+01 8.81152193604814e-06 2.59343682820306e-07
2.23987500000000e+01 8.43890714171360e-06 2.48880058617238e-07
2.24892500000000e+01 8.08204919233328e-06 2.38836656057468e-07
2.25797500000000e+01 7.74028177468857e-06 2.29196693033431e-07
2.26702500000000e+01 7.41296675209663e-06 2.19944053062173e-07
2.27607500000000e+01 7.09949297290292e-06 2.11063259111693e-07
2.28512500000000e+01 6.79927512935929e-06 2.02539448445114e-07
2.29417500000000e+01 6.51175266475695e-06 1.94358348443669e-07
2.30322500000000e+01 6.23638872677372e-06 1.86506253370984e-07
2.31227500000000e+01 5.97266916508139e-06 1.78970002042521e-07
2.32132500000000e+01 5.72010157134137e-06 1.71736956365413e-07
2.33037500000000e+01 5.47821435979640e-06 1.64794980715249e-07
2.33942500000000e+01 5.24655588674134e-06 1.58132422117601e-07
2.34847500000000e+01 5.02469360722921e-06 1.51738091203314e-07
2.35752500000000e+01 4.81221326743771e-06 1.45601243907759e-07
2.36657500000000e+01 4.60871813118836e-06 1.39711563885359e-07
2.37562500000000e+01 4.41382823917399e-06 1.34059145611808e-07
2.38467500000000e+01 4.22717969951145e-06 1.28634478147405e-07
2.39372500000000e+01 4.04842400829484e-06 1.23428429535994e-07
2.40277500000000e+01 3.87722739888070e-06 1.18432231814920e-07
2.41182500000000e+01 3.71327021869008e-06 1.13637466612365e-07
2.42087500000000e+01 3.55624633236400e-06 1.09036051309326e-07
2.42992500000000e+01 3.40586255015768e-06 1.04620225744372e-07
2.43897500000000e+01 3.26183808050654e-06 1.00382539440126e-07
2.44802500000000e+01 3.12390400574151e-06 9.63158393312507e-08
2.45707500000000e+01 2.99180277997502e-06 9.24132579744601e-08
2.46612500000000e+01 2.86528774821992e-06 8.86682022218549e-08
2.47517500000000e+01 2.74412268584352e-06 8.50743423395613e-08
2.48422500000000e+01 2.62808135749691e-06 8.16256015543690e-08
2.49327500000000e+01 2.51694709469584e-06 7.83161460117186e-08
2.50232500000000e+01 2.41051239126461e-06 7.51403751290177e-08
2.51137500000000e+01 2.30857851588749e-06 7.20929123288951e-08
2.52042500000000e+01 2.21095514104421e-06 6.91685961375836e-08
2.52947500000000e+01 2.11745998763686e-06 6.63624716341948e-08
2.53852500000000e+01 2.02791848464438e-06 6.36697822371961e-08
2.54757500000000e+01 1.94216344316946e-06 6.10859618149236e-08
2.55662500000000e+01 1.86003474426898e-06 5.86066271074789e-08
2.56567500000000e+01 1.78137903998530e-06 5.62275704478419e-08
2.57472500000000e+01 1.70604946702010e-06 5.39447527704977e-08
2.58377500000000e+01 1.63390537251611e-06 5.17542968963311e-08
2.59282500000000e+01 1.56481205143482e-06 4.96524810829772e-08
2.60187500000000e+01 1.49864049503975e-06 4.76357328302342e-08
2.61092500000000e+01 1.43526715001564e-06 4.57006229305417e-08
2.61997500000000e+01 1.37457368777386e-06 4.38438597549226e-08
2.62902500000000e+01 1.31644678351318e-06 4.20622837651534e-08
2.63807500000000e+01 1.26077790462355e-06 4.03528622432851e-08
2.64712500000000e+01 1.20746310803762e-06 3.87126842299849e-08
2.65617500000000e+01 1.15640284615172e-06 3.71389556634975e-08
2.66522500000000e+01 1.10750178095390e-06 3.56289947113429e-08
2.67427500000000e+01 1.06066860601200e-06 3.41802272871746e-08
2.68332500000000e+01 1.01581587598935e-06 3.27901827455171e-08
2.69237500000000e+01 9.72859843369710e-07 3.14564897473852e-08
2.70142500000000e+01 9.31720302086773e-07 3.01768722900566e-08
2.71047500000000e+01 8.92320437766048e-07 2.89491458945351e-08
2.71952500000000e+01 8.54586684299636e-07 2.77712139444934e-08
2.72857500000000e+01 8.18448586486062e-07 2.66410641707229e-08
2.73762500000000e+01 7.83838668478676e-07 2.55567652753558e-08
2.74667500000000e+01 7.50692307797011e-07 2.45164636903441e-08
2.75572500000000e+01 7.18947614665853e-07 2.35183804648991e-08
2.76477500000000e+01 6.88545316456722e-07 2.25608082768000e-08
2.77382500000000e+01 6.59428647016005e-07 2.16421085626796e-08
2.78287500000000e+01 6.31543240673094e-07 2.07607087625868e-08
2.79192500000000e+01 6.04837030730623e-07 1.99150996743076e-08
2.80097500000000e+01 5.79260152247280e-07 1.91038329131074e-08
2.81002500000000e+01 5.54764848931650e-07 1.83255184727236e-08
2.81907500000000e+01 5.31305383973271e-07 1.75788223836007e-08
2.82812500000000e+01 5.08837954644390e-07 1.68624644645208e-08
2.83717500000000e+01 4.87320610512977e-07 1.61752161639294e-08
2.84622500000000e+01 4.66713175114282e-07 1.55158984874050e-08
2.85527500000000e+01 4.46977170934687e-07 1.48833800078572e-08
