Energy (eV)          EEDF (eV^-(3/2))     First Anisotropy
4.58000000000000e-03 2.25304973213115e+01 3.29320624255060e-02
1.37400000000000e-02 2.10274039420828e+01 5.27435561798182e-02
2.29000000000000e-02 1.96245875196590e+01 6.54222367696182e-02
3.20600000000000e-02 1.83153582048231e+01 7.27952313248203e-02
4.12200000000000e-02 1.70934724531123e+01 7.72728288803739e-02
5.03800000000000e-02 1.59531032501654e+01 7.98525793929762e-02
5.95400000000000e-02 1.48888123234493e+01 8.10894591475092e-02
6.87000000000000e-02 1.38955242078432e+01 8.13381775119362e-02
7.78600000000000e-02 1.29685020414055e+01 8.08442488800418e-02
8.70200000000000e-02 1.21033249758948e+01 7.97864467215709e-02
9.61800000000000e-02 1.12958670943188e+01 7.82994864333707e-02
1.05340000000000e-01 1.05422777349727e+01 7.64873537374596e-02
1.14500000000000e-01 9.83896312813363e+00 7.44317070170039e-02
1.23660000000000e-01 9.18256925784016e+00 7.21974686195480e-02
1.32820000000000e-01 8.56996586702586e+00 6.98367081326174e-02
1.41980000000000e-01 7.99823152973019e+00 6.73914340435897e-02
1.51140000000000e-01 7.46463971919775e+00 6.48956581147714e-02
1.60300000000000e-01 6.96664580542648e+00 6.23769580490175e-02
1.69460000000000e-01 6.50187492015790e+00 5.98576836949849e-02
1.78620000000000e-01 6.06811063143899e+00 5.73559035121878e-02
1.87780000000000e-01 5.66328437374626e+00 5.48861576023073e-02
1.96940000000000e-01 5.28546558326554e+00 5.24600639348098e-02
2.06100000000000e-01 4.93285249128411e+00 5.00868113006098e-02
2.15260000000000e-01 4.60376353178976e+00 4.77735635951437e-02
2.24420000000000e-01 4.29662932230110e+00 4.55257938022310e-02
2.33580000000000e-01 4.00998517968640e+00 4.33475616173819e-02
2.42740000000000e-01 3.74246413528006e+00 4.12417454379440e-02
2.51900000000000e-01 3.49279041598674e+00 3.92102370827326e-02
2.61060000000000e-01 3.25977336028522e+00 3.72541058362749e-02
2.70220000000000e-01 3.04230174011837e+00 3.53737370735838e-02
2.79380000000000e-01 2.83933846159091e+00 3.35689496939342e-02
2.88540000000000e-01 2.64991561920342e+00 3.18390957948065e-02
2.97700000000000e-01 2.47312988003682e+00 3.01831453918780e-02
3.06860000000000e-01 2.30813817587503e+00 2.85997584957971e-02
3.16020000000000e-01 2.15415368272223e+00 2.70873464608811e-02
3.25180000000000e-01 2.01044206854148e+00 2.56441242021825e-02
3.34340000000000e-01 1.87631799132065e+00 2.42681546186882e-02
3.43500000000000e-01 1.75114183076542e+00 2.29573863489604e-02
3.52660000000000e-01 1.63431663803326e+00 2.17096858115564e-02
3.61820000000000e-01 1.52528528896191e+00 2.05228643385803e-02
3.70980000000000e-01 1.42352782721672e+00 1.93947010908886e-02
3.80140000000000e-01 1.32855898468641e+00 1.83229623432418e-02
3.89300000000000e-01 1.23992586730254e+00 1.73054176434616e-02
3.98460000000000e-01 1.15720579524652e+00 1.63398532785627e-02
4.07620000000000e-01 1.08000428724453e+00 1.54240834205859e-02
4.16780000000000e-01 1.00795317933755e+00 1.45559592736273e-02
4.25940000000000e-01 9.40708869155294e-01 1.37333764998450e-02
4.35100000000000e-01 8.77950677321174e-01 1.29542811648018e-02
4.44260000000000e-01 8.19379318174010e-01 1.22166744103908e-02
4.53420000000000e-01 7.64715472513609e-01 1.15186160359475e-02
4.62580000000000e-01 7.13698455563803e-01 1.08582271443146e-02
4.71740000000000e-01 6.66084973800622e-01 1.02336919890201e-02
4.80900000000000e-01 6.21647964717100e-01 9.64325914087907e-03
4.90060000000000e-01 5.80175513991683e-01 9.08524207684801e-03
4.99220000000000e-01 5.41469844896372e-01 8.55801928050908e-03
5.08380000000000e-01 5.05346375125208e-01 8.06003393185159e-03
5.17540000000000e-01 4.71632836545241e-01 7.58979325382329e-03
5.26700000000000e-01 4.40168453672191e-01 7.14586757422930e-03
5.35860000000000e-01 4.10803176953059e-01 6.72688915379325e-03
5.45020000000000e-01 3.83396967199306e-01 6.33155082441513e-03
5.54180000000000e-01 3.57819127758163e-01 5.95860447573169e-03
5.63340000000000e-01 3.33947681237276e-01 5.60685942290272e-03
5.72500000000000e-01 3.11668787810379e-01 5.27518068401208e-03
5.81660000000000e-01 2.90876202329948e-01 4.96248719150485e-03
5.90820000000000e-01 2.71470767657907e-01 4.66774995861107e-03
5.99980000000000e-01 2.53359941798118e-01 4.38999021867008e-03
6.09140000000000e-01 2.36457356575630e-01 4.12827755261189e-03
6.18300000000000e-01 2.20682405758076e-01 3.88172801753118e-03
6.27460000000000e-01 2.05959860655023e-01 3.64950228725922e-03
6.36620000000000e-01 1.92219511362130e-01 3.43080381406758e-03
6.45780000000000e-01 1.79395831939231e-01 3.22487701909162e-03
6.54940000000000e-01 1.67427667925647e-01 3.03100551771498e-03
6.64100000000000e-01 1.56257944702508e-01 2.84851038498431e-03
6.73260000000000e-01 1.45833395311313e-01 2.67674846510559e-03
6.82420000000000e-01 1.36104306430726e-01 2.51511072818996e-03
6.91580000000000e-01 1.27024281300210e-01 2.36302067665365e-03
7.00740000000000e-01 1.18550018459904e-01 2.21993280301713e-03
7.09900000000000e-01 1.10641105251585e-01 2.08533110028102e-03
7.19060000000000e-01 1.03259825095958e-01 1.95872762557062e-03
7.28220000000000e-01 9.63709776271886e-02 1.83966111732464e-03
7.37380000000000e-01 8.99417108269303e-02 1.72769566595153e-03
7.46540000000000e-01 8.39413643573218e-02 1.62241943757756e-03
7.55700000000000e-01 7.83413233458186e-02 1.52344345026107e-03
7.64860000000000e-01 7.31148819245844e-02 1.43040040183841e-03
7.74020000000000e-01 6.82371158736782e-02 1.34294354839522e-03
7.83180000000000e-01 6.36847637606885e-02 1.26074563221703e-03
7.92340000000000e-01 5.94361160099846e-02 1.18349785796111e-03
8.01500000000000e-01 5.54709113725722e-02 1.11090891570362e-03
8.10660000000000e-01 5.17702403028296e-02 1.04270404944977e-03
8.19820000000000e-01 4.83164547813422e-02 9.78624169645874e-04
8.28980000000000e-01 4.50930841537911e-02 9.18425008199685e-04
8.38140000000000e-01 4.20847565845434e-02 8.61876314495895e-04
8.47300000000000e-01 3.92771257503655e-02 8.08761090886228e-04
8.56460000000000e-01 3.66568024246722e-02 7.58874866135479e-04
8.65620000000000e-01 3.42112906260445e-02 7.12025005315424e-04
8.74780000000000e-01 3.19289280265189e-02 6.68030054656076e-04
8.83940000000000e-01 2.97988303354603e-02 6.26719119887061e-04
8.93100000000000e-01 2.78108393937947e-02 5.87931276630123e-04
9.02260000000000e-01 2.59554747310688e-02 5.51515011435951e-04
9.11420000000000e-01 2.42238883543179e-02 5.17327692093860e-04
9.20580000000000e-01 2.26078225531379e-02 4.85235065880714e-04
9.29740000000000e-01 2.10995705197372e-02 4.55110784455232e-04
9.38900000000000e-01 1.96919395961719e-02 4.26835954144947e-04
9.48060000000000e-01 1.83782169734947e-02 4.00298710415299e-04
9.57220000000000e-01 1.71521376792415e-02 3.75393815352890e-04
9.66380000000000e-01 1.60078547005919e-02 3.52022277038036e-04
9.75540000000000e-01 1.49399111007250e-02 3.30090989724519e-04
9.84700000000000e-01 1.39432139953965e-02 3.09512393787197e-04
9.93860000000000e-01 1.30130102656357e-02 2.90204154440258e-04
1.00302000000000e+00 1.21448638907393e-02 2.72088858270440e-04
1.01218000000000e+00 1.13346347934643e-02 2.55093726670351e-04
1.02134000000000e+00 1.05784590965384e-02 2.39150345296895e-04
1.03050000000000e+00 9.87273069633090e-03 2.24194408718666e-04
1.03966000000000e+00 9.21408406581355e-03 2.10165479454126e-04
1.04882000000000e+00 8.59937820479911e-03 1.97006760638997e-04
1.05798000000000e+00 8.02568166091989e-03 1.84664881597003e-04
1.06714000000000e+00 7.49025854991228e-03 1.73089695622446e-04
1.07630000000000e+00 6.99055550854026e-03 1.62234089316332e-04
1.08546000000000e+00 6.52418951793791e-03 1.52053802849764e-04
1.09462000000000e+00 6.08893653930218e-03 1.42507260559149e-04
1.10378000000000e+00 5.68272090774082e-03 1.33555411307324e-04
1.11294000000000e+00 5.30360543369623e-03 1.25161578073138e-04
1.12210000000000e+00 4.94978216474028e-03 1.17291316259275e-04
1.13126000000000e+00 4.61956376368406e-03 1.09912280234172e-04
1.14042000000000e+00 4.31137546188612e-03 1.02994097648843e-04
1.14958000000000e+00 4.02374754938550e-03 9.65082510932941e-05
1.15874000000000e+00 3.75530836604587e-03 9.04279666799812e-05
1.16790000000000e+00 3.50477776028661e-03 8.47281091635250e-05
1.17706000000000e+00 3.27096098420633e-03 7.93850832266155e-05
1.18622000000000e+00 3.05274299598531e-03 7.43767405818055e-05
1.19538000000000e+00 2.84908314239603e-03 6.96822925577077e-05
1.20454000000000e+00 2.65901019606313e-03 6.52822278560130e-05
1.21370000000000e+00 2.48161772380627e-03 6.11582351827801e-05
1.22286000000000e+00 2.31605976397814e-03 5.72931304736331e-05
1.23202000000000e+00 2.16154679218322e-03 5.36707884478864e-05
1.24118000000000e+00 2.01734195613860e-03 5.02760782412177e-05
1.25034000000000e+00 1.88275756172118e-03 4.70948028803731e-05
1.25950000000000e+00 1.75715179344376e-03 4.41136423765393e-05
1.26866000000000e+00 1.63992565372040e-03 4.13201002264875e-05
1.27782000000000e+00 1.53052010632475e-03 3.87024531224123e-05
1.28698000000000e+00 1.42841341041898e-03 3.62497036825934e-05
1.29614000000000e+00 1.33311863243948e-03 3.39515360256118e-05
1.30530000000000e+00 1.24418132397400e-03 3.17982740208999e-05
1.31446000000000e+00 1.16117735455623e-03 2.97808420579081e-05
1.32362000000000e+00 1.08371088904272e-03 2.78907281851690e-05
1.33278000000000e+00 1.01141249992650e-03 2.61199494790479e-05
1.34194000000000e+00 9.43937405585352e-04 2.44610195100145e-05
1.35110000000000e+00 8.80963826063008e-04 2.29069177818718e-05
1.36026000000000e+00 8.22191448542399e-04 2.14510610265758e-05
1.36942000000000e+00 7.67339995192833e-04 2.00872762440619e-05
1.37858000000000e+00 7.16147886561450e-04 1.88097753829128e-05
1.38774000000000e+00 6.68370994134808e-04 1.76131315637615e-05
1.39690000000000e+00 6.23781476121719e-04 1.64922567530404e-05
1.40606000000000e+00 5.82166690905367e-04 1.54423808000867e-05
1.41522000000000e+00 5.43328182983060e-04 1.44590317557101e-05
1.42438000000000e+00 5.07080736557736e-04 1.35380173951332e-05
1.43354000000000e+00 4.73251492267894e-04 1.26754078727515e-05
1.44270000000000e+00 4.41679122843759e-04 1.18675194404352e-05
1.45186000000000e+00 4.12213063758504e-04 1.11108991651269e-05
1.46102000000000e+00 3.84712795205583e-04 1.04023105852912e-05
1.47018000000000e+00 3.59047171978035e-04 9.73872024935482e-06
1.47934000000000e+00 3.35093798054041e-04 9.11728508265498e-06
1.48850000000000e+00 3.12738442906191e-04 8.53534053259162e-06
1.49766000000000e+00 2.91874496750954e-04 7.99038944468113e-06
1.50682000000000e+00 2.72402462140468e-04 7.48009162503023e-06
1.51598000000000e+00 2.54229479472144e-04 7.00225404740971e-06
1.52514000000000e+00 2.37268884153289e-04 6.55482166561150e-06
1.53430000000000e+00 2.21439793308924e-04 6.13586879413074e-06
1.54346000000000e+00 2.06666720061865e-04 5.74359102243489e-06
1.55262000000000e+00 1.92879213545617e-04 5.37629763017127e-06
1.56178000000000e+00 1.80011522933346e-04 5.03240447263109e-06
1.57094000000000e+00 1.68002283880730e-04 4.71042730763909e-06
1.58010000000000e+00 1.56794225887374e-04 4.40897553677930e-06
1.58926000000000e+00 1.46333899181240e-04 4.12674633550579e-06
1.59842000000000e+00 1.36571419823628e-04 3.86251914822865e-06
1.60758000000000e+00 1.27460231819155e-04 3.61515052591530e-06
1.61674000000000e+00 1.18956885096263e-04 3.38356928511074e-06
1.62590000000000e+00 1.11020828299473e-04 3.16677196856228e-06
1.63506000000000e+00 1.03614215405244e-04 2.96381858884061e-06
1.64422000000000e+00 9.67017252392026e-05 2.77382863748201e-06
1.65338000000000e+00 9.02503930340523e-05 2.59597734324279e-06
1.66254000000000e+00 8.42294532248831e-05 2.42949216405860e-06
1.67170000000000e+00 7.86101927321903e-05 2.27364949824287e-06
1.68086000000000e+00 7.33658140329294e-05 2.12777160134381e-06
1.69002000000000e+00 6.84713073666116e-05 1.99122369591089e-06
1.69918000000000e+00 6.39033314670059e-05 1.86341126220346e-06
1.70834000000000e+00 5.96401022506738e-05 1.74377749860834e-06
1.71750000000000e+00 5.56612889315061e-05 1.63180094122317e-06
1.72666000000000e+00 5.19479170658465e-05 1.52699323271040e-06
1.73582000000000e+00 4.84822780658351e-05 1.42889703113586e-06
1.74498000000000e+00 4.52478447494543e-05 1.33708405007737e-06
1.75414000000000e+00 4.22291925245459e-05 1.25115322182627e-06
1.76330000000000e+00 3.94119258309352e-05 1.17072897600914e-06
1.77246000000000e+00 3.67826094898754e-05 1.09545962643056e-06
1.78162000000000e+00 3.43287046334261e-05 1.02501585938275e-06
1.79078000000000e+00 3.20385089082217e-05 9.59089317085588e-07
1.79994000000000e+00 2.99011006684686e-05 8.97391270312570e-07
1.80910000000000e+00 2.79062868920363e-05 8.39651374626467e-07
1.81826000000000e+00 2.60445545712589e-05 7.85616504994186e-07
1.82742000000000e+00 2.43070253466382e-05 7.35049663874596e-07
1.83658000000000e+00 2.26854131671007e-05 6.87728958177711e-07
1.84574000000000e+00 2.11719847748974e-05 6.43446640779480e-07
1.85490000000000e+00 1.97595228267017e-05 6.02008212544602e-07
1.86406000000000e+00 1.84412914750378e-05 5.63231581061652e-07
1.87322000000000e+00 1.72110042458990e-05 5.26946272530962e-07
1.88238000000000e+00 1.60627940593704e-05 4.92992693467474e-07
1.89154000000000e+00 1.49911852502868e-05 4.61221439088796e-07
1.90070000000000e+00 1.39910674554975e-05 4.31492645453816e-07
1.90986000000000e+00 1.30576712432085e-05 4.03675382600410e-07
1.91902000000000e+00 1.21865453681820e-05 3.77647086102575e-07
1.92818000000000e+00 1.13735355443261e-05 3.53293024628473e-07
1.93734000000000e+00 1.06147646334449e-05 3.30505801232047e-07
1.94650000000000e+00 9.90661415566967e-06 3.09184886252741e-07
1.95566000000000e+00 9.24570703339880e-06 2.89236179830829e-07
1.96482000000000e+00 8.62889148645373e-06 2.70571602170658e-07
1.97398000000000e+00 8.05322600164872e-06 2.53108709801110e-07
1.98314000000000e+00 7.51596530509676e-06 2.36770336192365e-07
1.99230000000000e+00 7.01454727035516e-06 2.21484255190931e-07
2.00146000000000e+00 6.54658069997751e-06 2.07182865831467e-07
2.01062000000000e+00 6.10983392220380e-06 1.93802897174382e-07
2.01978000000000e+00 5.70222414840781e-06 1.81285131903122e-07
2.02894000000000e+00 5.32180754054882e-06 1.69574147494562e-07
2.03810000000000e+00 4.96676994126062e-06 1.58618073850601e-07
2.04726000000000e+00 4.63541822237073e-06 1.48368366348952e-07
2.05642000000000e+00 4.32617221059226e-06 1.38779593336740e-07
2.06558000000000e+00 4.03755715188278e-06 1.29809237151988e-07
2.07474000000000e+00 3.76819667853399e-06 1.21417507815716e-07
2.08390000000000e+00 3.51680624545295e-06 1.13567168591402e-07
2.09306000000000e+00 3.28218700433349e-06 1.06223372659216e-07
2.10222000000000e+00 3.06322008650442e-06 9.93535101998977e-08
2.11138000000000e+00 2.85886126719022e-06 9.29270652276689e-08
2.12054000000000e+00 2.66813598573884e-06 8.69154815532617e-08
2.12970000000000e+00 2.49013469806855e-06 8.12920372972471e-08
2.13886000000000e+00 2.32400853917041e-06 7.60317274104846e-08
2.14802000000000e+00 2.16896527498141e-06 7.11111536928534e-08
2.15718000000000e+00 2.02426552432311e-06 6.65084218335991e-08
2.16634000000000e+00 1.88921923288893e-06 6.22030450267923e-08
2.17550000000000e+00 1.76318238246483e-06 5.81758537436501e-08
2.18466000000000e+00 1.64555391969013e-06 5.44089112699598e-08
2.19382000000000e+00 1.53577288971214e-06 5.08854346416475e-08
2.20298000000000e+00 1.43331576106538e-06 4.75897206347930e-08
2.21214000000000e+00 1.33769392901805e-06 4.45070764881795e-08
2.22130000000000e+00 1.24845138547954e-06 4.16237550568690e-08
2.23046000000000e+00 1.16516254435716e-06 3.89268941144303e-08
2.23962000000000e+00 1.08743021199129e-06 3.64044595393557e-08
2.24878000000000e+00 1.01488369299053e-06 3.40451921379959e-08
2.25794000000000e+00 9.47177022433451e-07 3.18385578720627e-08
2.26710000000000e+00 8.83987316006930e-07 2.97747012734889e-08
2.27626000000000e+00 8.25013230212772e-07 2.78444018432322e-08
2.28542000000000e+00 7.69973525299741e-07 2.60390332435385e-08
2.29458000000000e+00 7.18605724067736e-07 2.43505251052940e-08
2.30374000000000e+00 6.70664860148132e-07 2.27713272834406e-08
2.31290000000000e+00 6.25922309791003e-07 2.12943764040517e-08
2.32206000000000e+00 5.84164701588169e-07 1.99130645566224e-08
2.33122000000000e+00 5.45192898932677e-07 1.86212099944528e-08
2.34038000000000e+00 5.08821050362205e-07 1.74130297147297e-08
2.34954000000000e+00 4.74875703257588e-07 1.62831137980961e-08
2.35870000000000e+00 4.43194976669815e-07 1.52264013951545e-08
2.36786000000000e+00 4.13627789330827e-07 1.42381582545256e-08
2.37702000000000e+00 3.86033139166578e-07 1.33139556938022e-08
2.38618000000000e+00 3.60279430876469e-07 1.24496509210287e-08
2.39534000000000e+00 3.36243848372463e-07 1.16413686202317e-08
2.40450000000000e+00 3.13811769085117e-07 1.08854837200428e-08
2.41366000000000e+00 2.92876217343447e-07 1.01786052696238e-08
2.42282000000000e+00 2.73337354221857e-07 9.51756135094213e-09
2.43198000000000e+00 2.55102001421272e-07 8.89938496097672e-09
2.44114000000000e+00 2.38083196913944e-07 8.32130080167638e-09
2.45030000000000e+00 2.22199780232838e-07 7.78071291946621e-09
2.45946000000000e+00 2.07376005427915e-07 7.27519313981752e-09
2.46862000000000e+00 1.93541179843540e-07 6.80247024587964e-09
2.47778000000000e+00 1.80629326994391e-07 6.36041985343413e-09
2.48694000000000e+00 1.68578871932177e-07 5.94705493748444e-09
2.49610000000000e+00 1.57332347602712e-07 5.56051696865319e-09
2.50526000000000e+00 1.46836120792998e-07 5.19906762023691e-09
2.51442000000000e+00 1.37040136361407e-07 4.86108100927269e-09
2.52358000000000e+00 1.27897678531212e-07 4.54503643731809e-09
2.53274000000000e+00 1.19365148109119e-07 4.24951159884234e-09
2.54190000000000e+00 1.11401854566381e-07 3.97317622718248e-09
2.55106000000000e+00 1.03969821990956e-07 3.71478614994359e-09
2.56022000000000e+00 9.70336079853130e-08 3.47317772752420e-09
2.56938000000000e+00 9.05601346462478e-08 3.24726265013494e-09
2.57854000000000e+00 8.45185308206601e-08 3.03602307025781e-09
2.58770000000000e+00 7.88799848850363e-08 2.83850704897152e-09
2.59686000000000e+00 7.36176073465608e-08 2.65382429595255e-09
2.60602000000000e+00 6.87063026106196e-08 2.48114218425629e-09
2.61518000000000e+00 6.41226493031706e-08 2.31968202219578e-09
2.62434000000000e+00 5.98447885772546e-08 2.16871556576987e-09
2.63350000000000e+00 5.58523198709947e-08 2.02756175615549e-09
2.64266000000000e+00 5.21262036199681e-08 1.89558366777248e-09
2.65182000000000e+00 4.86486704599971e-08 1.77218565336050e-09
2.66098000000000e+00 4.54031364873613e-08 1.65681067337835e-09
2.67014000000000e+00 4.23741241723152e-08 1.54893779785152e-09
2.67930000000000e+00 3.95471885487606e-08 1.44807986955657e-09
2.68846000000000e+00 3.69088483280802e-08 1.35378131814547e-09
2.69762000000000e+00 3.44465216086245e-08 1.26561611548087e-09
2.70678000000000e+00 3.21484658742575e-08 1.18318586307950e-09
2.71594000000000e+00 3.00037219958237e-08 1.10611800314561e-09
2.72510000000000e+00 2.80020619684846e-08 1.03406414522485e-09
2.73426000000000e+00 2.61339401356938e-08 9.66698501021270e-10
2.74342000000000e+00 2.43904476672003e-08 9.03716420400302e-10
2.75258000000000e+00 2.27632700739959e-08 8.44833022049362e-10
2.76174000000000e+00 2.12446475575967e-08 7.89781912688104e-10
2.77090000000000e+00 1.98273380045731e-08 7.38313989113553e-10
2.78006000000000e+00 1.85045824498516e-08 6.90196317733309e-10
2.78922000000000e+00 1.72700728440893e-08 6.45211086584385e-10
2.79838000000000e+00 1.61179219714056e-08 6.03154625157471e-10
2.80754000000000e+00 1.50426353740154e-08 5.63836487647977e-10
2.81670000000000e+00 1.40390851498734e-08 5.27078595537316e-10
2.82586000000000e+00 1.31024854983761e-08 4.92714435671908e-10
2.83502000000000e+00 1.22283698975003e-08 4.60588310254442e-10
2.84418000000000e+00 1.14125698035404e-08 4.30554635393107e-10
2.85334000000000e+00 1.06511947718645e-08 4.02477285070712e-10
2.86250000000000e+00 9.94061390389051e-09 3.76228977598103e-10
2.87166000000000e+00 9.27743853180175e-09 3.51690701805529e-10
2.88082000000000e+00 8.65850605843104e-09 3.28751180402851e-10
2.88998000000000e+00 8.08086487524561e-09 3.07306368105226e-10
