Energy (eV)          EEDF (eV^-(3/2))     First Anisotropy
6.58181818181818e-03 3.70971272325877e-01 1.86870545760106e-04
1.97454545454545e-02 3.68647490176785e-01 3.08647528166033e-04
3.29090909090909e-02 3.66338264323882e-01 4.07638228418902e-04
4.60727272727273e-02 3.64043503571721e-01 4.82957116691871e-04
5.92363636363636e-02 3.61763117311040e-01 5.45869178733541e-04
7.24000000000000e-02 3.59497015503993e-01 6.00629741554719e-04
8.55636363636364e-02 3.57245108668023e-01 6.49439067416309e-04
9.87272727272727e-02 3.55007307887836e-01 6.93624726008616e-04
1.11890909090909e-01 3.52783524797778e-01 7.34066460476883e-04
1.25054545454545e-01 3.50573671600143e-01 7.71385548051809e-04
1.38218181818182e-01 3.48377661019603e-01 8.06041513693554e-04
1.51381818181818e-01 3.46195406362882e-01 8.38386456411956e-04
1.64545454545455e-01 3.44026821460370e-01 8.68697796700208e-04
1.77709090909091e-01 3.41871820671214e-01 8.97199109737828e-04
1.90872727272727e-01 3.39730318916661e-01 9.24073987876552e-04
2.04036363636364e-01 3.37602231637132e-01 9.49475593942720e-04
2.17200000000000e-01 3.35487474793612e-01 9.73533434660711e-04
2.30363636363636e-01 3.33385964893578e-01 9.96358303331550e-04
2.43527272727273e-01 3.31297618948306e-01 1.01804595414039e-03
2.56690909090909e-01 3.29222354507213e-01 1.03867988895525e-03
2.69854545454546e-01 3.27160089626576e-01 1.05833351187027e-03
2.83018181818182e-01 3.25110742868933e-01 1.07707180634949e-03
2.96181818181818e-01 3.23074233322066e-01 1.09495267344085e-03
3.09345454545455e-01 3.21050480572624e-01 1.11202800594864e-03
3.22509090909091e-01 3.19039404705008e-01 1.12834455211993e-03
3.35672727272727e-01 3.17040926316985e-01 1.14394463041831e-03
3.48836363636364e-01 3.15054966497034e-01 1.15886672029862e-03
3.62000000000000e-01 3.13081446822690e-01 1.17314594730921e-03
3.75163636363636e-01 3.11120289373772e-01 1.18681449775519e-03
3.88327272727273e-01 3.09171416707473e-01 1.19990196558775e-03
4.01490909090909e-01 3.07234751876485e-01 1.21243564720598e-03
4.14654545454545e-01 3.05310218410123e-01 1.22444079743886e-03
4.27818181818182e-01 3.03397740312340e-01 1.23594084260132e-03
4.40981818181818e-01 3.01497242072285e-01 1.24695757090225e-03
4.54145454545455e-01 2.99608648647358e-01 1.25751129793137e-03
4.67309090909091e-01 2.97731885461144e-01 1.26762100509439e-03
4.80472727272727e-01 2.95866878412508e-01 1.27730446673557e-03
4.93636363636364e-01 2.94013553860292e-01 1.28657836204059e-03
5.06800000000000e-01 2.92171838621105e-01 1.29545836825679e-03
5.19963636363636e-01 2.90341659977283e-01 1.30395924935519e-03
5.33127272727273e-01 2.88522945659531e-01 1.31209493200328e-03
5.46290909090909e-01 2.86715623858221e-01 1.31987857319416e-03
5.59454545454546e-01 2.84919623209969e-01 1.32732262378723e-03
5.72618181818182e-01 2.83134872795350e-01 1.33443887975559e-03
5.85781818181818e-01 2.81361302145509e-01 1.34123853334737e-03
5.98945454545455e-01 2.79598841229751e-01 1.34773221927279e-03
6.12109090909091e-01 2.77847420453275e-01 1.35393005158155e-03
6.25272727272727e-01 2.76106970662987e-01 1.35984166187145e-03
6.38436363636364e-01 2.74377423136013e-01 1.36547623402953e-03
6.51600000000000e-01 2.72658709577396e-01 1.37084253122992e-03
6.64763636363636e-01 2.70950762125263e-01 1.37594892558938e-03
6.77927272727273e-01 2.69253513337649e-01 1.38080342287591e-03
6.91090909090909e-01 2.67566896200130e-01 1.38541368503173e-03
7.04254545454546e-01 2.65890844115465e-01 1.38978705335345e-03
7.17418181818182e-01 2.64225290901301e-01 1.39393056498362e-03
7.30581818181818e-01 2.62570170794541e-01 1.39785097233170e-03
7.43745454545455e-01 2.60925418441626e-01 1.40155476100284e-03
7.56909090909091e-01 2.59290968896273e-01 1.40504816224585e-03
7.70072727272727e-01 2.57666757623355e-01 1.40833716850581e-03
7.83236363636364e-01 2.56052720489782e-01 1.41142754784702e-03
7.96400000000000e-01 2.54448793762234e-01 1.41432485341228e-03
8.09563636363636e-01 2.52854914110639e-01 1.41703443647762e-03
8.22727272727273e-01 2.51271018597675e-01 1.41956145654756e-03
8.35890909090909e-01 2.49697044684148e-01 1.42191089067168e-03
8.49054545454546e-01 2.48132930220632e-01 1.42408754426575e-03
8.62218181818182e-01 2.46578613445237e-01 1.42609605711215e-03
8.75381818181818e-01 2.45034032986575e-01 1.42794091258902e-03
8.88545454545455e-01 2.43499127855841e-01 1.42962644631573e-03
9.01709090909091e-01 2.41973837444614e-01 1.43115685072997e-03
9.14872727272727e-01 2.40458101527513e-01 1.43253618284707e-03
9.28036363636364e-01 2.38951860254684e-01 1.43376837155073e-03
9.41200000000000e-01 2.37455054149625e-01 1.43485722107052e-03
9.54363636363637e-01 2.35967624111565e-01 1.43580641793225e-03
9.67527272727273e-01 2.34489511406822e-01 1.43661953572917e-03
9.80690909090909e-01 2.33020657672699e-01 1.43730003954740e-03
9.93854545454546e-01 2.31561004910523e-01 1.43785129059998e-03
1.00701818181818e+00 2.30110495489173e-01 1.43827655387543e-03
1.02018181818182e+00 2.28669072124431e-01 1.43857899775106e-03
1.03334545454545e+00 2.27236677900891e-01 1.43876169234978e-03
1.04650909090909e+00 2.25813256273300e-01 1.43882762925550e-03
1.05967272727273e+00 2.24398751023341e-01 1.43877971577011e-03
1.07283636363636e+00 2.22993106298502e-01 1.43862076803611e-03
1.08600000000000e+00 2.21596266609015e-01 1.43835353418530e-03
1.09916363636364e+00 2.20208176786866e-01 1.43798068419341e-03
1.11232727272727e+00 2.18828782034881e-01 1.43750481549966e-03
1.12549090909091e+00 2.17458027874439e-01 1.43692845928681e-03
1.13865454545455e+00 2.16095860180555e-01 1.43625407022610e-03
1.15181818181818e+00 2.14742225178984e-01 1.43548404762766e-03
1.16498181818182e+00 2.13397069408875e-01 1.43462072844484e-03
1.17814545454545e+00 2.12060339755986e-01 1.43366638028900e-03
1.19130909090909e+00 2.10731983449931e-01 1.43262322163864e-03
1.20447272727273e+00 2.09411948028572e-01 1.43149341484911e-03
1.21763636363636e+00 2.08100181369569e-01 1.43027905918559e-03
1.23080000000000e+00 2.06796631687663e-01 1.42898221017127e-03
1.24396363636364e+00 2.05501247500750e-01 1.42760486985781e-03
1.25712727272727e+00 2.04213977670011e-01 1.42614899097607e-03
1.27029090909091e+00 2.02934771356592e-01 1.42461648167978e-03
1.28345454545455e+00 2.01663578050306e-01 1.42300919584928e-03
1.29661818181818e+00 2.00400347567052e-01 1.42132895100949e-03
1.30978181818182e+00 1.99145030017665e-01 1.41957752155957e-03
1.32294545454545e+00 1.97897575835202e-01 1.41775663204813e-03
1.33610909090909e+00 1.96657935772473e-01 1.41586797440198e-03
1.34927272727273e+00 1.95426060872233e-01 1.41391320125117e-03
1.36243636363636e+00 1.94201902493195e-01 1.41189391930392e-03
1.37560000000000e+00 1.92985412307588e-01 1.40981170593267e-03
1.38876363636364e+00 1.91776542272668e-01 1.40766810015374e-03
1.40192727272727e+00 1.90575244663998e-01 1.40546460588845e-03
1.41509090909091e+00 1.89381472039056e-01 1.40320269574613e-03
1.42825454545455e+00 1.88195177261039e-01 1.40088380208902e-03
1.44141818181818e+00 1.87016313496538e-01 1.39850933252175e-03
1.45458181818182e+00 1.85844834189221e-01 1.39608066356793e-03
1.46774545454545e+00 1.84680693082539e-01 1.39359913440480e-03
1.48090909090909e+00 1.83523844217481e-01 1.39106606181558e-03
1.49407272727273e+00 1.82374241907338e-01 1.38848273399138e-03
1.50723636363636e+00 1.81231840759390e-01 1.38585040439228e-03
1.52040000000000e+00 1.80096595672704e-01 1.38317030619208e-03
1.53356363636364e+00 1.78968461813934e-01 1.38044364403153e-03
1.54672727272727e+00 1.77847394645235e-01 1.37767159668967e-03
1.55989090909091e+00 1.76733349893350e-01 1.37485532021169e-03
1.57305454545455e+00 1.75626283569567e-01 1.37199593976349e-03
1.58621818181818e+00 1.74526151967609e-01 1.36909456319776e-03
1.59938181818182e+00 1.73432911641174e-01 1.36615227523962e-03
1.61254545454545e+00 1.72346519423016e-01 1.36317013173287e-03
1.62570909090909e+00 1.71266932422907e-01 1.36014917277011e-03
1.63887272727273e+00 1.70194108006038e-01 1.35709041700943e-03
1.65203636363636e+00 1.69128003811307e-01 1.35399485605103e-03
1.66520000000000e+00 1.68068577749292e-01 1.35086346715181e-03
1.67836363636364e+00 1.67015787981520e-01 1.34769720573105e-03
1.69152727272727e+00 1.65969592944088e-01 1.34449700762087e-03
1.70469090909091e+00 1.64929951321169e-01 1.34126379171695e-03
1.71785454545455e+00 1.63896822061897e-01 1.33799845258621e-03
1.73101818181818e+00 1.62870164378434e-01 1.33470187245607e-03
1.74418181818182e+00 1.61849937726644e-01 1.33137491590653e-03
1.75734545454545e+00 1.60836101822266e-01 1.32801842462114e-03
1.77050909090909e+00 1.59828616639041e-01 1.32463322901250e-03
1.78367272727273e+00 1.58827442390100e-01 1.32122014304062e-03
1.79683636363636e+00 1.57832539543482e-01 1.31777995908928e-03
1.81000000000000e+00 1.56843868820287e-01 1.31431345924277e-03
1.82316363636364e+00 1.55861391176763e-01 1.31082140849111e-03
1.83632727272727e+00 1.54885067824457e-01 1.30730455666351e-03
1.84949090909091e+00 1.53914860207331e-01 1.30376364071390e-03
1.86265454545455e+00 1.52950730016160e-01 1.30019937802280e-03
1.87581818181818e+00 1.51992639186747e-01 1.29661247706268e-03
1.88898181818182e+00 1.51040549883185e-01 1.29300363256806e-03
1.90214545454545e+00 1.50094424511651e-01 1.28937352076118e-03
1.91530909090909e+00 1.49154225718693e-01 1.28572280970764e-03
1.92847272727273e+00 1.48219916375068e-01 1.28205215460460e-03
1.94163636363636e+00 1.47291459589010e-01 1.27836219312302e-03
1.95480000000000e+00 1.46368818704538e-01 1.27465355546576e-03
1.96796363636364e+00 1.45451957285872e-01 1.27092685821041e-03
1.98112727272727e+00 1.44540839134738e-01 1.26718270599387e-03
1.99429090909091e+00 1.43635428270483e-01 1.26342169350777e-03
2.00745454545455e+00 1.42735688942414e-01 1.25964439943047e-03
2.02061818181818e+00 1.41841585628165e-01 1.25585139596213e-03
2.03378181818182e+00 1.40953083019094e-01 1.25204324443529e-03
2.04694545454545e+00 1.40070146032137e-01 1.24822049097677e-03
2.06010909090909e+00 1.39192739808219e-01 1.24438367577608e-03
2.07327272727273e+00 1.38320829698153e-01 1.24053332880406e-03
2.08643636363636e+00 1.37454381274039e-01 1.23666996558163e-03
2.09960000000000e+00 1.36593360327711e-01 1.23279409619069e-03
2.11276363636364e+00 1.35737732857114e-01 1.22890621969320e-03
2.12592727272727e+00 1.34887465081234e-01 1.22500682561378e-03
2.13909090909091e+00 1.34042523422730e-01 1.22109639569793e-03
2.15225454545455e+00 1.33202874518569e-01 1.21717539841221e-03
2.16541818181818e+00 1.32368485218520e-01 1.21324429750244e-03
2.17858181818182e+00 1.31539322572358e-01 1.20930354800523e-03
2.19174545454545e+00 1.30715353840088e-01 1.20535359230707e-03
2.20490909090909e+00 1.29896546490488e-01 1.20139486847013e-03
2.21807272727273e+00 1.29082868188727e-01 1.19742780634217e-03
2.23123636363636e+00 1.28274286806224e-01 1.19345282371268e-03
2.24440000000000e+00 1.27470770419203e-01 1.18947033441403e-03
2.25756363636364e+00 1.26672287296736e-01 1.18548074325887e-03
2.27072727272727e+00 1.25878805913683e-01 1.18148444735542e-03
2.28389090909091e+00 1.25090294935454e-01 1.17748183766737e-03
2.29705454545455e+00 1.24306723227213e-01 1.17347329402459e-03
2.31021818181818e+00 1.23528059852488e-01 1.16945919282945e-03
2.32338181818182e+00 1.22754274061909e-01 1.16543990343128e-03
2.33654545454545e+00 1.21985335302067e-01 1.16141578454491e-03
2.34970909090909e+00 1.21221213214172e-01 1.15738719175243e-03
2.36287272727273e+00 1.20461877623136e-01 1.15335447396699e-03
2.37603636363636e+00 1.19707298546127e-01 1.14931796993931e-03
2.38920000000000e+00 1.18957446191246e-01 1.14527801556179e-03
2.40236363636364e+00 1.18212290946960e-01 1.14123493927210e-03
2.41552727272727e+00 1.17471803393391e-01 1.13718906322633e-03
2.42869090909091e+00 1.16735954288866e-01 1.13314070469104e-03
2.44185454545455e+00 1.16004714577935e-01 1.12909017151275e-03
2.45501818181818e+00 1.15278055390078e-01 1.12503776907496e-03
2.46818181818182e+00 1.14555948029750e-01 1.12098379700087e-03
2.48134545454545e+00 1.13838363984098e-01 1.11692854589626e-03
2.49450909090909e+00 1.13125274921708e-01 1.11287230412614e-03
2.50767272727273e+00 1.12416652682957e-01 1.10881535459793e-03
2.52083636363636e+00 1.11712469287460e-01 1.10475797158390e-03
2.53400000000000e+00 1.11012696932843e-01 1.10070042732281e-03
2.54716363636364e+00 1.10317307985394e-01 1.09664298784243e-03
2.56032727272727e+00 1.09626274989919e-01 1.09258591401118e-03
2.57349090909091e+00 1.08939570657857e-01 1.08852946278533e-03
2.58665454545455e+00 1.08257167874265e-01 1.08447388309067e-03
2.59981818181818e+00 1.07579039696632e-01 1.08041942211784e-03
2.61298181818182e+00 1.06905159346040e-01 1.07636632232099e-03
2.62614545454545e+00 1.06235500213905e-01 1.07231481845275e-03
2.63930909090909e+00 1.05570035860823e-01 1.06826514369950e-03
2.65247272727273e+00 1.04908740008000e-01 1.06421752675284e-03
2.66563636363636e+00 1.04251586543759e-01 1.06017218891666e-03
2.67880000000000e+00 1.03598549522410e-01 1.05612935008656e-03
2.69196363636364e+00 1.02949603155937e-01 1.05208922494909e-03
2.70512727272727e+00 1.02304721822648e-01 1.04805202392792e-03
2.71829090909091e+00 1.01663880056623e-01 1.04401795430526e-03
2.73145454545455e+00 1.01027052553829e-01 1.03998721647439e-03
2.74461818181818e+00 1.00394214171021e-01 1.03596000964703e-03
2.75778181818182e+00 9.97653399178780e-02 1.03193652911893e-03
2.77094545454545e+00 9.91404049629104e-02 1.02791696356909e-03
2.78410909090909e+00 9.85193846323853e-02 1.02390150062416e-03
2.79727272727273e+00 9.79022544026968e-02 1.01989032419015e-03
2.81043636363636e+00 9.72889899060769e-02 1.01588361181652e-03
2.82360000000000e+00 9.66795669295370e-02 1.01188154012169e-03
2.83676363636364e+00 9.60739614074694e-02 1.00788428133147e-03
2.84992727272727e+00 9.54721494292518e-02 1.00389200413289e-03
2.86309090909091e+00 9.48741072298551e-02 9.99904874685646e-04
2.87625454545455e+00 9.42798111952134e-02 9.95923053208577e-04
2.88941818181818e+00 9.36892378612015e-02 9.91946699162483e-04
2.90258181818182e+00 9.31023639066214e-02 9.87975968757090e-04
2.91574545454545e+00 9.25191661583906e-02 9.84011012488660e-04
2.92890909090909e+00 9.19396215905444e-02 9.80051980194986e-04
2.94207272727273e+00 9.13637073174249e-02 9.76099018621778e-04
2.95523636363636e+00 9.07914005987006e-02 9.72152269019215e-04
2.96840000000000e+00 9.02226788383842e-02 9.68211872072561e-04
2.98156363636364e+00 8.96575195782235e-02 9.64277964746297e-04
2.99472727272727e+00 8.90959005044072e-02 9.60350681056804e-04
3.00789090909091e+00 8.85377994391832e-02 9.56430152986557e-04
3.02105454545455e+00 8.79831943455853e-02 9.52516507371794e-04
3.03421818181818e+00 8.74320633264834e-02 9.48609870616440e-04
3.04738181818182e+00 8.68843846183106e-02 9.44710366416801e-04
3.06054545454545e+00 8.63401365956326e-02 9.40818113514528e-04
3.07370909090909e+00 8.57992977702200e-02 9.36933230295616e-04
3.08687272727273e+00 8.52618467849545e-02 9.33055832569151e-04
3.10003636363636e+00 8.47277624182501e-02 9.29186031373603e-04
3.11320000000000e+00 8.41970235831426e-02 9.25323937464008e-04
3.12636363636364e+00 8.36696093213705e-02 9.21469658432292e-04
3.13952727272727e+00 8.31454988093027e-02 9.17623299407854e-04
3.15269090909091e+00 8.26246713504413e-02 9.13784963885986e-04
3.16585454545455e+00 8.21071063795907e-02 9.09954750887169e-04
3.17901818181818e+00 8.15927834619756e-02 9.06132759249962e-04
3.19218181818182e+00 8.10816822876181e-02 9.02319085553204e-04
3.20534545454545e+00 8.05737826753696e-02 8.98513822063577e-04
3.21850909090909e+00 8.00690645720501e-02 8.94717060924964e-04
3.23167272727273e+00 7.95675080469814e-02 8.90928892129770e-04
3.24483636363636e+00 7.90690932958921e-02 8.87149401514648e-04
3.25800000000000e+00 7.85738006400708e-02 8.83378674849309e-04
3.27116363636364e+00 7.80816105210552e-02 8.79616795206768e-04
3.28432727272727e+00 7.75925035058826e-02 8.75863843599404e-04
3.29749090909091e+00 7.71064602803696e-02 8.72119899731113e-04
3.31065454545455e+00 7.66234616527968e-02 8.68385039402387e-04
3.32381818181818e+00 7.61434885530901e-02 8.64659338424434e-04
3.33698181818182e+00 7.56665220277686e-02 8.60942870719986e-04
3.35014545454545e+00 7.51925432435113e-02 8.57235706447245e-04
3.36330909090909e+00 7.47215334863561e-02 8.53537915820802e-04
3.37647272727273e+00 7.42534741567874e-02 8.49849567256737e-04
3.38963636363636e+00 7.37883467731911e-02 8.46170725540564e-04
3.40280000000000e+00 7.33261329710667e-02 8.42501455557101e-04
3.41596363636364e+00 7.28668144982534e-02 8.38841819886629e-04
3.42912727272727e+00 7.24103732195887e-02 8.35191879383782e-04
3.44229090909091e+00 7.19567911108740e-02 8.31551693861172e-04
3.45545454545455e+00 7.15060502621368e-02 8.27921319717149e-04
3.46861818181818e+00 7.10581328768695e-02 8.24300813508325e-04
3.48178181818182e+00 7.06130212674838e-02 8.20690230212499e-04
3.49494545454546e+00 7.01706978584692e-02 8.17089621512514e-04
3.50810909090909e+00 6.97311451856493e-02 8.13499039284515e-04
3.52127272727273e+00 6.92943458917584e-02 8.09918533901003e-04
3.53443636363636e+00 6.88602827295036e-02 8.06348152554614e-04
3.54760000000000e+00 6.84289385608333e-02 8.02787942664398e-04
3.56076363636364e+00 6.80002963526354e-02 7.99237949676696e-04
3.57392727272727e+00 6.75743391808812e-02 7.95698217592357e-04
3.58709090909091e+00 6.71510502251946e-02 7.92168789589237e-04
3.60025454545455e+00 6.67304127717469e-02 7.88649705852029e-04
3.61341818181818e+00 6.63124102125483e-02 7.85141006836063e-04
3.62658181818182e+00 6.58970260413499e-02 7.81642731677043e-04
3.63974545454546e+00 6.54842438564477e-02 7.78154916620371e-04
3.65290909090909e+00 6.50740473599896e-02 7.74677598208727e-04
3.66607272727273e+00 6.46664203539866e-02 7.71210811728450e-04
3.67923636363636e+00 6.42613467430317e-02 7.67754589675025e-04
3.69240000000000e+00 6.38588105336185e-02 7.64308964866321e-04
3.70556363636364e+00 6.34587958302610e-02 7.60873968429393e-04
3.71872727272727e+00 6.30612868391836e-02 7.57449630281651e-04
3.73189090909091e+00 6.26662678634269e-02 7.54035979698037e-04
3.74505454545455e+00 6.22737233054196e-02 7.50633043324159e-04
3.75821818181818e+00 6.18836376663194e-02 7.47240848160949e-04
3.77138181818182e+00 6.14959955423132e-02 7.43859420107778e-04
3.78454545454546e+00 6.11107816271085e-02 7.40488782523826e-04
3.79770909090909e+00 6.07279807112895e-02 7.37128959143531e-04
3.81087272727273e+00 6.03475776787138e-02 7.33779972653272e-04
3.82403636363636e+00 5.99695575089293e-02 7.30441843285453e-04
3.83720000000000e+00 5.95939052765414e-02 7.27114591666494e-04
3.85036363636364e+00 5.92206061477059e-02 7.23798236972802e-04
3.86352727272727e+00 5.88496453834204e-02 7.20492797369778e-04
3.87669090909091e+00 5.84810083351075e-02 7.17198290529708e-04
3.88985454545455e+00 5.81146804469023e-02 7.13914731811320e-04
3.90301818181818e+00 5.77506472550398e-02 7.10642136991132e-04
3.91618181818182e+00 5.73888943845091e-02 7.07380520928405e-04
3.92934545454546e+00 5.70294075512707e-02 7.04129896246318e-04
3.94250909090909e+00 5.66721725616576e-02 7.00890276000575e-04
3.95567272727273e+00 5.63171753091157e-02 6.97661672374708e-04
3.96883636363636e+00 5.59644017763559e-02 6.94444095391347e-04
3.98200000000000e+00 5.56138380347647e-02 6.91237555519514e-04
3.99516363636364e+00 5.52654702412313e-02 6.88042061984088e-04
4.00832727272727e+00 5.49192846410872e-02 6.84857623167300e-04
4.02149090909091e+00 5.45752675641140e-02 6.81684247081801e-04
4.03465454545455e+00 5.42334054265814e-02 6.78521939701576e-04
4.04781818181818e+00 5.38936847306774e-02 6.75370707463650e-04
4.06098181818182e+00 5.35560920614783e-02 6.72230556043581e-04
4.07414545454546e+00 5.32206140889253e-02 6.69101489145935e-04
4.08730909090909e+00 5.28872375672663e-02 6.65983510948853e-04
4.10047272727273e+00 5.25559493321041e-02 6.62876624907203e-04
4.11363636363636e+00 5.22267363023147e-02 6.59780832570464e-04
4.12680000000000e+00 5.18995854794990e-02 6.56696135971541e-04
4.13996363636364e+00 5.15744839451075e-02 6.53622536076187e-04
4.15312727272727e+00 5.12514188630694e-02 6.50560033150255e-04
