Energy (eV)          EEDF (eV^-(3/2))     First Anisotropy
2.65254237288136e-02 4.11775669889715e-02 2.01109224532801e-05
7.95762711864407e-02 4.09374573348618e-02 3.32237190090232e-05
1.32627118644068e-01 4.06987477791114e-02 4.38984845217364e-05
1.85677966101695e-01 4.04614301584296e-02 5.20322219857073e-05
2.38728813559322e-01 4.02254963549052e-02 5.88357855601867e-05
2.91779661016949e-01 3.99909383005220e-02 6.47662865241320e-05
3.44830508474576e-01 3.97577479722937e-02 7.00599388813542e-05
3.97881355932203e-01 3.95259173956602e-02 7.48591842694810e-05
4.50932203389831e-01 3.92954386411601e-02 7.92583608256449e-05
5.03983050847458e-01 3.90663038267826e-02 8.33240523117750e-05
5.57033898305085e-01 3.88385051154039e-02 8.71054793252455e-05
6.10084745762712e-01 3.86120347165578e-02 9.06403345283555e-05
6.63135593220339e-01 3.83868848846913e-02 9.39582990370730e-05
7.16186440677966e-01 3.81630479191431e-02 9.70832798768810e-05
7.69237288135593e-01 3.79405161647985e-02 1.00034897689293e-04
8.22288135593220e-01 3.77192820105805e-02 1.02829511587545e-04
8.75338983050848e-01 3.74993378903534e-02 1.05480946672720e-04
9.28389830508475e-01 3.72806762815734e-02 1.08001023744986e-04
9.81440677966102e-01 3.70632897060564e-02 1.10399953415497e-04
1.03449152542373e+00 3.68471707291717e-02 1.12686635292553e-04
1.08754237288136e+00 3.66323119586301e-02 1.14868888200632e-04
1.14059322033898e+00 3.64187060461007e-02 1.16953630311386e-04
1.19364406779661e+00 3.62063456879442e-02 1.18947023201827e-04
1.24669491525424e+00 3.59952236193948e-02 1.20854586029916e-04
1.29974576271186e+00 3.57853326199191e-02 1.22681288112342e-04
1.35279661016949e+00 3.55766655110801e-02 1.24431625700234e-04
1.40584745762712e+00 3.53692151578173e-02 1.26109685387367e-04
1.45889830508475e+00 3.51629744636141e-02 1.27719196115527e-04
1.51194915254237e+00 3.49579363748743e-02 1.29263572728610e-04
1.56500000000000e+00 3.47540938791294e-02 1.30745953645646e-04
1.61805084745763e+00 3.45514400060839e-02 1.32169232870706e-04
1.67110169491525e+00 3.43499678235004e-02 1.33536086626016e-04
1.72415254237288e+00 3.41496704408635e-02 1.34848996189633e-04
1.77720338983051e+00 3.39505410078377e-02 1.36110268438937e-04
1.83025423728814e+00 3.37525727151355e-02 1.37322053672084e-04
1.88330508474576e+00 3.35557587909497e-02 1.38486360465331e-04
1.93635593220339e+00 3.33600925040774e-02 1.39605068635977e-04
1.98940677966102e+00 3.31655671625677e-02 1.40679941386009e-04
2.04245762711864e+00 3.29721761144546e-02 1.41712636002994e-04
2.09550847457627e+00 3.27799127446170e-02 1.42704712697128e-04
2.14855932203390e+00 3.25887704774823e-02 1.43657642412285e-04
2.20161016949153e+00 3.23987427758231e-02 1.44572814480564e-04
2.25466101694915e+00 3.22098231413818e-02 1.45451543449058e-04
2.30771186440678e+00 3.20220051120769e-02 1.46295074600703e-04
2.36076271186441e+00 3.18352822643683e-02 1.47104588882092e-04
2.41381355932203e+00 3.16496482121752e-02 1.47881207989902e-04
2.46686440677966e+00 3.14650966074126e-02 1.48625998949752e-04
2.51991525423729e+00 3.12816211374824e-02 1.49339977699016e-04
2.57296610169492e+00 3.10992155273627e-02 1.50024112308061e-04
2.62601694915254e+00 3.09178735386246e-02 1.50679326513839e-04
2.67906779661017e+00 3.07375889698971e-02 1.51306502923903e-04
2.73211864406780e+00 3.05583556545963e-02 1.51906485410969e-04
2.78516949152542e+00 3.03801674627845e-02 1.52480081276818e-04
2.83822033898305e+00 3.02030183002715e-02 1.53028063802644e-04
2.89127118644068e+00 3.00269021090182e-02 1.53551174574424e-04
2.94432203389831e+00 2.98518128650689e-02 1.54050125119434e-04
2.99737288135593e+00 2.96777445802158e-02 1.54525598389999e-04
3.05042372881356e+00 2.95046913011724e-02 1.54978250666378e-04
3.10347457627119e+00 2.93326471099258e-02 1.55408713298997e-04
3.15652542372881e+00 2.91616061218426e-02 1.55817593845288e-04
3.20957627118644e+00 2.89915624871685e-02 1.56205476982715e-04
3.26262711864407e+00 2.88225103907825e-02 1.56572926447857e-04
3.31567796610170e+00 2.86544440504243e-02 1.56920485782599e-04
3.36872881355932e+00 2.84873577180779e-02 1.57248679127875e-04
3.42177966101695e+00 2.83212456792416e-02 1.57558012440868e-04
3.47483050847458e+00 2.81561022532147e-02 1.57848974614948e-04
3.52788135593220e+00 2.79919217914604e-02 1.58122038096823e-04
3.58093220338983e+00 2.78286986788625e-02 1.58377659445431e-04
3.63398305084746e+00 2.76664273330447e-02 1.58616280308146e-04
3.68703389830508e+00 2.75051022046230e-02 1.58838328320363e-04
3.74008474576271e+00 2.73447177756882e-02 1.59044217541180e-04
3.79313559322034e+00 2.71852685609509e-02 1.59234348846146e-04
3.84618644067797e+00 2.70267491071055e-02 1.59409110726753e-04
3.89923728813559e+00 2.68691539930521e-02 1.59568880027878e-04
3.95228813559322e+00 2.67124778284850e-02 1.59714022253303e-04
4.00533898305085e+00 2.65567152549404e-02 1.59844891838838e-04
4.05838983050847e+00 2.64018609451991e-02 1.59961832819437e-04
4.11144067796610e+00 2.62479096034819e-02 1.60065179444796e-04
4.16449152542373e+00 2.60948559641339e-02 1.60155256390097e-04
4.21754237288136e+00 2.59426947925842e-02 1.60232378941779e-04
4.27059322033898e+00 2.57914208847847e-02 1.60296853563468e-04
4.32364406779661e+00 2.56410290673822e-02 1.60348978418295e-04
4.37669491525424e+00 2.54915141964875e-02 1.60389043509698e-04
4.42974576271186e+00 2.53428711585586e-02 1.60417330802679e-04
4.48279661016949e+00 2.51950948698707e-02 1.60434114711016e-04
4.53584745762712e+00 2.50481802766677e-02 1.60439662546843e-04
4.58889830508475e+00 2.49021223540091e-02 1.60434234609360e-04
4.64194915254237e+00 2.47569161065833e-02 1.60418084257932e-04
4.69500000000000e+00 2.46125565682067e-02 1.60391458337058e-04
4.74805084745763e+00 2.44690388019571e-02 1.60354597568288e-04
4.80110169491525e+00 2.43263578990907e-02 1.60307736599827e-04
4.85415254237288e+00 2.41845089797925e-02 1.60251104043409e-04
4.90720338983051e+00 2.40434871927024e-02 1.60184922849262e-04
4.96025423728814e+00 2.39032877150328e-02 1.60109410651709e-04
5.01330508474576e+00 2.37639057515478e-02 1.60024779789118e-04
5.06635593220339e+00 2.36253365352591e-02 1.59931237313495e-04
5.11940677966102e+00 2.34875753269754e-02 1.59828985324625e-04
5.17245762711864e+00 2.33506174154054e-02 1.59718221277914e-04
5.22550847457627e+00 2.32144581161961e-02 1.59599137981889e-04
5.27855932203390e+00 2.30790927725769e-02 1.59471923587006e-04
5.33161016949153e+00 2.29445167549318e-02 1.59336761886189e-04
5.38466101694915e+00 2.28107254608893e-02 1.59193832591425e-04
5.43771186440678e+00 2.26777143144141e-02 1.59043311314159e-04
5.49076271186441e+00 2.25454787664053e-02 1.58885369538386e-04
5.54381355932203e+00 2.24140142942883e-02 1.58720174893038e-04
5.59686440677966e+00 2.22833164020944e-02 1.58547891402508e-04
5.64991525423729e+00 2.21533806196004e-02 1.58368679454073e-04
5.70296610169492e+00 2.20242025028856e-02 1.58182695758984e-04
5.75601694915254e+00 2.18957776339423e-02 1.57990093601095e-04
5.80906779661017e+00 2.17681016207450e-02 1.57791023065409e-04
5.86211864406780e+00 2.16411700964355e-02 1.57585630995545e-04
5.91516949152542e+00 2.15149787198411e-02 1.57374060945849e-04
5.96822033898305e+00 2.13895231751034e-02 1.57156453409736e-04
6.02127118644068e+00 2.12647991717377e-02 1.56932946029400e-04
6.07432203389831e+00 2.11408024438598e-02 1.56703673545878e-04
6.12737288135593e+00 2.10175287506699e-02 1.56468767744370e-04
6.18042372881356e+00 2.08949738760967e-02 1.56228357665076e-04
6.23347457627119e+00 2.07731336288492e-02 1.55982569796707e-04
6.28652542372881e+00 2.06520038416824e-02 1.55731528021007e-04
6.33957627118644e+00 2.05315803718481e-02 1.55475353492947e-04
6.39262711864407e+00 2.04118591009422e-02 1.55214165077204e-04
6.44567796610170e+00 2.02928359341996e-02 1.54948079226591e-04
6.49872881355932e+00 2.01745068009209e-02 1.54677209920298e-04
6.55177966101695e+00 2.00568676541428e-02 1.54401668848556e-04
6.60483050847458e+00 1.99399144706773e-02 1.54121565581924e-04
6.65788135593220e+00 1.98236432504407e-02 1.53837007510209e-04
6.71093220338983e+00 1.97080500168525e-02 1.53548099777926e-04
6.76398305084746e+00 1.95931308165196e-02 1.53254945456772e-04
6.81703389830508e+00 1.94788817192693e-02 1.52957645703765e-04
6.87008474576271e+00 1.93652988175095e-02 1.52656299697925e-04
6.92313559322034e+00 1.92523782266025e-02 1.52351004573777e-04
6.97618644067797e+00 1.91401160845620e-02 1.52041855583089e-04
7.02923728813559e+00 1.90285085520803e-02 1.51728946243080e-04
7.08228813559322e+00 1.89175518119180e-02 1.51412368271606e-04
7.13533898305085e+00 1.88072420692545e-02 1.51092211519495e-04
7.18838983050848e+00 1.86975755513968e-02 1.50768564122675e-04
7.24144067796610e+00 1.85885485078016e-02 1.50441512641457e-04
7.29449152542373e+00 1.84801572094930e-02 1.50111141994858e-04
7.34754237288136e+00 1.83723979493905e-02 1.49777535392382e-04
7.40059322033898e+00 1.82652670420302e-02 1.49440774477448e-04
7.45364406779661e+00 1.81587608235811e-02 1.49100939458659e-04
7.50669491525424e+00 1.80528756512893e-02 1.48758109043797e-04
7.55974576271186e+00 1.79476079037865e-02 1.48412360371445e-04
7.61279661016949e+00 1.78429539808204e-02 1.48063769146568e-04
7.66584745762712e+00 1.77389103032680e-02 1.47712409764550e-04
7.71889830508475e+00 1.76354733126039e-02 1.47358355245217e-04
7.77194915254237e+00 1.75326394711895e-02 1.47001677164681e-04
7.82500000000000e+00 1.74304052620145e-02 1.46642445783770e-04
7.87805084745763e+00 1.73287671887055e-02 1.46280730165486e-04
7.93110169491526e+00 1.72277217750177e-02 1.45916598109372e-04
7.98415254237288e+00 1.71272655651066e-02 1.45550116083875e-04
8.03720338983051e+00 1.70273951232789e-02 1.45181349348212e-04
8.09025423728814e+00 1.69281070339979e-02 1.44810362063847e-04
8.14330508474576e+00 1.68293979013968e-02 1.44437217229448e-04
8.19635593220339e+00 1.67312643495339e-02 1.44061976613963e-04
8.24940677966102e+00 1.66337030221530e-02 1.43684700872502e-04
8.30245762711865e+00 1.65367105826852e-02 1.43305449652284e-04
8.35550847457627e+00 1.64402837137829e-02 1.42924281528386e-04
8.40855932203390e+00 1.63444191175600e-02 1.42541253937727e-04
8.46161016949153e+00 1.62491135153605e-02 1.42156423289417e-04
8.51466101694915e+00 1.61543636477578e-02 1.41769845065647e-04
8.56771186440678e+00 1.60601662741080e-02 1.41381573758324e-04
8.62076271186441e+00 1.59665181727756e-02 1.40991662804139e-04
8.67381355932203e+00 1.58734161409106e-02 1.40600164689807e-04
8.72686440677966e+00 1.57808569944456e-02 1.40207131048198e-04
8.77991525423729e+00 1.56888375676662e-02 1.39812612596077e-04
8.83296610169492e+00 1.55973547134249e-02 1.39416659070330e-04
8.88601694915254e+00 1.55064053029251e-02 1.39019319328420e-04
8.93906779661017e+00 1.54159862257159e-02 1.38620641440185e-04
8.99211864406780e+00 1.53260943892804e-02 1.38220672626715e-04
9.04516949152542e+00 1.52367267192363e-02 1.37819459197784e-04
9.09822033898305e+00 1.51478801591285e-02 1.37417046647897e-04
9.15127118644068e+00 1.50595516704206e-02 1.37013479744053e-04
9.20432203389831e+00 1.49717382321005e-02 1.36608802465798e-04
9.25737288135593e+00 1.48844368408690e-02 1.36203057943976e-04
9.31042372881356e+00 1.47976445109394e-02 1.35796288552636e-04
9.36347457627119e+00 1.47113582740277e-02 1.35388535992974e-04
9.41652542372881e+00 1.46255751789730e-02 1.34979841234684e-04
9.46957627118644e+00 1.45402922919156e-02 1.34570244421165e-04
9.52262711864407e+00 1.44555066961924e-02 1.34159785097220e-04
9.57567796610170e+00 1.43712154919691e-02 1.33748502114936e-04
9.62872881355932e+00 1.42874157964102e-02 1.33336433575057e-04
9.68177966101695e+00 1.42041047434902e-02 1.32923616911981e-04
9.73483050847458e+00 1.41212794839803e-02 1.32510088971375e-04
9.78788135593220e+00 1.40389371850958e-02 1.32095885954073e-04
9.84093220338983e+00 1.39570750306553e-02 1.31681043358838e-04
9.89398305084746e+00 1.38756902208989e-02 1.31265596063862e-04
9.94703389830508e+00 1.37947799724736e-02 1.30849578401250e-04
1.00000847457627e+01 1.37143415180933e-02 1.30433024198620e-04
1.00531355932203e+01 1.36343721064510e-02 1.30015966273796e-04
1.01061864406780e+01 1.35548690031559e-02 1.29598437375345e-04
1.01592372881356e+01 1.34758294883423e-02 1.29180469403911e-04
1.02122881355932e+01 1.33972508595663e-02 1.28762093747228e-04
1.02653389830508e+01 1.33191304285967e-02 1.28343341259749e-04
1.03183898305085e+01 1.32414655244067e-02 1.27924242236883e-04
1.03714406779661e+01 1.31642534900316e-02 1.27504826459039e-04
1.04244915254237e+01 1.30874916854964e-02 1.27085122866963e-04
1.04775423728814e+01 1.30111774854652e-02 1.26665160803241e-04
1.05305932203390e+01 1.29353082791976e-02 1.26244968194943e-04
1.05836440677966e+01 1.28598814726160e-02 1.25824572764601e-04
1.06366949152542e+01 1.27848944853447e-02 1.25404001762237e-04
1.06897457627119e+01 1.27103447534641e-02 1.24983281940733e-04
1.07427966101695e+01 1.26362297266099e-02 1.24562439596296e-04
1.07958474576271e+01 1.25625468706696e-02 1.24141500544129e-04
1.08488983050847e+01 1.24892936649414e-02 1.23720490158023e-04
1.09019491525424e+01 1.24164676047737e-02 1.23299433346271e-04
1.09550000000000e+01 1.23440661987817e-02 1.22878354590477e-04
1.10080508474576e+01 1.22720869714323e-02 1.22457277921670e-04
1.10611016949153e+01 1.22005274603169e-02 1.22036226958278e-04
1.11141525423729e+01 1.21293852186824e-02 1.21615224882552e-04
1.11672033898305e+01 1.20586578127593e-02 1.21194294477741e-04
1.12202542372881e+01 1.19883428242399e-02 1.20773458104754e-04
1.12733050847458e+01 1.19184378476605e-02 1.20352737738593e-04
1.13263559322034e+01 1.18489404928286e-02 1.19932154945267e-04
1.13794067796610e+01 1.17798483822568e-02 1.19511730917454e-04
1.14324576271186e+01 1.17111591535408e-02 1.19091486451694e-04
1.14855084745763e+01 1.16428704568444e-02 1.18671441983390e-04
1.15385593220339e+01 1.15749799572282e-02 1.18251617312531e-04
1.15916101694915e+01 1.15074853327661e-02 1.17832032645954e-04
1.16446610169492e+01 1.14403842745002e-02 1.17412707067712e-04
1.16977118644068e+01 1.13736744880881e-02 1.16993659556165e-04
1.17507627118644e+01 1.13073536914258e-02 1.16574908756799e-04
1.18038135593220e+01 1.12414196168450e-02 1.16156472960569e-04
1.18568644067797e+01 1.11758700087832e-02 1.15738370136245e-04
1.19099152542373e+01 1.11107026259362e-02 1.15320617908979e-04
1.19629661016949e+01 1.10459152389739e-02 1.14903233592031e-04
1.20160169491525e+01 1.09815056326500e-02 1.14486234165606e-04
1.20690677966102e+01 1.09174716035618e-02 1.14069636307946e-04
1.21221186440678e+01 1.08538109622179e-02 1.13653456374407e-04
1.21751694915254e+01 1.07905215308413e-02 1.13237710427972e-04
1.22282203389831e+01 1.07276011453962e-02 1.12822414218582e-04
1.22812711864407e+01 1.06650476534333e-02 1.12407583213044e-04
1.23343220338983e+01 1.06028589160763e-02 1.11993232574635e-04
1.23873728813559e+01 1.05410328059091e-02 1.11579377192431e-04
1.24404237288136e+01 1.04795672089225e-02 1.11166031661152e-04
1.24934745762712e+01 1.04184600224423e-02 1.10753210309950e-04
1.25465254237288e+01 1.03577091570374e-02 1.10340926966625e-04
1.25995762711864e+01 1.02973125349653e-02 1.09929195850689e-04
1.26526271186441e+01 1.02372680901291e-02 1.09518030260285e-04
1.27056779661017e+01 1.01775737694275e-02 1.09107443444094e-04
1.27587288135593e+01 1.01182275307918e-02 1.08697448405458e-04
1.28117796610169e+01 1.00592273449910e-02 1.08288057883246e-04
1.28648305084746e+01 1.00005711937057e-02 1.07879284378632e-04
1.29178813559322e+01 9.94225707129718e-03 1.07471140136219e-04
1.29709322033898e+01 9.88428298291899e-03 1.07063637170326e-04
1.30239830508475e+01 9.82664694625100e-03 1.06656787246325e-04
1.30770338983051e+01 9.76934698964638e-03 1.06250601906439e-04
1.31300847457627e+01 9.71238115383243e-03 1.05845092451368e-04
1.31831355932203e+01 9.65574749009220e-03 1.05440269965590e-04
1.32361864406780e+01 9.59944406193250e-03 1.05036145299186e-04
1.32892372881356e+01 9.54346894329952e-03 1.04632729092718e-04
1.33422881355932e+01 9.48782022021478e-03 1.04230031759284e-04
1.33953389830508e+01 9.43249598902403e-03 1.03828063508944e-04
1.34483898305085e+01 9.37749435800177e-03 1.03426834331006e-04
1.35014406779661e+01 9.32281344563271e-03 1.03026354017993e-04
1.35544915254237e+01 9.26845138218568e-03 1.02626631962330e-04
1.36075423728814e+01 9.21440630842256e-03 1.02227677924390e-04
1.36605932203390e+01 9.16067637555704e-03 1.01829500901787e-04
1.37136440677966e+01 9.10725974636862e-03 1.01432109879320e-04
1.37666949152542e+01 9.05415459357179e-03 1.01035513659774e-04
1.38197457627119e+01 9.00135910130677e-03 1.00639720847110e-04
1.38727966101695e+01 8.94887146353873e-03 1.00244739868859e-04
1.39258474576271e+01 8.89668988552031e-03 9.98505789595614e-05
1.39788983050847e+01 8.84481258222018e-03 9.94572461827441e-05
1.40319491525424e+01 8.79323777975794e-03 9.90647494145758e-05
1.40850000000000e+01 8.74196371386147e-03 9.86730963654531e-05
1.41380508474576e+01 8.69098863127479e-03 9.82822945638988e-05
1.41911016949153e+01 8.64031078824350e-03 9.78923513777607e-05
1.42441525423729e+01 8.58992845189628e-03 9.75032739982995e-05
1.42972033898305e+01 8.53983989875783e-03 9.71150694610453e-05
1.43502542372881e+01 8.49004341610449e-03 9.67277446300739e-05
1.44033050847458e+01 8.44053730050420e-03 9.63413062185126e-05
1.44563559322034e+01 8.39131985914674e-03 9.59557607730290e-05
1.45094067796610e+01 8.34238940841016e-03 9.55711146939672e-05
1.45624576271186e+01 8.29374427516620e-03 9.51873742200465e-05
1.46155084745763e+01 8.24538279537259e-03 9.48045454481880e-05
1.46685593220339e+01 8.19730331535419e-03 9.44226341602964e-05
1.47216101694915e+01 8.14950419074423e-03 9.40416464759200e-05
1.47746610169492e+01 8.10198378644559e-03 9.36615878903623e-05
1.48277118644068e+01 8.05474047753798e-03 9.32824639121175e-05
1.48807627118644e+01 8.00777264793955e-03 9.29042799184402e-05
1.49338135593220e+01 7.96107869162274e-03 9.25270411408516e-05
1.49868644067797e+01 7.91465701129982e-03 9.21507526836691e-05
1.50399152542373e+01 7.86850601961632e-03 9.17754195097095e-05
1.50929661016949e+01 7.82262413786003e-03 9.14010464584940e-05
1.51460169491525e+01 7.77700979713248e-03 9.10276382321374e-05
1.51990677966102e+01 7.73166143708096e-03 9.06551994132780e-05
1.52521186440678e+01 7.68657750704846e-03 9.02837344511357e-05
1.53051694915254e+01 7.64175646482817e-03 8.99132476791145e-05
1.53582203389831e+01 7.59719677779248e-03 8.95437433010782e-05
1.54112711864407e+01 7.55289692166948e-03 8.91752254086664e-05
1.54643220338983e+01 7.50885538165134e-03 8.88076979677277e-05
1.55173728813559e+01 7.46507065119245e-03 8.84411648353464e-05
1.55704237288136e+01 7.42154123309757e-03 8.80756297464753e-05
1.56234745762712e+01 7.37826563834124e-03 8.77110963306841e-05
1.56765254237288e+01 7.33524238713607e-03 8.73475679621516e-05
1.57295762711864e+01 7.29247000804379e-03 8.69850483241361e-05
1.57826271186441e+01 7.24994703793917e-03 8.66235405763101e-05
1.58356779661017e+01 7.20767202276657e-03 8.62630479062264e-05
1.58887288135593e+01 7.16564351641589e-03 8.59035734040049e-05
1.59417796610169e+01 7.12386008173782e-03 8.55451200496496e-05
1.59948305084746e+01 7.08232028943945e-03 8.51876907287501e-05
1.60478813559322e+01 7.04102271908130e-03 8.48312882200027e-05
1.61009322033898e+01 6.99996595799206e-03 8.44759152106532e-05
1.61539830508475e+01 6.95914860224777e-03 8.41215742841466e-05
1.62070338983051e+01 6.91856925560543e-03 8.37682679353423e-05
1.62600847457627e+01 6.87822653046461e-03 8.34159985583396e-05
1.63131355932203e+01 6.83811904681954e-03 8.30647684614295e-05
1.63661864406780e+01 6.79824543320354e-03 8.27145798550907e-05
1.64192372881356e+01 6.75860432565921e-03 8.23654348666948e-05
1.64722881355932e+01 6.71919436866606e-03 8.20173355286513e-05
1.65253389830508e+01 6.68001421412844e-03 8.16702837929030e-05
1.65783898305085e+01 6.64106252228662e-03 8.13242815192141e-05
1.66314406779661e+01 6.60233796072223e-03 8.09793304894221e-05
1.66844915254237e+01 6.56383920525309e-03 8.06354322772495e-05
1.67375423728814e+01 6.52556493918350e-03 8.02925887376131e-05
