Energy (eV)          EEDF (eV^-(3/2))     First Anisotropy
1.62264150943396e-02 1.01579687095080e-01 5.23555070945171e-05
4.86792452830189e-02 1.00918234017646e-01 8.64630157049956e-05
8.11320754716981e-02 1.00261088101914e-01 1.14165333897595e-04
1.13584905660377e-01 9.96082213014173e-02 1.35225839183022e-04
1.46037735849057e-01 9.89596057507642e-02 1.52802851308680e-04
1.78490566037736e-01 9.83152137696897e-02 1.68089849159709e-04
2.10943396226415e-01 9.76750178551292e-02 1.81704144660177e-04
2.43396226415094e-01 9.70389906834753e-02 1.94018328745373e-04
2.75849056603774e-01 9.64071051067306e-02 2.05279388127473e-04
3.08301886792453e-01 9.57793341589286e-02 2.15661802185724e-04
3.40754716981132e-01 9.51556510468415e-02 2.25294666743513e-04
3.73207547169811e-01 9.45360291517315e-02 2.34276930369955e-04
4.05660377358491e-01 9.39204420282205e-02 2.42686579302487e-04
4.38113207547170e-01 9.33088634031780e-02 2.50586484682003e-04
4.70566037735849e-01 9.27012671732542e-02 2.58028290496010e-04
5.03018867924528e-01 9.20976274078196e-02 2.65055093761731e-04
5.35471698113208e-01 9.14979183436539e-02 2.71703347815900e-04
5.67924528301887e-01 9.09021143852919e-02 2.78004247922596e-04
6.00377358490566e-01 9.03101901039629e-02 2.83984763305449e-04
6.32830188679245e-01 8.97221202355425e-02 2.89668419566165e-04
6.65283018867925e-01 8.91378796823680e-02 2.95075902746556e-04
6.97735849056604e-01 8.85574435091924e-02 3.00225532280723e-04
7.30188679245283e-01 8.79807869431338e-02 3.05133635621454e-04
7.62641509433962e-01 8.74078853726335e-02 3.09814849454400e-04
7.95094339622642e-01 8.68387143456751e-02 3.14282363598838e-04
8.27547169811321e-01 8.62732495709563e-02 3.18548121257263e-04
8.60000000000000e-01 8.57114669145837e-02 3.22622984548244e-04
8.92452830188679e-01 8.51533423998141e-02 3.26516871952480e-04
9.24905660377359e-01 8.45988522060349e-02 3.30238874048479e-04
9.57358490566038e-01 8.40479726677501e-02 3.33797351329589e-04
9.89811320754717e-01 8.35006802730129e-02 3.37200017417510e-04
1.02226415094340e+00 8.29569516619152e-02 3.40454009336937e-04
1.05471698113208e+00 8.24167636305580e-02 3.43565949571564e-04
1.08716981132075e+00 8.18800931238527e-02 3.46541999408428e-04
1.11962264150943e+00 8.13469172368390e-02 3.49387903956522e-04
1.15207547169811e+00 8.08172132137072e-02 3.52109032631501e-04
1.18452830188679e+00 8.02909584468266e-02 3.54710414331408e-04
1.21698113207547e+00 7.97681304757807e-02 3.57196768391394e-04
1.24943396226415e+00 7.92487069864087e-02 3.59572531926341e-04
1.28188679245283e+00 7.87326658098526e-02 3.61841884068495e-04
1.31433962264151e+00 7.82199849216113e-02 3.64008767524886e-04
1.34679245283019e+00 7.77106424406004e-02 3.66076907811827e-04
1.37924528301887e+00 7.72046166282184e-02 3.68049830468656e-04
1.41169811320755e+00 7.67018858874186e-02 3.69930876507209e-04
1.44415094339623e+00 7.62024287617876e-02 3.71723216315604e-04
1.47660377358491e+00 7.57062239346294e-02 3.73429862203608e-04
1.50905660377359e+00 7.52132502280554e-02 3.75053679750342e-04
1.54150943396226e+00 7.47234866020809e-02 3.76597398093003e-04
1.57396226415094e+00 7.42369121537266e-02 3.78063619276390e-04
1.60641509433962e+00 7.37535061161268e-02 3.79454826767535e-04
1.63886792452830e+00 7.32732478576428e-02 3.80773393226134e-04
1.67132075471698e+00 7.27961168809827e-02 3.82021587609630e-04
1.70377358490566e+00 7.23220928223261e-02 3.83201581682615e-04
1.73622641509434e+00 7.18511554504554e-02 3.84315455991679e-04
1.76867924528302e+00 7.13832846658906e-02 3.85365205357932e-04
1.80113207547170e+00 7.09184605000344e-02 3.86352743936237e-04
1.83358490566038e+00 7.04566631143188e-02 3.87279909882959e-04
1.86603773584906e+00 6.99978727993578e-02 3.88148469667866e-04
1.89849056603774e+00 6.95420699741064e-02 3.88960122064408e-04
1.93094339622642e+00 6.90892351850252e-02 3.89716501847547e-04
1.96339622641509e+00 6.86393491052498e-02 3.90419183225457e-04
1.99584905660377e+00 6.81923925337658e-02 3.91069683028373e-04
2.02830188679245e+00 6.77483463945897e-02 3.91669463675903e-04
2.06075471698113e+00 6.73071917359545e-02 3.92219935941654e-04
2.09320754716981e+00 6.68689097295008e-02 3.92722461532115e-04
2.12566037735849e+00 6.64334816694732e-02 3.93178355495146e-04
2.15811320754717e+00 6.60008889719224e-02 3.93588888472099e-04
2.19056603773585e+00 6.55711131739111e-02 3.93955288805888e-04
2.22301886792453e+00 6.51441359327270e-02 3.94278744516337e-04
2.25547169811321e+00 6.47199390250992e-02 3.94560405153442e-04
2.28792452830189e+00 6.42985043464210e-02 3.94801383537467e-04
2.32037735849057e+00 6.38798139099765e-02 3.95002757394525e-04
2.35283018867925e+00 6.34638498461740e-02 3.95165570895654e-04
2.38528301886792e+00 6.30505944017819e-02 3.95290836106051e-04
2.41773584905660e+00 6.26400299391724e-02 3.95379534351158e-04
2.45018867924528e+00 6.22321389355676e-02 3.95432617505596e-04
2.48264150943396e+00 6.18269039822926e-02 3.95451009210107e-04
2.51509433962264e+00 6.14243077840318e-02 3.95435606021685e-04
2.54754716981132e+00 6.10243331580908e-02 3.95387278501451e-04
2.58000000000000e+00 6.06269630336636e-02 3.95306872617188e-04
2.61245283018868e+00 6.02321804495956e-02 3.95195209592611e-04
2.64490566037736e+00 5.98399685582220e-02 3.95053087587814e-04
2.67735849056604e+00 5.94503106200469e-02 3.94881283337098e-04
2.70981132075472e+00 5.90631900045768e-02 3.94680551833341e-04
2.74226415094340e+00 5.86785901896103e-02 3.94451627504649e-04
2.77471698113208e+00 5.82964947605331e-02 3.94195224966609e-04
2.80716981132076e+00 5.79168874096174e-02 3.93912039737866e-04
2.83962264150943e+00 5.75397519353262e-02 3.93602748921428e-04
2.87207547169811e+00 5.71650722416212e-02 3.93268011853566e-04
2.90452830188679e+00 5.67928323372764e-02 3.92908470722255e-04
2.93698113207547e+00 5.64230163351954e-02 3.92524751157095e-04
2.96943396226415e+00 5.60556084517332e-02 3.92117462792242e-04
3.00188679245283e+00 5.56905930060227e-02 3.91687199803842e-04
3.03433962264151e+00 5.53279544193055e-02 3.91234541423533e-04
3.06679245283019e+00 5.49676772142668e-02 3.90760052429253e-04
3.09924528301887e+00 5.46097460143751e-02 3.90264283614659e-04
3.13169811320755e+00 5.42541455432256e-02 3.89747772238379e-04
3.16415094339623e+00 5.39008606238884e-02 3.89211042454053e-04
3.19660377358491e+00 5.35498761782610e-02 3.88654605722296e-04
3.22905660377359e+00 5.32011772264242e-02 3.88078961205534e-04
3.26150943396226e+00 5.28547488860032e-02 3.87484596146522e-04
3.29396226415094e+00 5.25105763715324e-02 3.86871986231460e-04
3.32641509433962e+00 5.21686449938240e-02 3.86241595938503e-04
3.35886792452830e+00 5.18289401593414e-02 3.85593878872398e-04
3.39132075471698e+00 5.14914473695765e-02 3.84929278085894e-04
3.42377358490566e+00 5.11561522204304e-02 3.84248226388675e-04
3.45622641509434e+00 5.08230404015989e-02 3.83551146644373e-04
3.48867924528302e+00 5.04920976959617e-02 3.82838452055984e-04
3.52113207547170e+00 5.01633099789759e-02 3.82110546440805e-04
3.55358490566038e+00 4.98366632180728e-02 3.81367824495142e-04
3.58603773584906e+00 4.95121434720592e-02 3.80610672048924e-04
3.61849056603774e+00 4.91897368905223e-02 3.79839466311136e-04
3.65094339622642e+00 4.88694297132387e-02 3.79054576106359e-04
3.68339622641509e+00 4.85512082695868e-02 3.78256362102788e-04
3.71584905660377e+00 4.82350589779638e-02 3.77445177032083e-04
3.74830188679245e+00 4.79209683452055e-02 3.76621365901542e-04
3.78075471698113e+00 4.76089229660110e-02 3.75785266198893e-04
3.81320754716981e+00 4.72989095223701e-02 3.74937208089916e-04
3.84566037735849e+00 4.69909147829950e-02 3.74077514609307e-04
3.87811320754717e+00 4.66849256027557e-02 3.73206501845157e-04
3.91056603773585e+00 4.63809289221191e-02 3.72324479117160e-04
3.94301886792453e+00 4.60789117665912e-02 3.71431749148879e-04
3.97547169811321e+00 4.57788612461636e-02 3.70528608234374e-04
4.00792452830189e+00 4.54807645547635e-02 3.69615346399322e-04
4.04037735849057e+00 4.51846089697070e-02 3.68692247556983e-04
4.07283018867925e+00 4.48903818511559e-02 3.67759589659128e-04
4.10528301886793e+00 4.45980706415785e-02 3.66817644842095e-04
4.13773584905660e+00 4.43076628652137e-02 3.65866679568320e-04
4.17018867924528e+00 4.40191461275383e-02 3.64906954763442e-04
4.20264150943396e+00 4.37325081147380e-02 3.63938725949097e-04
4.23509433962264e+00 4.34477365931822e-02 3.62962243371663e-04
4.26754716981132e+00 4.31648194089016e-02 3.61977752127028e-04
4.30000000000000e+00 4.28837444870692e-02 3.60985492486220e-04
4.33245283018868e+00 4.26044998308442e-02 3.59985699395657e-04
4.36490566037736e+00 4.23270735227970e-02 3.58978603004441e-04
4.39735849056604e+00 4.20514537224498e-02 3.57964429192167e-04
4.42981132075472e+00 4.17776286664258e-02 3.56943399047336e-04
4.46226415094340e+00 4.15055866679476e-02 3.55915729182371e-04
4.49471698113208e+00 4.12353161163383e-02 3.54881631834814e-04
4.52716981132076e+00 4.09668054765256e-02 3.53841314965628e-04
4.55962264150943e+00 4.07000432885499e-02 3.52794982354694e-04
4.59207547169811e+00 4.04350181670751e-02 3.51742833693563e-04
4.62452830188679e+00 4.01717188009025e-02 3.50685064675811e-04
4.65698113207547e+00 3.99101339524883e-02 3.49621867084694e-04
4.68943396226415e+00 3.96502524574638e-02 3.48553428878446e-04
4.72188679245283e+00 3.93920632241588e-02 3.47479934273304e-04
4.75433962264151e+00 3.91355552331286e-02 3.46401563824122e-04
4.78679245283019e+00 3.88807175366833e-02 3.45318494503072e-04
4.81924528301887e+00 3.86275392584209e-02 3.44230899776076e-04
4.85169811320755e+00 3.83760095927627e-02 3.43138949677136e-04
4.88415094339623e+00 3.81261178044925e-02 3.42042810880844e-04
4.91660377358491e+00 3.78778532282982e-02 3.40942646773024e-04
4.94905660377359e+00 3.76312052683165e-02 3.39838617519390e-04
4.98150943396226e+00 3.73861633976811e-02 3.38730880132534e-04
5.01396226415094e+00 3.71427171580731e-02 3.37619588537203e-04
5.04641509433962e+00 3.69008561592746e-02 3.36504893633843e-04
5.07886792452830e+00 3.66605700787254e-02 3.35386943360606e-04
5.11132075471698e+00 3.64218486610823e-02 3.34265882753755e-04
5.14377358490566e+00 3.61846817177815e-02 3.33141854006612e-04
5.17622641509434e+00 3.59490591266039e-02 3.32014996527023e-04
5.20867924528302e+00 3.57149708312427e-02 3.30885446993355e-04
5.24113207547170e+00 3.54824068408745e-02 3.29753339409152e-04
5.27358490566038e+00 3.52513572297329e-02 3.28618805156541e-04
5.30603773584906e+00 3.50218121366847e-02 3.27481973048304e-04
5.33849056603774e+00 3.47937617648091e-02 3.26342969378601e-04
5.37094339622642e+00 3.45671963809799e-02 3.25201917972611e-04
5.40339622641509e+00 3.43421063154492e-02 3.24058940234993e-04
5.43584905660377e+00 3.41184819614359e-02 3.22914155197076e-04
5.46830188679245e+00 3.38963137747145e-02 3.21767679563076e-04
5.50075471698113e+00 3.36755922732088e-02 3.20619627755178e-04
5.53320754716981e+00 3.34563080365864e-02 3.19470111957588e-04
5.56566037735849e+00 3.32384517058571e-02 3.18319242159576e-04
5.59811320754717e+00 3.30220139829734e-02 3.17167126197551e-04
5.63056603773585e+00 3.28069856304334e-02 3.16013869796135e-04
5.66301886792453e+00 3.25933574708869e-02 3.14859576608278e-04
5.69547169811321e+00 3.23811203867435e-02 3.13704348254631e-04
5.72792452830189e+00 3.21702653197835e-02 3.12548284361860e-04
5.76037735849057e+00 3.19607832707713e-02 3.11391482600208e-04
5.79283018867925e+00 3.17526652990714e-02 3.10234038720169e-04
5.82528301886792e+00 3.15459025222667e-02 3.09076046588378e-04
5.85773584905660e+00 3.13404861157794e-02 3.07917598222755e-04
5.89018867924528e+00 3.11364073124944e-02 3.06758783826830e-04
5.92264150943396e+00 3.09336574023852e-02 3.05599691823352e-04
5.95509433962264e+00 3.07322277321421e-02 3.04440408887170e-04
5.98754716981132e+00 3.05321097048029e-02 3.03281019977406e-04
6.02000000000000e+00 3.03332947793859e-02 3.02121608491288e-04
6.05245283018868e+00 3.01357744702009e-02 3.00962255925952e-04
6.08490566037736e+00 2.99395403474666e-02 2.99803042155619e-04
6.11735849056604e+00 2.97445840359652e-02 2.98644045710730e-04
6.14981132075472e+00 2.95508972150156e-02 2.97485343430971e-04
6.18226415094340e+00 2.93584716181180e-02 2.96327010619549e-04
6.21471698113208e+00 2.91672990326015e-02 2.95169121070908e-04
6.24716981132075e+00 2.89773712992734e-02 2.94011747097931e-04
6.27962264150943e+00 2.87886803120707e-02 2.92854959558498e-04
6.31207547169811e+00 2.86012180177147e-02 2.91698827881568e-04
6.34452830188679e+00 2.84149764153667e-02 2.90543420092726e-04
6.37698113207547e+00 2.82299475562869e-02 2.89388802839188e-04
6.40943396226415e+00 2.80461235434952e-02 2.88235041414332e-04
6.44188679245283e+00 2.78634965314338e-02 2.87082199781661e-04
6.47433962264151e+00 2.76820587256326e-02 2.85930340598439e-04
6.50679245283019e+00 2.75018023823766e-02 2.84779525238713e-04
6.53924528301887e+00 2.73227198083751e-02 2.83629813815924e-04
6.57169811320755e+00 2.71448033604338e-02 2.82481265205079e-04
6.60415094339623e+00 2.69680454451281e-02 2.81333937064517e-04
6.63660377358491e+00 2.67924385184794e-02 2.80187885857252e-04
6.66905660377359e+00 2.66179750856330e-02 2.79043166871813e-04
6.70150943396226e+00 2.64446477005380e-02 2.77899834242774e-04
6.73396226415094e+00 2.62724489656299e-02 2.76757940970849e-04
6.76641509433962e+00 2.61013715315147e-02 2.75617538942607e-04
6.79886792452830e+00 2.59314080966550e-02 2.74478678949828e-04
6.83132075471698e+00 2.57625514070588e-02 2.73341410708488e-04
6.86377358490566e+00 2.55947942559695e-02 2.72205782877325e-04
6.89622641509434e+00 2.54281294835587e-02 2.71071843076118e-04
6.92867924528302e+00 2.52625499766202e-02 2.69939637903618e-04
6.96113207547170e+00 2.50980486682668e-02 2.68809212955104e-04
6.99358490566038e+00 2.49346185376284e-02 2.67680612839653e-04
7.02603773584906e+00 2.47722526095524e-02 2.66553881197070e-04
7.05849056603774e+00 2.46109439543065e-02 2.65429060714496e-04
7.09094339622642e+00 2.44506856872819e-02 2.64306193142748e-04
7.12339622641510e+00 2.42914709687006e-02 2.63185319312308e-04
7.15584905660377e+00 2.41332930033227e-02 2.62066479149031e-04
7.18830188679245e+00 2.39761450401565e-02 2.60949711689568e-04
7.22075471698113e+00 2.38200203721709e-02 2.59835055096531e-04
7.25320754716981e+00 2.36649123360085e-02 2.58722546673389e-04
7.28566037735849e+00 2.35108143117015e-02 2.57612222879035e-04
7.31811320754717e+00 2.33577197223892e-02 2.56504119342141e-04
7.35056603773585e+00 2.32056220340370e-02 2.55398270875239e-04
7.38301886792453e+00 2.30545147551581e-02 2.54294711488568e-04
7.41547169811321e+00 2.29043914365357e-02 2.53193474403633e-04
7.44792452830189e+00 2.27552456709487e-02 2.52094592066547e-04
7.48037735849057e+00 2.26070710928971e-02 2.50998096161193e-04
7.51283018867925e+00 2.24598613783313e-02 2.49904017622024e-04
7.54528301886793e+00 2.23136102443816e-02 2.48812386646729e-04
7.57773584905660e+00 2.21683114490904e-02 2.47723232708698e-04
7.61018867924528e+00 2.20239587911456e-02 2.46636584569194e-04
7.64264150943396e+00 2.18805461096160e-02 2.45552470289346e-04
7.67509433962264e+00 2.17380672836882e-02 2.44470917241968e-04
7.70754716981132e+00 2.15965162324057e-02 2.43391952123092e-04
7.74000000000000e+00 2.14558869144090e-02 2.42315601039739e-04
7.77245283018868e+00 2.13161733274995e-02 2.41241889290879e-04
7.80490566037736e+00 2.11773695089218e-02 2.40170841532414e-04
7.83735849056604e+00 2.10394695345677e-02 2.39102481943782e-04
7.86981132075472e+00 2.09024675189046e-02 2.38036834004087e-04
7.90226415094340e+00 2.07663576147245e-02 2.36973920581054e-04
7.93471698113208e+00 2.06311340128948e-02 2.35913763941335e-04
7.96716981132076e+00 2.04967909421097e-02 2.34856385760609e-04
7.99962264150943e+00 2.03633226686443e-02 2.33801807133431e-04
8.03207547169811e+00 2.02307234961099e-02 2.32750048583014e-04
8.06452830188679e+00 2.00989877652108e-02 2.31701130070837e-04
8.09698113207547e+00 1.99681098535026e-02 2.30655071006032e-04
8.12943396226415e+00 1.98380841751525e-02 2.29611890254643e-04
8.16188679245283e+00 1.97089051807007e-02 2.28571606148745e-04
8.19433962264151e+00 1.95805673568238e-02 2.27534236495398e-04
8.22679245283019e+00 1.94530652260991e-02 2.26499798585462e-04
8.25924528301887e+00 1.93263933467712e-02 2.25468309202257e-04
8.29169811320755e+00 1.92005463125197e-02 2.24439784630053e-04
8.32415094339623e+00 1.90755187522280e-02 2.23414240662479e-04
8.35660377358491e+00 1.89513053297548e-02 2.22391692610754e-04
8.38905660377359e+00 1.88279007437057e-02 2.21372155311761e-04
8.42150943396227e+00 1.87052997272075e-02 2.20355643136068e-04
8.45396226415094e+00 1.85834970476829e-02 2.19342169995742e-04
8.48641509433962e+00 1.84624875066274e-02 2.18331749352029e-04
8.51886792452830e+00 1.83422659393875e-02 2.17324394222968e-04
8.55132075471698e+00 1.82228272149403e-02 2.16320117190845e-04
8.58377358490566e+00 1.81041662356742e-02 2.15318930409546e-04
8.61622641509434e+00 1.79862779371717e-02 2.14320845611790e-04
8.64867924528302e+00 1.78691572879931e-02 2.13325874116188e-04
8.68113207547170e+00 1.77527992894616e-02 2.12334026834246e-04
8.71358490566038e+00 1.76371989754504e-02 2.11345314277273e-04
8.74603773584906e+00 1.75223514121701e-02 2.10359746563116e-04
8.77849056603774e+00 1.74082516979589e-02 2.09377333422815e-04
8.81094339622642e+00 1.72948949630726e-02 2.08398084207181e-04
8.84339622641509e+00 1.71822763694774e-02 2.07422007893193e-04
8.87584905660377e+00 1.70703911106432e-02 2.06449113090409e-04
8.90830188679245e+00 1.69592344113383e-02 2.05479408047162e-04
8.94075471698113e+00 1.68488015274257e-02 2.04512900656687e-04
8.97320754716981e+00 1.67390877456606e-02 2.03549598463221e-04
9.00566037735849e+00 1.66300883834895e-02 2.02589508667894e-04
9.03811320754717e+00 1.65217987888499e-02 2.01632638134609e-04
9.07056603773585e+00 1.64142143399722e-02 2.00678993395810e-04
9.10301886792453e+00 1.63073304451820e-02 1.99728580658142e-04
9.13547169811321e+00 1.62011425427045e-02 1.98781405808019e-04
9.16792452830189e+00 1.60956461004696e-02 1.97837474417156e-04
9.20037735849057e+00 1.59908366159185e-02 1.96896791747938e-04
9.23283018867925e+00 1.58867096158116e-02 1.95959362758743e-04
9.26528301886793e+00 1.57832606560377e-02 1.95025192109211e-04
9.29773584905660e+00 1.56804853214238e-02 1.94094284165368e-04
9.33018867924528e+00 1.55783792255475e-02 1.93166643004723e-04
9.36264150943396e+00 1.54769380105489e-02 1.92242272421269e-04
9.39509433962264e+00 1.53761573469454e-02 1.91321175930368e-04
9.42754716981132e+00 1.52760329334461e-02 1.90403356773603e-04
9.46000000000000e+00 1.51765604967692e-02 1.89488817972444e-04
9.49245283018868e+00 1.50777357913553e-02 1.88577562185593e-04
9.52490566037736e+00 1.49795545994987e-02 1.87669591812142e-04
9.55735849056604e+00 1.48820127308534e-02 1.86764909095809e-04
9.58981132075472e+00 1.47851060223597e-02 1.85863515979383e-04
9.62226415094340e+00 1.46888303380661e-02 1.84965414159399e-04
9.65471698113208e+00 1.45931815689534e-02 1.84070605090479e-04
9.68716981132076e+00 1.44981556327588e-02 1.83179089989592e-04
9.71962264150944e+00 1.44037484738016e-02 1.82290869840270e-04
9.75207547169811e+00 1.43099560628108e-02 1.81405945396766e-04
9.78452830188679e+00 1.42167743967522e-02 1.80524317188116e-04
9.81698113207547e+00 1.41241994986585e-02 1.79645985522174e-04
9.84943396226415e+00 1.40322274174587e-02 1.78770950489529e-04
9.88188679245283e+00 1.39408542278099e-02 1.77899211967412e-04
9.91433962264151e+00 1.38500760299301e-02 1.77030769623557e-04
9.94679245283019e+00 1.37598889494308e-02 1.76165622919954e-04
9.97924528301887e+00 1.36702891371528e-02 1.75303771116583e-04
1.00116981132075e+01 1.35812727690009e-02 1.74445213147793e-04
1.00441509433962e+01 1.34928360460431e-02 1.73589948304824e-04
1.00766037735849e+01 1.34049751929523e-02 1.72737974966870e-04
1.01090566037736e+01 1.33176864607259e-02 1.71889291195105e-04
1.01415094339623e+01 1.32309661238978e-02 1.71043895727279e-04
1.01739622641509e+01 1.31448104812609e-02 1.70201787093213e-04
1.02064150943396e+01 1.30592158548784e-02 1.69362962823871e-04
1.02388679245283e+01 1.29741785924349e-02 1.68527420277633e-04
