Energy (eV)          EEDF (eV^-(3/2))     First Anisotropy
1.22727272727273e-02 1.11116065418708e-01 5.13330106758259e-05
3.68181818181818e-02 1.10534956373813e-01 8.48289184235467e-05
6.13636363636364e-02 1.09956886382539e-01 1.12152205768973e-04
8.59090909090909e-02 1.09381839552280e-01 1.33012749641574e-04
1.10454545454545e-01 1.08809800071844e-01 1.50496036562743e-04
1.35000000000000e-01 1.08240752212533e-01 1.65765867122572e-04
1.59545454545455e-01 1.07674680332669e-01 1.79423148742292e-04
1.84090909090909e-01 1.07111568864630e-01 1.91829951596747e-04
2.08636363636364e-01 1.06551402329397e-01 2.03225883416518e-04
2.33181818181818e-01 1.05994165322917e-01 2.13779926668788e-04
2.57727272727273e-01 1.05439842526877e-01 2.23616900124993e-04
2.82272727272727e-01 1.04888418698545e-01 2.32832314408655e-04
3.06818181818182e-01 1.04339878677102e-01 2.41501319756863e-04
3.31363636363636e-01 1.03794207382901e-01 2.49684400369327e-04
3.55909090909091e-01 1.03251389811431e-01 2.57431157091484e-04
3.80454545454545e-01 1.02711411040042e-01 2.64782913452008e-04
4.05000000000000e-01 1.02174256221029e-01 2.71774565024807e-04
4.29545454545455e-01 1.01639910587195e-01 2.78435925377359e-04
4.54090909090909e-01 1.01108359445927e-01 2.84792727469963e-04
4.78636363636364e-01 1.00579588183913e-01 2.90867382762982e-04
5.03181818181818e-01 1.00053582261970e-01 2.96679566517584e-04
5.27727272727273e-01 9.95303272191012e-02 3.02246675613539e-04
5.52272727272727e-01 9.90098086679177e-02 3.07584191696290e-04
5.76818181818182e-01 9.84920122972714e-02 3.12705971745191e-04
6.01363636363636e-01 9.79769238717749e-02 3.17624484964401e-04
6.25909090909091e-01 9.74645292286659e-02 3.22351005487467e-04
6.50454545454545e-01 9.69548142809782e-02 3.26895772082815e-04
6.75000000000000e-01 9.64477650137761e-02 3.31268121078579e-04
6.99545454545454e-01 9.59433674869808e-02 3.35476597796239e-04
7.24090909090909e-01 9.54416078319277e-02 3.39529050732020e-04
7.48636363636364e-01 9.49424722539045e-02 3.43432711549381e-04
7.73181818181818e-01 9.44459470289812e-02 3.47194263530517e-04
7.97727272727273e-01 9.39520185063045e-02 3.50819900370524e-04
8.22272727272727e-01 9.34606731051610e-02 3.54315377139107e-04
8.46818181818182e-01 9.29718973164826e-02 3.57686053970986e-04
8.71363636363636e-01 9.24856777024330e-02 3.60936935205003e-04
8.95909090909091e-01 9.20020008942909e-02 3.64072702680145e-04
9.20454545454545e-01 9.15208535943686e-02 3.67097745468946e-04
9.45000000000000e-01 9.10422225734444e-02 3.70016186068184e-04
9.69545454545454e-01 9.05660946725215e-02 3.72831903554940e-04
9.94090909090909e-01 9.00924568004183e-02 3.75548554580401e-04
1.01863636363636e+00 8.96212959335002e-02 3.78169590131386e-04
1.04318181818182e+00 8.91525991214082e-02 3.80698274647905e-04
1.06772727272727e+00 8.86863534732032e-02 3.83137698494638e-04
1.09227272727273e+00 8.82225461743721e-02 3.85490791244365e-04
1.11681818181818e+00 8.77611644727870e-02 3.87760337019772e-04
1.14136363636364e+00 8.73021956791074e-02 3.89948979996680e-04
1.16590909090909e+00 8.68456271784354e-02 3.92059237651817e-04
1.19045454545455e+00 8.63914464139538e-02 3.94093508861454e-04
1.21500000000000e+00 8.59396409022220e-02 3.96054081859409e-04
1.23954545454545e+00 8.54901982175524e-02 3.97943141720469e-04
1.26409090909091e+00 8.50431060066016e-02 3.99762776974121e-04
1.28863636363636e+00 8.45983519734333e-02 4.01514985878308e-04
1.31318181818182e+00 8.41559238934540e-02 4.03201681956557e-04
1.33772727272727e+00 8.37158095991160e-02 4.04824699297428e-04
1.36227272727273e+00 8.32779969932416e-02 4.06385796494078e-04
1.38681818181818e+00 8.28424740384714e-02 4.07886664068336e-04
1.41136363636364e+00 8.24092287574042e-02 4.09328924070952e-04
1.43590909090909e+00 8.19782492414335e-02 4.10714136770491e-04
1.46045454545455e+00 8.15495236381988e-02 4.12043803468320e-04
1.48500000000000e+00 8.11230401632371e-02 4.13319369629314e-04
1.50954545454545e+00 8.06987870879179e-02 4.14542227968764e-04
1.53409090909091e+00 8.02767527506325e-02 4.15713721144577e-04
1.55863636363636e+00 7.98569255451843e-02 4.16835144438365e-04
1.58318181818182e+00 7.94392939315426e-02 4.17907748081574e-04
1.60772727272727e+00 7.90238464246625e-02 4.18932739596232e-04
1.63227272727273e+00 7.86105716048280e-02 4.19911285185858e-04
1.65681818181818e+00 7.81994581093597e-02 4.20844514304731e-04
1.68136363636364e+00 7.77904946326228e-02 4.21733517656330e-04
1.70590909090909e+00 7.73836699329791e-02 4.22579351448828e-04
1.73045454545455e+00 7.69789728227960e-02 4.23383038440471e-04
1.75500000000000e+00 7.65763921776506e-02 4.24145569384361e-04
1.77954545454545e+00 7.61759169266780e-02 4.24867904534768e-04
1.80409090909091e+00 7.57775360614509e-02 4.25550974918102e-04
1.82863636363636e+00 7.53812386266510e-02 4.26195683674196e-04
1.85318181818182e+00 7.49870137286399e-02 4.26802907177939e-04
1.87772727272727e+00 7.45948505264372e-02 4.27373496238205e-04
1.90227272727273e+00 7.42047382399987e-02 4.27908276541587e-04
1.92681818181818e+00 7.38166661434994e-02 4.28408051928353e-04
1.95136363636364e+00 7.34306235652678e-02 4.28873601984002e-04
1.97590909090909e+00 7.30465998934011e-02 4.29305685149411e-04
2.00045454545455e+00 7.26645845675984e-02 4.29705039068027e-04
2.02500000000000e+00 7.22845670866201e-02 4.30072381329152e-04
2.04954545454545e+00 7.19065370003722e-02 4.30408410297793e-04
2.07409090909091e+00 7.15304839171259e-02 4.30713805778734e-04
2.09863636363636e+00 7.11563974958422e-02 4.30989229769347e-04
2.12318181818182e+00 7.07842674531628e-02 4.31235327054482e-04
2.14772727272727e+00 7.04140835559642e-02 4.31452725891482e-04
2.17227272727273e+00 7.00458356281299e-02 4.31642038058923e-04
2.19681818181818e+00 6.96795135449888e-02 4.31803861425691e-04
2.22136363636364e+00 6.93151072332086e-02 4.31938777524266e-04
2.24590909090909e+00 6.89526066754179e-02 4.32047354016808e-04
2.27045454545455e+00 6.85920019034015e-02 4.32130144738046e-04
2.29500000000000e+00 6.82332830042603e-02 4.32187690107961e-04
2.31954545454545e+00 6.78764401137983e-02 4.32220517632979e-04
2.34409090909091e+00 6.75214634225001e-02 4.32229142279035e-04
2.36863636363636e+00 6.71683431691026e-02 4.32214066932864e-04
2.39318181818182e+00 6.68170696463971e-02 4.32175782739805e-04
2.41772727272727e+00 6.64676331949782e-02 4.32114769529306e-04
2.44227272727273e+00 6.61200242088776e-02 4.32031495689042e-04
2.46681818181818e+00 6.57742331308823e-02 4.31926420289643e-04
2.49136363636364e+00 6.54302504524036e-02 4.31799990773709e-04
2.51590909090909e+00 6.50880667173393e-02 4.31652645008816e-04
2.54045454545455e+00 6.47476725163189e-02 4.31484811190210e-04
2.56500000000000e+00 6.44090584918647e-02 4.31296908083020e-04
2.58954545454545e+00 6.40722153327885e-02 4.31089345347770e-04
2.61409090909091e+00 6.37371337792091e-02 4.30862523760814e-04
2.63863636363636e+00 6.34038046170950e-02 4.30616835517599e-04
2.66318181818182e+00 6.30722186831447e-02 4.30352664433772e-04
2.68772727272727e+00 6.27423668594691e-02 4.30070386227940e-04
2.71227272727273e+00 6.24142400783396e-02 4.29770368318307e-04
2.73681818181818e+00 6.20878293181946e-02 4.29452971637660e-04
2.76136363636364e+00 6.17631256034964e-02 4.29118548481945e-04
2.78590909090909e+00 6.14401200079953e-02 4.28767444270995e-04
2.81045454545455e+00 6.11188036498051e-02 4.28399997386721e-04
2.83500000000000e+00 6.07991676957786e-02 4.28016539320807e-04
2.85954545454545e+00 6.04812033567040e-02 4.27617394898760e-04
2.88409090909091e+00 6.01649018915658e-02 4.27202882415125e-04
2.90863636363636e+00 5.98502546028588e-02 4.26773313844148e-04
2.93318181818182e+00 5.95372528407388e-02 4.26328994963727e-04
2.95772727272727e+00 5.92258879984501e-02 4.25870225553583e-04
2.98227272727273e+00 5.89161515163694e-02 4.25397299160650e-04
3.00681818181818e+00 5.86080348785642e-02 4.24910504682057e-04
3.03136363636364e+00 5.83015296126426e-02 4.24410124381161e-04
3.05590909090909e+00 5.79966272925398e-02 4.23896435427273e-04
3.08045454545455e+00 5.76933195342630e-02 4.23369709706212e-04
3.10500000000000e+00 5.73915979996356e-02 4.22830213912739e-04
3.12954545454545e+00 5.70914543921411e-02 4.22278209712282e-04
3.15409090909091e+00 5.67928804605748e-02 4.21713953825814e-04
3.17863636363636e+00 5.64958679949837e-02 4.21137698183031e-04
3.20318181818182e+00 5.62004088302278e-02 4.20549690000373e-04
3.22772727272727e+00 5.59064948420141e-02 4.19950171926355e-04
3.25227272727273e+00 5.56141179503704e-02 4.19339381798315e-04
3.27681818181818e+00 5.53232701166534e-02 4.18717554042333e-04
3.30136363636364e+00 5.50339433433966e-02 4.18084917851509e-04
3.32590909090909e+00 5.47461296767074e-02 4.17441698549882e-04
3.35045454545455e+00 5.44598212025608e-02 4.16788117394191e-04
3.37500000000000e+00 5.41750100500294e-02 4.16124391632649e-04
3.39954545454545e+00 5.38916883876595e-02 4.15450734626264e-04
3.42409090909091e+00 5.36098484266234e-02 4.14767355902771e-04
3.44863636363636e+00 5.33294824171766e-02 4.14074461272254e-04
3.47318181818182e+00 5.30505826517356e-02 4.13372252876864e-04
3.49772727272727e+00 5.27731414614123e-02 4.12660929301230e-04
3.52227272727273e+00 5.24971512190197e-02 4.11940685332176e-04
3.54681818181818e+00 5.22226043364532e-02 4.11211713209109e-04
3.57136363636364e+00 5.19494932645380e-02 4.10474200953433e-04
3.59590909090909e+00 5.16778104951055e-02 4.09728333587950e-04
3.62045454545455e+00 5.14075485577437e-02 4.08974292939931e-04
3.64500000000000e+00 5.11387000226017e-02 4.08212257678494e-04
3.66954545454545e+00 5.08712574972086e-02 4.07442403408534e-04
3.69409090909091e+00 5.06052136292139e-02 4.06664902705020e-04
3.71863636363636e+00 5.03405611032747e-02 4.05879925203139e-04
3.74318181818182e+00 5.00772926437329e-02 4.05087637629785e-04
3.76772727272727e+00 4.98154010115684e-02 4.04288203889860e-04
3.79227272727273e+00 4.95548790070158e-02 4.03481784835272e-04
3.81681818181818e+00 4.92957194672573e-02 4.02668539389382e-04
3.84136363636364e+00 4.90379152662728e-02 4.01848623015360e-04
3.86590909090909e+00 4.87814593166483e-02 4.01022188813925e-04
3.89045454545455e+00 4.85263445667106e-02 4.00189387332642e-04
3.91500000000000e+00 4.82725640029755e-02 3.99350366589542e-04
3.93954545454545e+00 4.80201106473409e-02 3.98505272147753e-04
3.96409090909091e+00 4.77689775594814e-02 3.97654247137079e-04
3.98863636363636e+00 4.75191578340982e-02 3.96797432325943e-04
4.01318181818182e+00 4.72706446032615e-02 3.95934966140961e-04
4.03772727272727e+00 4.70234310337164e-02 3.95066984736323e-04
4.06227272727273e+00 4.67775103291737e-02 3.94193621774476e-04
4.08681818181818e+00 4.65328757282663e-02 3.93315009442990e-04
4.11136363636364e+00 4.62895205044032e-02 3.92431277049559e-04
4.13590909090909e+00 4.60474379673524e-02 3.91542552015290e-04
4.16045454545455e+00 4.58066214607019e-02 3.90648959692992e-04
4.18500000000000e+00 4.55670643640071e-02 3.89750623381456e-04
4.20954545454545e+00 4.53287600903024e-02 3.88847664386266e-04
4.23409090909091e+00 4.50917020882029e-02 3.87940202032733e-04
4.25863636363636e+00 4.48558838394650e-02 3.87028353724679e-04
4.28318181818182e+00 4.46212988610431e-02 3.86112234956125e-04
4.30772727272727e+00 4.43879407026982e-02 3.85191959368004e-04
4.33227272727273e+00 4.41558029490115e-02 3.84267638541951e-04
4.35681818181818e+00 4.39248792175666e-02 3.83339382923608e-04
4.38136363636364e+00 4.36951631588080e-02 3.82407300532815e-04
4.40590909090909e+00 4.34666484574321e-02 3.81471497865984e-04
4.43045454545454e+00 4.32393288301281e-02 3.80532079724528e-04
4.45500000000000e+00 4.30131980274696e-02 3.79589149222999e-04
4.47954545454545e+00 4.27882498316989e-02 3.78642807839366e-04
4.50409090909091e+00 4.25644780585799e-02 3.77693155422264e-04
4.52863636363636e+00 4.23418765552242e-02 3.76740290239790e-04
4.55318181818182e+00 4.21204392019058e-02 3.75784308985808e-04
4.57772727272727e+00 4.19001599099285e-02 3.74825306827246e-04
4.60227272727273e+00 4.16810326234038e-02 3.73863377211064e-04
4.62681818181818e+00 4.14630513176270e-02 3.72898612705519e-04
4.65136363636364e+00 4.12462099989407e-02 3.71931103814961e-04
4.67590909090909e+00 4.10305027059623e-02 3.70960939802300e-04
4.70045454545455e+00 4.08159235075654e-02 3.69988208527948e-04
4.72500000000000e+00 4.06024665045534e-02 3.69012996453674e-04
4.74954545454545e+00 4.03901258276783e-02 3.68035388684929e-04
4.77409090909091e+00 4.01788956392806e-02 3.67055468974179e-04
4.79863636363636e+00 3.99687701313451e-02 3.66073319761995e-04
4.82318181818182e+00 3.97597435271078e-02 3.65089022179742e-04
4.84772727272727e+00 3.95518100791473e-02 3.64102656089503e-04
4.87227272727273e+00 3.93449640709600e-02 3.63114299904079e-04
4.89681818181818e+00 3.91391998155041e-02 3.62124031355572e-04
4.92136363636364e+00 3.89345116550690e-02 3.61131926405132e-04
4.94590909090909e+00 3.87308939623618e-02 3.60138059994720e-04
4.97045454545454e+00 3.85283411386975e-02 3.59142505896386e-04
4.99500000000000e+00 3.83268476154842e-02 3.58145336713294e-04
5.01954545454545e+00 3.81264078524467e-02 3.57146623915758e-04
5.04409090909091e+00 3.79270163390822e-02 3.56146437841798e-04
5.06863636363636e+00 3.77286675929158e-02 3.55144847732322e-04
5.09318181818182e+00 3.75313561609276e-02 3.54141921731270e-04
5.11772727272727e+00 3.73350766178399e-02 3.53137726919733e-04
5.14227272727273e+00 3.71398235675164e-02 3.52132329148389e-04
5.16681818181818e+00 3.69455916416538e-02 3.51125793741357e-04
5.19136363636364e+00 3.67523754996558e-02 3.50118184492298e-04
5.21590909090909e+00 3.65601698295982e-02 3.49109564353087e-04
5.24045454545455e+00 3.63689693466016e-02 3.48099995293090e-04
5.26500000000000e+00 3.61787687941537e-02 3.47089538298198e-04
5.28954545454545e+00 3.59895629425106e-02 3.46078253401905e-04
5.31409090909091e+00 3.58013465899936e-02 3.45066199684023e-04
5.33863636363636e+00 3.56141145614193e-02 3.44053435300999e-04
5.36318181818182e+00 3.54278617093709e-02 3.43040017484340e-04
5.38772727272727e+00 3.52425829126560e-02 3.42026002570151e-04
5.41227272727273e+00 3.50582730775535e-02 3.41011445843278e-04
5.43681818181818e+00 3.48749271366341e-02 3.39996402183134e-04
5.46136363636364e+00 3.46925400486400e-02 3.38980925138461e-04
5.48590909090909e+00 3.45111067993433e-02 3.37965067559339e-04
5.51045454545454e+00 3.43306224000798e-02 3.36948881466047e-04
5.53500000000000e+00 3.41510818889283e-02 3.35932418046792e-04
5.55954545454545e+00 3.39724803292697e-02 3.34915727684728e-04
5.58409090909091e+00 3.37948128109437e-02 3.33898859955367e-04
5.60863636363636e+00 3.36180744488330e-02 3.32881863653000e-04
5.63318181818182e+00 3.34422603839986e-02 3.31864786787940e-04
5.65772727272727e+00 3.32673657822879e-02 3.30847676612244e-04
5.68227272727273e+00 3.30933858354484e-02 3.29830579474944e-04
5.70681818181818e+00 3.29203157600622e-02 3.28813541415634e-04
5.73136363636364e+00 3.27481507974300e-02 3.27796607310888e-04
5.75590909090909e+00 3.25768862143384e-02 3.26779821455225e-04
5.78045454545455e+00 3.24065173017340e-02 3.25763227439101e-04
5.80500000000000e+00 3.22370393757787e-02 3.24746868145684e-04
5.82954545454545e+00 3.20684477765466e-02 3.23730785774498e-04
5.85409090909091e+00 3.19007378690601e-02 3.22715021838058e-04
5.87863636363636e+00 3.17339050420085e-02 3.21699617184974e-04
5.90318181818182e+00 3.15679447087647e-02 3.20684611996466e-04
5.92772727272727e+00 3.14028523061260e-02 3.19670045809002e-04
5.95227272727273e+00 3.12386232953116e-02 3.18655957379730e-04
5.97681818181818e+00 3.10752531609966e-02 3.17642385232898e-04
6.00136363636364e+00 3.09127374112024e-02 3.16629366871721e-04
6.02590909090909e+00 3.07510715779819e-02 3.15616939313200e-04
6.05045454545454e+00 3.05902512162193e-02 3.14605138974576e-04
6.07500000000000e+00 3.04302719045761e-02 3.13594001669596e-04
6.09954545454545e+00 3.02711292443103e-02 3.12583562629315e-04
6.12409090909091e+00 3.01128188602056e-02 3.11573856498164e-04
6.14863636363636e+00 2.99553363994103e-02 3.10564917354427e-04
6.17318181818182e+00 2.97986775323491e-02 3.09556778706181e-04
6.19772727272727e+00 2.96428379515815e-02 3.08549473511292e-04
6.22227272727273e+00 2.94878133726973e-02 3.07543034052507e-04
6.24681818181818e+00 2.93335995334391e-02 3.06537492441016e-04
6.27136363636364e+00 2.91801921935983e-02 3.05532879888122e-04
6.29590909090909e+00 2.90275871356287e-02 3.04529227198297e-04
6.32045454545455e+00 2.88757801635579e-02 3.03526564663540e-04
6.34500000000000e+00 2.87247671038363e-02 3.02524922059213e-04
6.36954545454545e+00 2.85745438042658e-02 3.01524328662548e-04
6.39409090909091e+00 2.84251061348345e-02 3.00524813248383e-04
6.41863636363636e+00 2.82764499866621e-02 2.99526404107327e-04
6.44318181818182e+00 2.81285712728200e-02 2.98529129041410e-04
6.46772727272727e+00 2.79814659272941e-02 2.97533015381859e-04
6.49227272727273e+00 2.78351299057894e-02 2.96538089873083e-04
6.51681818181818e+00 2.76895591849328e-02 2.95544379137360e-04
6.54136363636364e+00 2.75447497621731e-02 2.94551909001150e-04
6.56590909090909e+00 2.74006976563328e-02 2.93560704950177e-04
6.59045454545454e+00 2.72573989066175e-02 2.92570792031222e-04
6.61500000000000e+00 2.71148495733805e-02 2.91582194847682e-04
6.63954545454545e+00 2.69730457371484e-02 2.90594937576092e-04
6.66409090909091e+00 2.68319834993719e-02 2.89609043961713e-04
6.68863636363636e+00 2.66916589814676e-02 2.88624537334691e-04
6.71318181818182e+00 2.65520683255551e-02 2.87641440605570e-04
6.73772727272727e+00 2.64132076935143e-02 2.86659776281167e-04
6.76227272727273e+00 2.62750732677094e-02 2.85679566356790e-04
6.78681818181818e+00 2.61376612502626e-02 2.84700832745505e-04
6.81136363636364e+00 2.60009678629595e-02 2.83723596654609e-04
6.83590909090909e+00 2.58649893477446e-02 2.82747879006002e-04
6.86045454545455e+00 2.57297219658196e-02 2.81773700344860e-04
6.88500000000000e+00 2.55951619983324e-02 2.80801080835160e-04
6.90954545454545e+00 2.54613057454896e-02 2.79830040274440e-04
6.93409090909091e+00 2.53281495272335e-02 2.78860598089283e-04
6.95863636363636e+00 2.51956896823686e-02 2.77892773349826e-04
6.98318181818182e+00 2.50639225692271e-02 2.76926584765209e-04
7.00772727272727e+00 2.49328445648087e-02 2.75962050697836e-04
7.03227272727273e+00 2.48024520654347e-02 2.74999189063199e-04
7.05681818181818e+00 2.46727414860844e-02 2.74038017726803e-04
7.08136363636364e+00 2.45437092603058e-02 2.73078553926634e-04
7.10590909090909e+00 2.44153518406612e-02 2.72120814661875e-04
7.13045454545454e+00 2.42876656979056e-02 2.71164816607953e-04
7.15500000000000e+00 2.41606473216075e-02 2.70210576112072e-04
7.17954545454545e+00 2.40342932193405e-02 2.69258109206496e-04
7.20409090909091e+00 2.39085999172936e-02 2.68307431603996e-04
7.22863636363636e+00 2.37835639594747e-02 2.67358558710932e-04
7.25318181818182e+00 2.36591819083112e-02 2.66411505622728e-04
7.27772727272727e+00 2.35354503438655e-02 2.65466287136638e-04
7.30227272727273e+00 2.34123658644250e-02 2.64522917658731e-04
7.32681818181818e+00 2.32899250858966e-02 2.63581411571197e-04
7.35136363636364e+00 2.31681246417210e-02 2.62641782697005e-04
7.37590909090909e+00 2.30469611832751e-02 2.61704044659691e-04
7.40045454545455e+00 2.29264313791211e-02 2.60768210804345e-04
7.42500000000000e+00 2.28065319155685e-02 2.59834294193228e-04
7.44954545454545e+00 2.26872594959343e-02 2.58902307617671e-04
7.47409090909091e+00 2.25686108410960e-02 2.57972263593650e-04
7.49863636363636e+00 2.24505826887630e-02 2.57044174373568e-04
7.52318181818182e+00 2.23331717940201e-02 2.56118051941789e-04
7.54772727272727e+00 2.22163749286104e-02 2.55193908026187e-04
7.57227272727273e+00 2.21001888814692e-02 2.54271754011621e-04
7.59681818181818e+00 2.19846104581693e-02 2.53351601280170e-04
7.62136363636364e+00 2.18696364808402e-02 2.52433460714627e-04
7.64590909090909e+00 2.17552637885314e-02 2.51517343031778e-04
7.67045454545454e+00 2.16414892365254e-02 2.50603258708845e-04
7.69500000000000e+00 2.15283096968463e-02 2.49691217979174e-04
7.71954545454545e+00 2.14157220575836e-02 2.48781230843047e-04
7.74409090909091e+00 2.13037232233921e-02 2.47873307063318e-04
