Energy (eV)          EEDF (eV^-(3/2))     First Anisotropy
4.95454545454545e-02 3.85213781250281e-02 2.51106252864878e-05
1.48636363636364e-01 3.81203582704544e-02 4.13880873737600e-05
2.47727272727273e-01 3.77235131609765e-02 5.44341712897802e-05
3.46818181818182e-01 3.73307993358978e-02 6.42228295261870e-05
4.45909090909091e-01 3.69421737872238e-02 7.22859004255364e-05
5.45000000000000e-01 3.65575939546883e-02 7.92056224319606e-05
6.44090909090909e-01 3.61770177204528e-02 8.52848213488447e-05
7.43181818181818e-01 3.58004034065268e-02 9.07072615267575e-05
8.42272727272727e-01 3.54277097680226e-02 9.55954070973116e-05
9.41363636363636e-01 3.50588959894364e-02 1.00036226006580e-04
1.04045454545455e+00 3.46939216801734e-02 1.04094400061254e-04
1.13954545454545e+00 3.43327468701216e-02 1.07819761544642e-04
1.23863636363636e+00 3.39753320049550e-02 1.11251785264878e-04
1.33772727272727e+00 3.36216379424990e-02 1.14422454226187e-04
1.43681818181818e+00 3.32716259480491e-02 1.17358169323126e-04
1.53590909090909e+00 3.29252576901331e-02 1.20081068193339e-04
1.63500000000000e+00 3.25824952363151e-02 1.22609963535743e-04
1.73409090909091e+00 3.22433010510533e-02 1.24961028642453e-04
1.83318181818182e+00 3.19076379854210e-02 1.27148308001711e-04
1.93227272727273e+00 3.15754692793600e-02 1.29184105406901e-04
2.03136363636364e+00 3.12467585554923e-02 1.31079284848806e-04
2.13045454545455e+00 3.09214698151370e-02 1.32843505946976e-04
2.22954545454545e+00 3.05995674343684e-02 1.34485411269598e-04
2.32863636363636e+00 3.02810161601073e-02 1.36012777022909e-04
2.42772727272727e+00 2.99657811062778e-02 1.37432635581104e-04
2.52681818181818e+00 2.96538277499777e-02 1.38751376092239e-04
2.62590909090909e+00 2.93451219276978e-02 1.39974827814374e-04
2.72500000000000e+00 2.90396298315806e-02 1.41108329586998e-04
2.82409090909091e+00 2.87373180068027e-02 1.42156788768996e-04
2.92318181818182e+00 2.84381533446026e-02 1.43124730592053e-04
3.02227272727273e+00 2.81421030820215e-02 1.44016340200958e-04
3.12136363636364e+00 2.78491347971726e-02 1.44835499326029e-04
3.22045454545455e+00 2.75592164056905e-02 1.45585817439623e-04
3.31954545454545e+00 2.72723161572175e-02 1.46270658880828e-04
3.41863636363636e+00 2.69884026319233e-02 1.46893166482097e-04
3.51772727272727e+00 2.67074447370716e-02 1.47456282244125e-04
3.61681818181818e+00 2.64294117036106e-02 1.47962765504940e-04
3.71590909090909e+00 2.61542730828038e-02 1.48415208968822e-04
3.81500000000000e+00 2.58819987428952e-02 1.48816052807596e-04
3.91409090909091e+00 2.56125588665030e-02 1.49167597564231e-04
4.01318181818182e+00 2.53459239452449e-02 1.49472015211546e-04
4.11227272727273e+00 2.50820647786463e-02 1.49731359023181e-04
4.21136363636364e+00 2.48209524702186e-02 1.49947572902169e-04
4.31045454545455e+00 2.45625584242945e-02 1.50122499410608e-04
4.40954545454545e+00 2.43068543428964e-02 1.50257887105902e-04
4.50863636363636e+00 2.40538122226360e-02 1.50355397177767e-04
4.60772727272727e+00 2.38034043516505e-02 1.50416609468820e-04
4.70681818181818e+00 2.35556033065664e-02 1.50443027949064e-04
4.80590909090909e+00 2.33103819494961e-02 1.50436085703928e-04
4.90500000000000e+00 2.30677134250659e-02 1.50397149415571e-04
5.00409090909091e+00 2.28275711579563e-02 1.50327523757433e-04
5.10318181818182e+00 2.25899288485292e-02 1.50228455066011e-04
5.20227272727273e+00 2.23547604714289e-02 1.50101134699992e-04
5.30136363636364e+00 2.21220402722321e-02 1.49946702505779e-04
5.40045454545455e+00 2.18917427646269e-02 1.49766249720703e-04
5.49954545454545e+00 2.16638427276220e-02 1.49560821726907e-04
5.59863636363636e+00 2.14383152027834e-02 1.49331420598717e-04
5.69772727272727e+00 2.12151354915037e-02 1.49079007463394e-04
5.79681818181818e+00 2.09942791522954e-02 1.48804504692313e-04
5.89590909090909e+00 2.07757219981148e-02 1.48508797936945e-04
5.99500000000000e+00 2.05594400937128e-02 1.48192737963868e-04
6.09409090909091e+00 2.03454097533656e-02 1.47857142602536e-04
6.19318181818182e+00 2.01336075372134e-02 1.47502798271381e-04
6.29227272727273e+00 1.99240102497729e-02 1.47130461393902e-04
6.39136363636364e+00 1.97165949370336e-02 1.46740860026495e-04
6.49045454545455e+00 1.95113388839430e-02 1.46334695144839e-04
6.58954545454545e+00 1.93082196119199e-02 1.45912641909283e-04
6.68863636363636e+00 1.91072148763914e-02 1.45475350852389e-04
6.78772727272727e+00 1.89083026643583e-02 1.45023448995121e-04
6.88681818181818e+00 1.87114611919838e-02 1.44557540897103e-04
6.98590909090909e+00 1.85166689022077e-02 1.44078209645291e-04
7.08500000000000e+00 1.83239044623854e-02 1.43586017736733e-04
7.18409090909091e+00 1.81331467622178e-02 1.43081508106851e-04
7.28318181818182e+00 1.79443749106334e-02 1.42565204859851e-04
7.38227272727273e+00 1.77575682343153e-02 1.42037613951971e-04
7.48136363636364e+00 1.75727062751621e-02 1.41499224087408e-04
7.58045454545455e+00 1.73897687880479e-02 1.40950507369692e-04
7.67954545454545e+00 1.72087357386047e-02 1.40391919967830e-04
7.77863636363636e+00 1.70295873010287e-02 1.39823902747822e-04
7.87772727272727e+00 1.68523038559090e-02 1.39246881872123e-04
7.97681818181818e+00 1.66768659880792e-02 1.38661269369138e-04
8.07590909090909e+00 1.65032544844909e-02 1.38067463674235e-04
8.17500000000000e+00 1.63314503321096e-02 1.37465850103519e-04
8.27409090909091e+00 1.61614347160379e-02 1.36856801467248e-04
8.37318181818182e+00 1.59931890168326e-02 1.36240678453355e-04
8.47227272727273e+00 1.58266948090945e-02 1.35617829987678e-04
8.57136363636364e+00 1.56619338592385e-02 1.34988593785159e-04
8.67045454545454e+00 1.54988881234970e-02 1.34353296711531e-04
8.76954545454545e+00 1.53375397459440e-02 1.33712255169530e-04
8.86863636363636e+00 1.51778710565386e-02 1.33065775467674e-04
8.96772727272727e+00 1.50198645691914e-02 1.32414154172882e-04
9.06681818181818e+00 1.48635029798484e-02 1.31757678447808e-04
9.16590909090909e+00 1.47087691645965e-02 1.31096626373429e-04
9.26500000000000e+00 1.45556461777880e-02 1.30431267223750e-04
9.36409090909091e+00 1.44041172503461e-02 1.29761861865165e-04
9.46318181818182e+00 1.42541657874395e-02 1.29088662970607e-04
9.56227272727273e+00 1.41057753671590e-02 1.28411915220797e-04
9.66136363636364e+00 1.39589297385526e-02 1.27731855671580e-04
9.76045454545454e+00 1.38136128198459e-02 1.27048713968371e-04
9.85954545454545e+00 1.36698086966812e-02 1.26362712586451e-04
9.95863636363636e+00 1.35275016203736e-02 1.25674067000755e-04
1.00577272727273e+01 1.33866760064652e-02 1.24982986061972e-04
1.01568181818182e+01 1.32473164323124e-02 1.24289672147307e-04
1.02559090909091e+01 1.31094076359682e-02 1.23594321239106e-04
1.03550000000000e+01 1.29729345143673e-02 1.22897123537542e-04
1.04540909090909e+01 1.28378821203856e-02 1.22198262746508e-04
1.05531818181818e+01 1.27042356651043e-02 1.21497916842088e-04
1.06522727272727e+01 1.25719805122474e-02 1.20796258843143e-04
1.07513636363636e+01 1.24411021779076e-02 1.20093456082310e-04
1.08504545454545e+01 1.23115863289595e-02 1.19389670671761e-04
1.09495454545455e+01 1.21834187814907e-02 1.18685059661148e-04
1.10486363636364e+01 1.20565854992463e-02 1.17979775188932e-04
1.11477272727273e+01 1.19310725920950e-02 1.17273964629057e-04
1.12468181818182e+01 1.18068663145064e-02 1.16567770733177e-04
1.13459090909091e+01 1.16839530640456e-02 1.15861331766934e-04
1.14450000000000e+01 1.15623193798834e-02 1.15154781886217e-04
1.15440909090909e+01 1.14419519402841e-02 1.14448250525283e-04
1.16431818181818e+01 1.13228375642929e-02 1.13741863016302e-04
1.17422727272727e+01 1.12049632071137e-02 1.13035741212532e-04
1.18413636363636e+01 1.10883159597507e-02 1.12330002841695e-04
1.19404545454545e+01 1.09728830475952e-02 1.11624761873426e-04
1.20395454545455e+01 1.08586518290264e-02 1.10920128627139e-04
1.21386363636364e+01 1.07456097940257e-02 1.10216209875652e-04
1.22377272727273e+01 1.06337445628092e-02 1.09513108945966e-04
1.23368181818182e+01 1.05230438844704e-02 1.08810925817345e-04
1.24359090909091e+01 1.04134956356389e-02 1.08109757215480e-04
1.25350000000000e+01 1.03050878191526e-02 1.07409696912053e-04
1.26340909090909e+01 1.01978085618984e-02 1.06710835183668e-04
1.27331818181818e+01 1.00916461160728e-02 1.06013259320316e-04
1.28322727272727e+01 9.98658885530932e-03 1.05317054138016e-04
1.29313636363636e+01 9.88262527427538e-03 1.04622301410822e-04
1.30304545454545e+01 9.77974398741286e-03 1.03929080167093e-04
1.31295454545455e+01 9.67793372769099e-03 1.03237466765479e-04
1.32286363636364e+01 9.57718334537167e-03 1.02547534968030e-04
1.33277272727273e+01 9.47748180679008e-03 1.01859356011509e-04
1.34268181818182e+01 9.37881819314542e-03 1.01172998676986e-04
1.35259090909091e+01 9.28118169930516e-03 1.00488529356766e-04
1.36250000000000e+01 9.18456163262176e-03 9.98060122974667e-05
1.37240909090909e+01 9.08894741106823e-03 9.91255091249599e-05
1.38231818181818e+01 8.99432856417948e-03 9.84470792669943e-05
1.39222727272727e+01 8.90069472978493e-03 9.77707803800451e-05
1.40213636363636e+01 8.80803565358754e-03 9.70966678527731e-05
1.41204545454545e+01 8.71634118804087e-03 9.64247950486992e-05
1.42195454545455e+01 8.62560129123773e-03 9.57552133610088e-05
1.43186363636364e+01 8.53580602580989e-03 9.50879722653471e-05
1.44177272727273e+01 8.44694555784096e-03 9.44231193714368e-05
1.45168181818182e+01 8.35901015578882e-03 9.37607004735604e-05
1.46159090909091e+01 8.27199018941987e-03 9.31007595991586e-05
1.47150000000000e+01 8.18587612875438e-03 9.24433392088544e-05
1.48140909090909e+01 8.10065854245044e-03 9.17884797808536e-05
1.49131818181818e+01 8.01632809850444e-03 9.11362201655029e-05
1.50122727272727e+01 7.93287556147913e-03 9.04865979438637e-05
1.51113636363636e+01 7.85029179208119e-03 8.98396489946469e-05
1.52104545454545e+01 7.76856774616029e-03 8.91954076953056e-05
1.53095454545455e+01 7.68769447371865e-03 8.85539069622985e-05
1.54086363636364e+01 7.60766311793044e-03 8.79151782899026e-05
1.55077272727273e+01 7.52846491417272e-03 8.72792517882165e-05
1.56068181818182e+01 7.45009118906512e-03 8.66461562204167e-05
1.57059090909091e+01 7.37253335951999e-03 8.60159190386335e-05
1.58050000000000e+01 7.29578293180239e-03 8.53885665502778e-05
1.59040909090909e+01 7.21983150012486e-03 8.47641235550948e-05
1.60031818181818e+01 7.14467074716530e-03 8.41426136447167e-05
1.61022727272727e+01 7.07029244170413e-03 8.35240595059384e-05
1.62013636363636e+01 6.99668843821146e-03 8.29084825433443e-05
1.63004545454545e+01 6.92385067595499e-03 8.22959030474391e-05
1.63995454545455e+01 6.85177117811726e-03 8.16863402246347e-05
1.64986363636364e+01 6.78044205092171e-03 8.10798122261697e-05
1.65977272727273e+01 6.70985548276893e-03 8.04763361764808e-05
1.66968181818182e+01 6.64000374338080e-03 7.98759282010453e-05
1.67959090909091e+01 6.57087918295386e-03 7.92786034532028e-05
1.68950000000000e+01 6.50247423132164e-03 7.86843762535706e-05
1.69940909090909e+01 6.43478139672932e-03 7.80932597733133e-05
1.70931818181818e+01 6.36779326621278e-03 7.75052662886095e-05
1.71922727272727e+01 6.30150250357622e-03 7.69204074385143e-05
1.72913636363636e+01 6.23590184899602e-03 7.63386938961692e-05
1.73904545454545e+01 6.17098411822565e-03 7.57601355103459e-05
1.74895454545455e+01 6.10674220180896e-03 7.51847413280276e-05
1.75886363636364e+01 6.04316906430123e-03 7.46125196161725e-05
1.76877272727273e+01 5.98025774349928e-03 7.40434778830908e-05
1.77868181818182e+01 5.91800134967874e-03 7.34776228994620e-05
1.78859090909091e+01 5.85639306483949e-03 7.29149607185836e-05
1.79850000000000e+01 5.79542614195898e-03 7.23554967939587e-05
1.80840909090909e+01 5.73509390392161e-03 7.17992357029260e-05
1.81831818181818e+01 5.67538974379172e-03 7.12461813637785e-05
1.82822727272727e+01 5.61630712307661e-03 7.06963372559356e-05
1.83813636363636e+01 5.55783957135143e-03 7.01497061334191e-05
1.84804545454545e+01 5.49998068555054e-03 6.96062901446698e-05
1.85795454545455e+01 5.44272412926626e-03 6.90660908496601e-05
1.86786363636364e+01 5.38606363205478e-03 6.85291092364032e-05
1.87777272727273e+01 5.32999298874984e-03 6.79953457371881e-05
1.88768181818182e+01 5.27450605878297e-03 6.74648002445415e-05
1.89759090909091e+01 5.21959676551099e-03 6.69374721266098e-05
1.90750000000000e+01 5.16525909555058e-03 6.64133603268550e-05
1.91740909090909e+01 5.11148709784079e-03 6.58924631228341e-05
1.92731818181818e+01 5.05827488383536e-03 6.53747783121093e-05
1.93722727272727e+01 5.00561662600626e-03 6.48603034009015e-05
1.94713636363636e+01 4.95350655749191e-03 6.43490353542672e-05
1.95704545454545e+01 4.90193897146561e-03 6.38409706979648e-05
1.96695454545455e+01 4.85090822051057e-03 6.33361055315060e-05
1.97686363636364e+01 4.80040871600128e-03 6.28344355407336e-05
1.98677272727273e+01 4.75043492749178e-03 6.23359560101972e-05
1.99668181818182e+01 4.70098138210984e-03 6.18406618353460e-05
2.00659090909091e+01 4.65204266395762e-03 6.13485475342579e-05
2.01650000000000e+01 4.60361341351850e-03 6.08596073324982e-05
2.02640909090909e+01 4.55568832683504e-03 6.03738349525079e-05
2.03631818181818e+01 4.50826215563969e-03 5.98912237732577e-05
2.04622727272727e+01 4.46132970606215e-03 5.94117669923488e-05
2.05613636363636e+01 4.41488583830195e-03 5.89354574080648e-05
2.06604545454545e+01 4.36892546606564e-03 5.84622875062933e-05
2.07595454545455e+01 4.32344355600969e-03 5.79922494705057e-05
2.08586363636364e+01 4.27843512718920e-03 5.75253351913619e-05
2.09577272727273e+01 4.23389525051262e-03 5.70615362761756e-05
2.10568181818182e+01 4.18981904820186e-03 5.66008440582344e-05
2.11559090909091e+01 4.14620169325805e-03 5.61432496057753e-05
2.12550000000000e+01 4.10303840893296e-03 5.56887437944599e-05
2.13540909090909e+01 4.06032446800697e-03 5.52373171233680e-05
2.14531818181818e+01 4.01805519287318e-03 5.47889598524668e-05
2.15522727272727e+01 3.97622595441803e-03 5.43436621422299e-05
2.16513636363636e+01 3.93483217171857e-03 5.39014138633585e-05
2.17504545454545e+01 3.89386931154070e-03 5.34622046711830e-05
2.18495454545455e+01 3.85333288784277e-03 5.30260240133022e-05
2.19486363636364e+01 3.81321846128416e-03 5.25928611369194e-05
2.20477272727273e+01 3.77352163873931e-03 5.21627050960751e-05
2.21468181818182e+01 3.73423807281655e-03 5.17355447587882e-05
2.22459090909091e+01 3.69536346138191e-03 5.13113688139039e-05
2.23450000000000e+01 3.65689354708806e-03 5.08901658331823e-05
2.24440909090909e+01 3.61882411673940e-03 5.04719241104449e-05
2.25431818181818e+01 3.58115100134087e-03 5.00566317801775e-05
2.26422727272727e+01 3.54387007512674e-03 4.96442769380428e-05
2.27413636363636e+01 3.50697725528183e-03 4.92348474746480e-05
2.28404545454545e+01 3.47046850149438e-03 4.88283311393940e-05
2.29395454545455e+01 3.43433981551359e-03 4.84247155463020e-05
2.30386363636364e+01 3.39858724071164e-03 4.80239881796139e-05
2.31377272727273e+01 3.36320686165057e-03 4.76261363993133e-05
2.32368181818182e+01 3.32819480365340e-03 4.72311474465725e-05
2.33359090909091e+01 3.29354723237978e-03 4.68390084489782e-05
2.34350000000000e+01 3.25926035340606e-03 4.64497064738445e-05
2.35340909090909e+01 3.22533041166651e-03 4.60632283875074e-05
2.36331818181818e+01 3.19175369147556e-03 4.56795609578453e-05
2.37322727272727e+01 3.15852651568363e-03 4.52986909584875e-05
2.38313636363636e+01 3.12564524542147e-03 4.49206050234796e-05
2.39304545454545e+01 3.09310627970161e-03 4.45452897022000e-05
2.40295454545455e+01 3.06090605502404e-03 4.41727314637932e-05
2.41286363636364e+01 3.02904104498584e-03 4.38029167014215e-05
2.42277272727273e+01 2.99750775989517e-03 4.34358317364605e-05
2.43268181818182e+01 2.96630274638898e-03 4.30714628226395e-05
2.44259090909091e+01 2.93542258705488e-03 4.27097961500057e-05
2.45250000000000e+01 2.90486390005681e-03 4.23508178907963e-05
2.46240909090909e+01 2.87462333864268e-03 4.19945140762857e-05
2.47231818181818e+01 2.84469759114707e-03 4.16408706855420e-05
2.48222727272727e+01 2.81508338025617e-03 4.12898737356815e-05
2.49213636363636e+01 2.78577746277408e-03 4.09415091547209e-05
2.50204545454545e+01 2.75677662926758e-03 4.05957628288955e-05
2.51195454545455e+01 2.72807770371470e-03 4.02526206060087e-05
2.52186363636364e+01 2.69967754315682e-03 3.99120682986413e-05
2.53177272727273e+01 2.67157303735460e-03 3.95740916873179e-05
2.54168181818182e+01 2.64376110844727e-03 3.92386765236306e-05
2.55159090909091e+01 2.61623871061560e-03 3.89058085332161e-05
2.56150000000000e+01 2.58900282974831e-03 3.85754734553031e-05
2.57140909090909e+01 2.56205048300783e-03 3.82476569348542e-05
2.58131818181818e+01 2.53537871881874e-03 3.79223445995177e-05
2.59122727272727e+01 2.50898461622675e-03 3.75995221379042e-05
2.60113636363636e+01 2.48286528468566e-03 3.72791751882694e-05
2.61104545454545e+01 2.45701786374075e-03 3.69612893793595e-05
2.62095454545455e+01 2.43143952271559e-03 3.66458503329209e-05
2.63086363636364e+01 2.40612746040194e-03 3.63328436660902e-05
2.64077272727273e+01 2.38107890475308e-03 3.60222549937587e-05
2.65068181818182e+01 2.35629111258019e-03 3.57140699309024e-05
2.66059090909091e+01 2.33176136925194e-03 3.54082740948006e-05
2.67050000000000e+01 2.30748698839718e-03 3.51048531391775e-05
2.68040909090909e+01 2.28346531152169e-03 3.48037926596803e-05
2.69031818181818e+01 2.25969370798642e-03 3.45050782606820e-05
2.70022727272727e+01 2.23616957444778e-03 3.42086956232530e-05
2.71013636363636e+01 2.21289033466380e-03 3.39146304076464e-05
2.72004545454545e+01 2.18985343921202e-03 3.36228682886037e-05
2.72995454545455e+01 2.16705636521028e-03 3.33333949572082e-05
2.73986363636364e+01 2.14449661604042e-03 3.30461961226376e-05
2.74977272727273e+01 2.12217172107490e-03 3.27612575139027e-05
2.75968181818182e+01 2.10007923540620e-03 3.24785648815617e-05
2.76959090909091e+01 2.07821673957909e-03 3.21981039993426e-05
2.77950000000000e+01 2.05658183932564e-03 3.19198606936585e-05
2.78940909090909e+01 2.03517216522675e-03 3.16438207607245e-05
2.79931818181818e+01 2.01398537268337e-03 3.13699700246200e-05
2.80922727272727e+01 1.99301914142708e-03 3.10982943963763e-05
2.81913636363636e+01 1.97227117534423e-03 3.08287797884978e-05
2.82904545454545e+01 1.95173920222443e-03 3.05614121455219e-05
2.83895454545455e+01 1.93142097351174e-03 3.02961774453565e-05
2.84886363636364e+01 1.91131426405836e-03 3.00330617005391e-05
2.85877272727273e+01 1.89141687188104e-03 2.97720509594879e-05
2.86868181818182e+01 1.87172661791990e-03 2.95131313077333e-05
2.87859090909091e+01 1.85224134579975e-03 2.92562888690744e-05
2.88850000000000e+01 1.83295892159395e-03 2.90015098311284e-05
2.89840909090909e+01 1.81387723352535e-03 2.87487803726160e-05
2.90831818181818e+01 1.79499419193279e-03 2.84980867138703e-05
2.91822727272727e+01 1.77630772884282e-03 2.82494151682579e-05
2.92813636363636e+01 1.75781579781026e-03 2.80027520672088e-05
2.93804545454545e+01 1.73951637369407e-03 2.77580837866933e-05
2.94795454545455e+01 1.72140745243557e-03 2.75153967481623e-05
2.95786363636364e+01 1.70348705083898e-03 2.72746774194239e-05
2.96777272727273e+01 1.68575320635423e-03 2.70359123155061e-05
2.97768181818182e+01 1.66820397686203e-03 2.67990879995183e-05
2.98759090909091e+01 1.65083744046117e-03 2.65641910834446e-05
2.99750000000000e+01 1.63365169525806e-03 2.63312082502835e-05
3.00740909090909e+01 1.61664485910224e-03 2.61001261902225e-05
3.01731818181818e+01 1.59981506955021e-03 2.58709316446150e-05
3.02722727272727e+01 1.58316048349012e-03 2.56436114507716e-05
3.03713636363636e+01 1.56667927699748e-03 2.54181524761660e-05
3.04704545454545e+01 1.55036964513547e-03 2.51945416414022e-05
3.05695454545455e+01 1.53422980175723e-03 2.49727659208482e-05
3.06686363636364e+01 1.51825797931023e-03 2.47528123432078e-05
3.07677272727273e+01 1.50245242864277e-03 2.45346679920907e-05
3.08668181818182e+01 1.48681141881236e-03 2.43183200065808e-05
3.09659090909091e+01 1.47133323689621e-03 2.41037555817486e-05
3.10650000000000e+01 1.45601618780358e-03 2.38909619878604e-05
3.11640909090909e+01 1.44085859404185e-03 2.36799265143153e-05
3.12631818181818e+01 1.42585879567896e-03 2.34706365079787e-05
