Energy (eV)          EEDF (eV^-(3/2))     First Anisotropy
2.70634920634921e-02 3.62612408677374e-02 1.71503023002753e-05
8.11904761904762e-02 3.60630303224565e-02 2.83378889354664e-05
1.35317460317460e-01 3.58659032325721e-02 3.74565824242492e-05
1.89444444444444e-01 3.56698536753303e-02 4.44130263667578e-05
2.43571428571429e-01 3.54748757597714e-02 5.02387615432590e-05
2.97698412698413e-01 3.52809636292492e-02 5.53230019772688e-05
3.51825396825397e-01 3.50881114578922e-02 5.98667756523873e-05
4.05952380952381e-01 3.48963134517209e-02 6.39912475954586e-05
4.60079365079365e-01 3.47055638484459e-02 6.77766261436940e-05
5.14206349206349e-01 3.45158569172811e-02 7.12794952845986e-05
5.68333333333333e-01 3.43271869587815e-02 7.45416635869556e-05
6.22460317460317e-01 3.41395483046588e-02 7.75951324969891e-05
6.76587301587302e-01 3.39529353173241e-02 8.04650894563060e-05
7.30714285714286e-01 3.37673423906056e-02 8.31718124571530e-05
7.84841269841270e-01 3.35827639486583e-02 8.57319359269635e-05
8.38968253968254e-01 3.33991944461178e-02 8.81593225889041e-05
8.93095238095238e-01 3.32166283679320e-02 9.04656823474399e-05
9.47222222222222e-01 3.30350602291952e-02 9.26610227841319e-05
1.00134920634921e+00 3.28544845749858e-02 9.47539843758068e-05
1.05547619047619e+00 3.26748959798442e-02 9.67520944074364e-05
1.10960317460317e+00 3.24962890493525e-02 9.86619634112044e-05
1.16373015873016e+00 3.23186584159247e-02 1.00489437913861e-04
1.21785714285714e+00 3.21419987445331e-02 1.02239722112648e-04
1.27198412698413e+00 3.19663047276277e-02 1.03917476158469e-04
1.32611111111111e+00 3.17915710854087e-02 1.05526893960246e-04
1.38023809523810e+00 3.16177925696191e-02 1.07071768750230e-04
1.43436507936508e+00 3.14449639581055e-02 1.08555546376716e-04
1.48849206349206e+00 3.12730800597533e-02 1.09981369800998e-04
1.54261904761905e+00 3.11021357094114e-02 1.11352116485715e-04
1.59674603174603e+00 3.09321257724914e-02 1.12670429745892e-04
1.65087301587302e+00 3.07630451412623e-02 1.13938746302026e-04
1.70500000000000e+00 3.05948887349541e-02 1.15159318147908e-04
1.75912698412698e+00 3.04276515025854e-02 1.16334232977487e-04
1.81325396825397e+00 3.02613284188248e-02 1.17465431072895e-04
1.86738095238095e+00 3.00959144877131e-02 1.18554719926458e-04
1.92150793650794e+00 2.99314047396158e-02 1.19603787801009e-04
1.97563492063492e+00 2.97677942312578e-02 1.20614214083487e-04
2.02976190476190e+00 2.96050780480646e-02 1.21587479860780e-04
2.08388888888889e+00 2.94432513006890e-02 1.22524976559315e-04
2.13801587301587e+00 2.92823091281044e-02 1.23428013703052e-04
2.19214285714286e+00 2.91222466943000e-02 1.24297825848974e-04
2.24626984126984e+00 2.89630591912141e-02 1.25135578593426e-04
2.30039682539683e+00 2.88047418362897e-02 1.25942374658859e-04
2.35452380952381e+00 2.86472898724531e-02 1.26719257995481e-04
2.40865079365079e+00 2.84906985699957e-02 1.27467218783991e-04
2.46277777777778e+00 2.83349632237306e-02 1.28187197320908e-04
2.51690476190476e+00 2.81800791554918e-02 1.28880087500475e-04
2.57103174603175e+00 2.80260417120167e-02 1.29546740621906e-04
2.62515873015873e+00 2.78728462649061e-02 1.30187967600446e-04
2.67928571428571e+00 2.77204882122419e-02 1.30804542190410e-04
2.73341269841270e+00 2.75689629761036e-02 1.31397203345424e-04
2.78753968253968e+00 2.74182660047277e-02 1.31966657349267e-04
2.84166666666667e+00 2.72683927706512e-02 1.32513580367805e-04
2.89579365079365e+00 2.71193387706544e-02 1.33038619637676e-04
2.94992063492063e+00 2.69710995271701e-02 1.33542395679434e-04
3.00404761904762e+00 2.68236705860894e-02 1.34025503797590e-04
3.05817460317460e+00 2.66770475186480e-02 1.34488515547457e-04
3.11230158730159e+00 2.65312259193109e-02 1.34931980116369e-04
3.16642857142857e+00 2.63862014075843e-02 1.35356425468522e-04
3.22055555555556e+00 2.62419696264295e-02 1.35762359951880e-04
3.27468253968254e+00 2.60985262421914e-02 1.36150272739073e-04
3.32880952380952e+00 2.59558669457899e-02 1.36520635259948e-04
3.38293650793651e+00 2.58139874508283e-02 1.36873902041936e-04
3.43706349206349e+00 2.56728834951953e-02 1.37210511472441e-04
3.49119047619048e+00 2.55325508396404e-02 1.37530887017656e-04
3.54531746031746e+00 2.53929852676986e-02 1.37835437381502e-04
3.59944444444444e+00 2.52541825867459e-02 1.38124557610377e-04
3.65357142857143e+00 2.51161386262959e-02 1.38398629666005e-04
3.70769841269841e+00 2.49788492394259e-02 1.38658022943779e-04
3.76182539682540e+00 2.48423103014902e-02 1.38903095233851e-04
3.81595238095238e+00 2.47065177100391e-02 1.39134192706806e-04
3.87007936507937e+00 2.45714673857624e-02 1.39351650795946e-04
3.92420634920635e+00 2.44371552709449e-02 1.39555794595400e-04
3.97833333333333e+00 2.43035773307440e-02 1.39746939303784e-04
4.03246031746032e+00 2.41707295516904e-02 1.39925390662141e-04
4.08658730158730e+00 2.40386079429240e-02 1.40091445262390e-04
4.14071428571429e+00 2.39072085350583e-02 1.40245391276114e-04
4.19484126984127e+00 2.37765273800965e-02 1.40387508297974e-04
4.24896825396825e+00 2.36465605522500e-02 1.40518068024949e-04
4.30309523809524e+00 2.35173041465707e-02 1.40637334499314e-04
4.35722222222222e+00 2.33887542800650e-02 1.40745564323969e-04
4.41134920634921e+00 2.32609070906546e-02 1.40843007277511e-04
4.46547619047619e+00 2.31337587370912e-02 1.40929906102300e-04
4.51960317460317e+00 2.30073053996958e-02 1.41006497082882e-04
4.57373015873016e+00 2.28815432791043e-02 1.41073010218221e-04
4.62785714285714e+00 2.27564685972766e-02 1.41129669371763e-04
4.68198412698413e+00 2.26320775965418e-02 1.41176692801712e-04
4.73611111111111e+00 2.25083665395115e-02 1.41214292915320e-04
4.79023809523810e+00 2.23853317097502e-02 1.41242676770605e-04
4.84436507936508e+00 2.22629694106211e-02 1.41262046198670e-04
4.89849206349206e+00 2.21412759662028e-02 1.41272597977941e-04
4.95261904761905e+00 2.20202477201649e-02 1.41274524016074e-04
5.00674603174603e+00 2.18998810366586e-02 1.41268011438451e-04
5.06087301587302e+00 2.17801722994579e-02 1.41253243032641e-04
5.11500000000000e+00 2.16611179118736e-02 1.41230396975766e-04
5.16912698412698e+00 2.15427142973446e-02 1.41199647258451e-04
5.22325396825397e+00 2.14249578983983e-02 1.41161163758637e-04
5.27738095238095e+00 2.13078451774632e-02 1.41115112300803e-04
5.33150793650794e+00 2.11913726160741e-02 1.41061655053032e-04
5.38563492063492e+00 2.10755367147856e-02 1.41000950247235e-04
5.43976190476191e+00 2.09603339937128e-02 1.40933152559554e-04
5.49388888888889e+00 2.08457609915661e-02 1.40858413160762e-04
5.54801587301587e+00 2.07318142663967e-02 1.40776879816115e-04
5.60214285714286e+00 2.06184903946550e-02 1.40688696994675e-04
5.65626984126984e+00 2.05057859719146e-02 1.40594005899411e-04
5.71039682539683e+00 2.03936976121511e-02 1.40492944813890e-04
5.76452380952381e+00 2.02822219476568e-02 1.40385648819241e-04
5.81865079365079e+00 2.01713556295216e-02 1.40272250127637e-04
5.87277777777778e+00 2.00610953267569e-02 1.40152878109259e-04
5.92690476190476e+00 1.99514377269615e-02 1.40027659308401e-04
5.98103174603175e+00 1.98423795356478e-02 1.39896717760221e-04
6.03515873015873e+00 1.97339174761590e-02 1.39760174710857e-04
6.08928571428571e+00 1.96260482901096e-02 1.39618148923107e-04
6.14341269841270e+00 1.95187687365690e-02 1.39470756691714e-04
6.19753968253968e+00 1.94120755926737e-02 1.39318111848945e-04
6.25166666666667e+00 1.93059656529992e-02 1.39160326056132e-04
6.30579365079365e+00 1.92004357294765e-02 1.38997508528918e-04
6.35992063492063e+00 1.90954826517989e-02 1.38829766319194e-04
6.41404761904762e+00 1.89911032666578e-02 1.38657204321665e-04
6.46817460317460e+00 1.88872944383083e-02 1.38479925323960e-04
6.52230158730159e+00 1.87840530478226e-02 1.38298030066200e-04
6.57642857142857e+00 1.86813759936414e-02 1.38111617235689e-04
6.63055555555556e+00 1.85792601909973e-02 1.37920783730042e-04
6.68468253968254e+00 1.84777025718339e-02 1.37725624390394e-04
6.73880952380952e+00 1.83767000851709e-02 1.37526232256409e-04
6.79293650793651e+00 1.82762496964034e-02 1.37322698563691e-04
6.84706349206349e+00 1.81763483878122e-02 1.37115112733278e-04
6.90119047619048e+00 1.80769931580228e-02 1.36903562616748e-04
6.95531746031746e+00 1.79781810219262e-02 1.36688134237175e-04
7.00944444444444e+00 1.78799090110154e-02 1.36468912027123e-04
7.06357142857143e+00 1.77821741727279e-02 1.36245978821479e-04
7.11769841269841e+00 1.76849735709193e-02 1.36019415843056e-04
7.17182539682540e+00 1.75883042853537e-02 1.35789302931937e-04
7.22595238095238e+00 1.74921634116259e-02 1.35555718294472e-04
7.28007936507937e+00 1.73965480614735e-02 1.35318738726109e-04
7.33420634920635e+00 1.73014553621583e-02 1.35078439600934e-04
7.38833333333333e+00 1.72068824569053e-02 1.34834894899061e-04
7.44246031746032e+00 1.71128265042979e-02 1.34588177242552e-04
7.49658730158730e+00 1.70192846787056e-02 1.34338357876904e-04
7.55071428571429e+00 1.69262541698147e-02 1.34085506881784e-04
7.60484126984127e+00 1.68337321825527e-02 1.33829692930658e-04
7.65896825396825e+00 1.67417159373694e-02 1.33570983495903e-04
7.71309523809524e+00 1.66502026696667e-02 1.33309444834666e-04
7.76722222222222e+00 1.65591896301971e-02 1.33045141968528e-04
7.82134920634921e+00 1.64686740846204e-02 1.32778138882051e-04
7.87547619047619e+00 1.63786533134294e-02 1.32508498290768e-04
7.92960317460317e+00 1.62891246122115e-02 1.32236281834603e-04
7.98373015873016e+00 1.62000852911102e-02 1.31961550062077e-04
8.03785714285714e+00 1.61115326751963e-02 1.31684362408601e-04
8.09198412698413e+00 1.60234641040492e-02 1.31404777384042e-04
8.14611111111111e+00 1.59358769316841e-02 1.31122852349022e-04
8.20023809523810e+00 1.58487685267949e-02 1.30838643697592e-04
8.25436507936508e+00 1.57621362722456e-02 1.30552206840274e-04
8.30849206349206e+00 1.56759775654169e-02 1.30263596219967e-04
8.36261904761905e+00 1.55902898177071e-02 1.29972865335326e-04
8.41674603174603e+00 1.55050704548708e-02 1.29680066717774e-04
8.47087301587302e+00 1.54203169166297e-02 1.29385252105726e-04
8.52500000000000e+00 1.53360266566022e-02 1.29088472231425e-04
8.57912698412698e+00 1.52521971425242e-02 1.28789776990851e-04
8.63325396825397e+00 1.51688258557770e-02 1.28489215425459e-04
8.68738095238095e+00 1.50859102917033e-02 1.28186835698782e-04
8.74150793650794e+00 1.50034479592387e-02 1.27882685261648e-04
8.79563492063492e+00 1.49214363808432e-02 1.27576810646933e-04
8.84976190476191e+00 1.48398730927060e-02 1.27269257630799e-04
8.90388888888889e+00 1.47587556442992e-02 1.26960071213971e-04
8.95801587301587e+00 1.46780815986727e-02 1.26649295632841e-04
9.01214285714286e+00 1.45978485320165e-02 1.26336974377380e-04
9.06626984126984e+00 1.45180540339483e-02 1.26023150167349e-04
9.12039682539683e+00 1.44386957071714e-02 1.25707865106607e-04
9.17452380952381e+00 1.43597711674076e-02 1.25391160487895e-04
9.22865079365079e+00 1.42812780435841e-02 1.25073076943436e-04
9.28277777777778e+00 1.42032139774180e-02 1.24753654425758e-04
9.33690476190476e+00 1.41255766236862e-02 1.24432932184012e-04
9.39103174603175e+00 1.40483636499000e-02 1.24110948910777e-04
9.44515873015873e+00 1.39715727362395e-02 1.23787742554157e-04
9.49928571428571e+00 1.38952015757285e-02 1.23463350461196e-04
9.55341269841270e+00 1.38192478738398e-02 1.23137809358649e-04
9.60753968253968e+00 1.37437093487480e-02 1.22811155329468e-04
9.66166666666667e+00 1.36685837310204e-02 1.22483423952688e-04
9.71579365079365e+00 1.35938687635528e-02 1.22154650122581e-04
9.76992063492063e+00 1.35195622017329e-02 1.21824868185331e-04
9.82404761904762e+00 1.34456618130654e-02 1.21494111919891e-04
9.87817460317460e+00 1.33721653774091e-02 1.21162414544847e-04
9.93230158730159e+00 1.32990706866091e-02 1.20829808731220e-04
9.98642857142857e+00 1.32263755447286e-02 1.20496326698154e-04
1.00405555555556e+01 1.31540777674713e-02 1.20161999721327e-04
1.00946825396825e+01 1.30821751836288e-02 1.19826859055970e-04
1.01488095238095e+01 1.30106656322869e-02 1.19490935627361e-04
1.02029365079365e+01 1.29395469650608e-02 1.19154259198022e-04
1.02570634920635e+01 1.28688170453092e-02 1.18816859336861e-04
1.03111904761905e+01 1.27984737480691e-02 1.18478765125864e-04
1.03653174603175e+01 1.27285149599937e-02 1.18140005168297e-04
1.04194444444444e+01 1.26589385792883e-02 1.17800607319430e-04
1.04735714285714e+01 1.25897425163063e-02 1.17460599531581e-04
1.05276984126984e+01 1.25209246914982e-02 1.17120009301943e-04
1.05818253968254e+01 1.24524830373475e-02 1.16778863115100e-04
1.06359523809524e+01 1.23844154976385e-02 1.16437187300313e-04
1.06900793650794e+01 1.23167200273954e-02 1.16095007753986e-04
1.07442063492063e+01 1.22493945928210e-02 1.15752349682435e-04
1.07983333333333e+01 1.21824371718536e-02 1.15409238406582e-04
1.08524603174603e+01 1.21158457522415e-02 1.15065698835411e-04
1.09065873015873e+01 1.20496183333567e-02 1.14721754934331e-04
1.09607142857143e+01 1.19837529255066e-02 1.14377430541559e-04
1.10148412698413e+01 1.19182475498745e-02 1.14032749103140e-04
1.10689682539683e+01 1.18531002384607e-02 1.13687733427114e-04
1.11230952380952e+01 1.17883090346040e-02 1.13342406450244e-04
1.11772222222222e+01 1.17238719911711e-02 1.12996790735717e-04
1.12313492063492e+01 1.16597871722586e-02 1.12650907965939e-04
1.12854761904762e+01 1.15960526525450e-02 1.12304779720436e-04
1.13396031746032e+01 1.15326665172322e-02 1.11958427222727e-04
1.13937301587302e+01 1.14696268619895e-02 1.11611871346042e-04
1.14478571428571e+01 1.14069317928956e-02 1.11265132380301e-04
1.15019841269841e+01 1.13445794269227e-02 1.10918230757305e-04
1.15561111111111e+01 1.12825678902488e-02 1.10571186574781e-04
1.16102380952381e+01 1.12208953198406e-02 1.10224019115780e-04
1.16643650793651e+01 1.11595598628481e-02 1.09876747584427e-04
1.17184920634921e+01 1.10985596765495e-02 1.09529390866208e-04
1.17726190476190e+01 1.10378929282959e-02 1.09181967305313e-04
1.18267460317460e+01 1.09775577959647e-02 1.08834495396236e-04
1.18808730158730e+01 1.09175524663711e-02 1.08486993329396e-04
1.19350000000000e+01 1.08578751367548e-02 1.08139478532313e-04
1.19891269841270e+01 1.07985240142095e-02 1.07791968371364e-04
1.20432539682540e+01 1.07394973156293e-02 1.07444479922688e-04
1.20973809523810e+01 1.06807932676552e-02 1.07097029759276e-04
1.21515079365079e+01 1.06224101071011e-02 1.06749634610894e-04
1.22056349206349e+01 1.05643460794558e-02 1.06402310930146e-04
1.22597619047619e+01 1.05065994402824e-02 1.06055074454305e-04
1.23138888888889e+01 1.04491684546790e-02 1.05707940874921e-04
1.23680158730159e+01 1.03920513972268e-02 1.05360925618827e-04
1.24221428571429e+01 1.03352465519389e-02 1.05014043644512e-04
1.24762698412698e+01 1.02787522126594e-02 1.04667310072035e-04
1.25303968253968e+01 1.02225666816521e-02 1.04320739768525e-04
1.25845238095238e+01 1.01666882709161e-02 1.03974346929610e-04
1.26386507936508e+01 1.01111153016774e-02 1.03628145718495e-04
1.26927777777778e+01 1.00558461043382e-02 1.03282150056718e-04
1.27469047619048e+01 1.00008790184273e-02 1.02936373627689e-04
1.28010317460317e+01 9.94621239254991e-03 1.02590829683554e-04
1.28551587301587e+01 9.89184458475994e-03 1.02245531642126e-04
1.29092857142857e+01 9.83777396123908e-03 1.01900492693536e-04
1.29634126984127e+01 9.78399889752528e-03 1.01555725403041e-04
1.30175396825397e+01 9.73051777803585e-03 1.01211242316767e-04
1.30716666666667e+01 9.67732899601922e-03 1.00867055763143e-04
1.31257936507937e+01 9.62443095350678e-03 1.00523177668050e-04
1.31799206349206e+01 9.57182206166270e-03 1.00179620125105e-04
1.32340476190476e+01 9.51950073953651e-03 9.98363950196772e-05
1.32881746031746e+01 9.46746541522100e-03 9.94935136491887e-05
1.33423015873016e+01 9.41571452540114e-03 9.91509873018130e-05
1.33964285714286e+01 9.36424651530707e-03 9.88088270664957e-05
1.34505555555556e+01 9.31305983866787e-03 9.84670436560531e-05
1.35046825396825e+01 9.26215295804054e-03 9.81256479521322e-05
1.35588095238095e+01 9.21152434363129e-03 9.77846506457497e-05
1.36129365079365e+01 9.16117247438745e-03 9.74440618742302e-05
1.36670634920635e+01 9.11109583757065e-03 9.71038917741766e-05
1.37211904761905e+01 9.06129292871109e-03 9.67641502997660e-05
1.37753174603175e+01 9.01176225156300e-03 9.64248472253514e-05
1.38294444444444e+01 8.96250231805933e-03 9.60859919775313e-05
1.38835714285714e+01 8.91351164861902e-03 9.57475941521908e-05
1.39376984126984e+01 8.86478877104179e-03 9.54096631730651e-05
1.39918253968254e+01 8.81633222152960e-03 9.50722079469248e-05
1.40459523809524e+01 8.76814054428555e-03 9.47352373882477e-05
1.41000793650794e+01 8.72021229147052e-03 9.43987602466996e-05
1.41542063492063e+01 8.67254602315961e-03 9.40627849463374e-05
1.42083333333333e+01 8.62514030763146e-03 9.37273200800204e-05
1.42624603174603e+01 8.57799372032265e-03 9.33923740827705e-05
1.43165873015873e+01 8.53110484479212e-03 9.30579549019017e-05
1.43707142857143e+01 8.48447227234122e-03 9.27240704987376e-05
1.44248412698413e+01 8.43809460197141e-03 9.23907286834484e-05
1.44789682539683e+01 8.39197044034244e-03 9.20579369610605e-05
1.45330952380952e+01 8.34609840204491e-03 9.17257030043762e-05
1.45872222222222e+01 8.30047710861047e-03 9.13940343414154e-05
1.46413492063492e+01 8.25510518942295e-03 9.10629380397428e-05
1.46954761904762e+01 8.20998128135820e-03 9.07324211863813e-05
1.47496031746032e+01 8.16510402874290e-03 9.04024907296744e-05
1.48037301587302e+01 8.12047208331433e-03 9.00731534812795e-05
1.48578571428571e+01 8.07608410417962e-03 8.97444159697791e-05
1.49119841269841e+01 8.03193875807067e-03 8.94162848899160e-05
1.49661111111111e+01 7.98803471841435e-03 8.90887668054350e-05
1.50202380952381e+01 7.94437066618652e-03 8.87618678490130e-05
1.50743650793651e+01 7.90094528957281e-03 8.84355941780816e-05
1.51284920634921e+01 7.85775728392965e-03 8.81099518245710e-05
1.51826190476190e+01 7.81480535174491e-03 8.77849465547395e-05
1.52367460317460e+01 7.77208820287838e-03 8.74605842990499e-05
1.52908730158730e+01 7.72960455368070e-03 8.71368708677155e-05
1.53450000000000e+01 7.68735312780096e-03 8.68138116633873e-05
1.53991269841270e+01 7.64533265586489e-03 8.64914121174292e-05
1.54532539682540e+01 7.60354187543685e-03 8.61696775459911e-05
1.55073809523810e+01 7.56197953098200e-03 8.58486130156397e-05
1.55615079365079e+01 7.52064437409320e-03 8.55282237549216e-05
1.56156349206349e+01 7.47953516265573e-03 8.52085148819760e-05
1.56697619047619e+01 7.43865066161133e-03 8.48894911293847e-05
1.57238888888889e+01 7.39798964265279e-03 8.45711572618209e-05
1.57780158730159e+01 7.35755088418690e-03 8.42535179381525e-05
1.58321428571429e+01 7.31733317129805e-03 8.39365775826793e-05
1.58862698412698e+01 7.27733529596245e-03 8.36203407791840e-05
1.59403968253968e+01 7.23755605625581e-03 8.33048120100288e-05
1.59945238095238e+01 7.19799425707669e-03 8.29899953926809e-05
1.60486507936508e+01 7.15864870985627e-03 8.26758950795600e-05
1.61027777777778e+01 7.11951823252247e-03 8.23625151259211e-05
1.61569047619048e+01 7.08060164946479e-03 8.20498594912098e-05
1.62110317460317e+01 7.04189779149885e-03 8.17379319166062e-05
1.62651587301587e+01 7.00340549606714e-03 8.14267362997324e-05
1.63192857142857e+01 6.96512360649317e-03 8.11162764463843e-05
1.63734126984127e+01 6.92705097266086e-03 8.08065558197885e-05
1.64275396825397e+01 6.88918645074078e-03 8.04975779208565e-05
1.64816666666667e+01 6.85152890315587e-03 8.01893461625006e-05
1.65357936507937e+01 6.81407719854736e-03 7.98818637522440e-05
1.65899206349206e+01 6.77683021196447e-03 7.95751340511586e-05
1.66440476190476e+01 6.73978682415624e-03 7.92691603359949e-05
1.66981746031746e+01 6.70294592221534e-03 7.89639455589083e-05
1.67523015873016e+01 6.66630639931769e-03 7.86594927117397e-05
1.68064285714286e+01 6.62986715468928e-03 7.83558047055306e-05
1.68605555555556e+01 6.59362709357320e-03 7.80528842579327e-05
1.69146825396825e+01 6.55758512740900e-03 7.77507342371397e-05
1.69688095238095e+01 6.52174017316020e-03 7.74493574339169e-05
1.70229365079365e+01 6.48609115392438e-03 7.71487563313461e-05
1.70770634920635e+01 6.45063699868566e-03 7.68489334538413e-05
