Energy (eV)          EEDF (eV^-(3/2))     First Anisotropy
4.30232558139535e-02 3.20500487537987e-02 1.83284553969415e-05
1.29069767441860e-01 3.17936524286718e-02 3.02461108120246e-05
2.15116279069767e-01 3.15393072418881e-02 3.98769898054829e-05
3.01162790697674e-01 3.12869967839203e-02 4.71624934254847e-05
3.87209302325581e-01 3.10367047773349e-02 5.32129684975158e-05
4.73255813953488e-01 3.07884150755658e-02 5.84489175249676e-05
5.59302325581395e-01 3.05421116597255e-02 6.30882927496230e-05
6.45348837209302e-01 3.02977786402443e-02 6.72629106553801e-05
7.31395348837209e-01 3.00554002537941e-02 7.10603263828988e-05
8.17441860465116e-01 2.98149608635700e-02 7.45425147339317e-05
9.03488372093023e-01 2.95764449581622e-02 7.77554210009437e-05
9.89534883720930e-01 2.93398371496504e-02 8.07343303833122e-05
1.07558139534884e+00 2.91051221735108e-02 8.35071071297244e-05
1.16162790697674e+00 2.88722848877510e-02 8.60962584247722e-05
1.24767441860465e+00 2.86413102710240e-02 8.85203078242289e-05
1.33372093023256e+00 2.84121834221741e-02 9.07947426772350e-05
1.41976744186047e+00 2.81848895576318e-02 9.29326869052808e-05
1.50581395348837e+00 2.79594140154862e-02 9.49453920697831e-05
1.59186046511628e+00 2.77357422493490e-02 9.68426032875669e-05
1.67790697674419e+00 2.75138598291978e-02 9.86328362817596e-05
1.76395348837209e+00 2.72937524404593e-02 1.00323591845411e-04
1.85000000000000e+00 2.70754058830864e-02 1.01921523871797e-04
1.93604651162791e+00 2.68588060695015e-02 1.03432572239839e-04
2.02209302325581e+00 2.66439390271614e-02 1.04862070166599e-04
2.10813953488372e+00 2.64307908940954e-02 1.06214831421812e-04
2.19418604651163e+00 2.62193479192250e-02 1.07495221191332e-04
2.28023255813953e+00 2.60095964614807e-02 1.08707215179871e-04
2.36627906976744e+00 2.58015229889273e-02 1.09854448892673e-04
2.45232558139535e+00 2.55951140770356e-02 1.10940258601975e-04
2.53837209302326e+00 2.53903564104131e-02 1.11967716521958e-04
2.62441860465116e+00 2.51872367792945e-02 1.12939660786898e-04
2.71046511627907e+00 2.49857420795906e-02 1.13858720574015e-04
2.79651162790698e+00 2.47858593120422e-02 1.14727338158077e-04
2.88255813953488e+00 2.45875755813881e-02 1.15547787995905e-04
2.96860465116279e+00 2.43908780948606e-02 1.16322192944133e-04
3.05465116279070e+00 2.41957541633971e-02 1.17052538884714e-04
3.14069767441860e+00 2.40021911987481e-02 1.17740687580192e-04
3.22674418604651e+00 2.38101767133689e-02 1.18388387517415e-04
3.31279069767442e+00 2.36196983196115e-02 1.18997283865420e-04
3.39883720930233e+00 2.34307437289316e-02 1.19568927306446e-04
3.48488372093023e+00 2.32433007505513e-02 1.20104781562798e-04
3.57093023255814e+00 2.30573572923203e-02 1.20606230525513e-04
3.65697674418605e+00 2.28729013582615e-02 1.21074584658610e-04
3.74302325581395e+00 2.26899210483648e-02 1.21511086328610e-04
3.82906976744186e+00 2.25084045578161e-02 1.21916914934964e-04
3.91511627906977e+00 2.23283401762418e-02 1.22293191463340e-04
4.00116279069767e+00 2.21497162869500e-02 1.22640982683611e-04
4.08720930232558e+00 2.19725213657479e-02 1.22961304665899e-04
4.17325581395349e+00 2.17967439815162e-02 1.23255126336521e-04
4.25930232558140e+00 2.16223727941348e-02 1.23523372733487e-04
4.34534883720930e+00 2.14493965542015e-02 1.23766927609267e-04
4.43139534883721e+00 2.12778041023100e-02 1.23986636103471e-04
4.51744186046512e+00 2.11075843683281e-02 1.24183307189946e-04
4.60348837209302e+00 2.09387263703169e-02 1.24357715660735e-04
4.68953488372093e+00 2.07712192149364e-02 1.24510604275002e-04
4.77558139534884e+00 2.06050520956136e-02 1.24642685751410e-04
4.86162790697674e+00 2.04402142922258e-02 1.24754644273717e-04
4.94767441860465e+00 2.02766951704110e-02 1.24847137145500e-04
5.03372093023256e+00 2.01144841808813e-02 1.24920796319107e-04
5.11976744186047e+00 1.99535708584276e-02 1.24976229574952e-04
5.20581395348837e+00 1.97939448221986e-02 1.25014021910069e-04
5.29186046511628e+00 1.96355957740653e-02 1.25034736839041e-04
5.37790697674419e+00 1.94785134982818e-02 1.25038917302933e-04
5.46395348837209e+00 1.93226878608270e-02 1.25027086755060e-04
5.55000000000000e+00 1.91681088087518e-02 1.24999750171271e-04
5.63604651162791e+00 1.90147663692571e-02 1.24957394777091e-04
5.72209302325581e+00 1.88626506498765e-02 1.24900490995415e-04
5.80813953488372e+00 1.87117518370024e-02 1.24829493342319e-04
5.89418604651163e+00 1.85620601955349e-02 1.24744840991676e-04
5.98023255813954e+00 1.84135660682534e-02 1.24646958522442e-04
6.06627906976744e+00 1.82662598751945e-02 1.24536256617697e-04
6.15232558139535e+00 1.81201321127960e-02 1.24413132523920e-04
6.23837209302326e+00 1.79751733540039e-02 1.24277970727921e-04
6.32441860465116e+00 1.78313742469359e-02 1.24131143601563e-04
6.41046511627907e+00 1.76887255145234e-02 1.23973011758193e-04
6.49651162790698e+00 1.75472179539129e-02 1.23803924587892e-04
6.58255813953488e+00 1.74068424358734e-02 1.23624220760191e-04
6.66860465116279e+00 1.72675899039977e-02 1.23434228517853e-04
6.75465116279070e+00 1.71294513747512e-02 1.23234266179230e-04
6.84069767441860e+00 1.69924179362529e-02 1.23024642619850e-04
6.92674418604651e+00 1.68564807479153e-02 1.22805657498207e-04
7.01279069767442e+00 1.67216310398744e-02 1.22577601652298e-04
7.09883720930233e+00 1.65878601124245e-02 1.22340757473170e-04
7.18488372093023e+00 1.64551593352720e-02 1.22095399092947e-04
7.27093023255814e+00 1.63235201475378e-02 1.21841792769862e-04
7.35697674418605e+00 1.61929340566400e-02 1.21580197259539e-04
7.44302325581395e+00 1.60633926379363e-02 1.21310863956288e-04
7.52906976744186e+00 1.59348875341800e-02 1.21034037195468e-04
7.61511627906977e+00 1.58074104549820e-02 1.20749954500250e-04
7.70116279069767e+00 1.56809531762750e-02 1.20458846855356e-04
7.78720930232558e+00 1.55555075396231e-02 1.20160938816500e-04
7.87325581395349e+00 1.54310654521811e-02 1.19856448802520e-04
7.95930232558140e+00 1.53076188856817e-02 1.19545589378705e-04
8.04534883720930e+00 1.51851598760822e-02 1.19228567334860e-04
8.13139534883721e+00 1.50636805230517e-02 1.18905583912731e-04
8.21744186046512e+00 1.49431729894612e-02 1.18576835021101e-04
8.30348837209302e+00 1.48236295007338e-02 1.18242511301584e-04
8.38953488372093e+00 1.47050423447787e-02 1.17902798365062e-04
8.47558139534884e+00 1.45874038710541e-02 1.17557877022006e-04
8.56162790697674e+00 1.44707064902215e-02 1.17207923325222e-04
8.64767441860465e+00 1.43549426736561e-02 1.16853108752045e-04
8.73372093023256e+00 1.42401049529615e-02 1.16493600376836e-04
8.81976744186047e+00 1.41261859193586e-02 1.16129560906972e-04
8.90581395348837e+00 1.40131782235978e-02 1.15761148877970e-04
8.99186046511628e+00 1.39010745750914e-02 1.15388518844273e-04
9.07790697674419e+00 1.37898677415749e-02 1.15011821397861e-04
9.16395348837209e+00 1.36795505486414e-02 1.14631203316887e-04
9.25000000000000e+00 1.35701158792785e-02 1.14246807706486e-04
9.33604651162791e+00 1.34615566732928e-02 1.13858774014173e-04
9.42209302325582e+00 1.33538659272060e-02 1.13467238193566e-04
9.50813953488372e+00 1.32470366934483e-02 1.13072332865009e-04
9.59418604651163e+00 1.31410620800297e-02 1.12674187317569e-04
9.68023255813953e+00 1.30359352500951e-02 1.12272927632227e-04
9.76627906976744e+00 1.29316494214836e-02 1.11868676798589e-04
9.85232558139535e+00 1.28281978661859e-02 1.11461554715992e-04
9.93837209302326e+00 1.27255739102275e-02 1.11051678332844e-04
1.00244186046512e+01 1.26237709329180e-02 1.10639161892258e-04
1.01104651162791e+01 1.25227823661306e-02 1.10224116567958e-04
1.01965116279070e+01 1.24226016951904e-02 1.09806650842108e-04
1.02825581395349e+01 1.23232224570292e-02 1.09386870799273e-04
1.03686046511628e+01 1.22246382402826e-02 1.08964879805461e-04
1.04546511627907e+01 1.21268426848756e-02 1.08540778715926e-04
1.05406976744186e+01 1.20298294816135e-02 1.08114665940067e-04
1.06267441860465e+01 1.19335923717751e-02 1.07686637504967e-04
1.07127906976744e+01 1.18381251467080e-02 1.07256787361086e-04
1.07988372093023e+01 1.17434216465541e-02 1.06825206702417e-04
1.08848837209302e+01 1.16494757624974e-02 1.06391984519418e-04
1.09709302325581e+01 1.15562814337019e-02 1.05957208155497e-04
1.10569767441860e+01 1.14638326478177e-02 1.05520962604598e-04
1.11430232558140e+01 1.13721234405927e-02 1.05083330817578e-04
1.12290697674419e+01 1.12811478954876e-02 1.04644393752132e-04
1.13151162790698e+01 1.11909001432953e-02 1.04204230421869e-04
1.14011627906977e+01 1.11013743617622e-02 1.03762917944543e-04
1.14872093023256e+01 1.10125647752118e-02 1.03320531807486e-04
1.15732558139535e+01 1.09244656534138e-02 1.02877145249043e-04
1.16593023255814e+01 1.08370713135089e-02 1.02432829747002e-04
1.17453488372093e+01 1.07503761173287e-02 1.01987655510742e-04
1.18313953488372e+01 1.06643744718091e-02 1.01541690843440e-04
1.19174418604651e+01 1.05790608286300e-02 1.01095002409807e-04
1.20034883720930e+01 1.04944296838569e-02 1.00647655274500e-04
1.20895348837209e+01 1.04104755775865e-02 1.00199712940004e-04
1.21755813953488e+01 1.03271930935944e-02 9.97512375836307e-05
1.22616279069767e+01 1.02445768583135e-02 9.93022894882032e-05
1.23476744186047e+01 1.01626215425189e-02 9.88529274821671e-05
1.24337209302326e+01 1.00813218589362e-02 9.84032093833875e-05
1.25197674418605e+01 1.00006725625884e-02 9.79531914130449e-05
1.26058139534884e+01 9.92066845045799e-03 9.75029284354049e-05
1.26918604651163e+01 9.84130436115018e-03 9.70524739885073e-05
1.27779069767442e+01 9.76257517456132e-03 9.66018803142573e-05
1.28639534883721e+01 9.68447581154809e-03 9.61511983881666e-05
1.29500000000000e+01 9.60700123359978e-03 9.57004781283889e-05
1.30360465116279e+01 9.53014644192575e-03 9.52497678782849e-05
1.31220930232558e+01 9.45390647890910e-03 9.47991147990973e-05
1.32081395348837e+01 9.37827642599653e-03 9.43485652662343e-05
1.32941860465116e+01 9.30325140398256e-03 9.38981643371383e-05
1.33802325581395e+01 9.22882657269470e-03 9.34479559637213e-05
1.34662790697674e+01 9.15499713068091e-03 9.29979830165250e-05
1.35523255813953e+01 9.08175831490069e-03 9.25482873086521e-05
1.36383720930233e+01 9.00910540041733e-03 9.20989096192897e-05
1.37244186046512e+01 8.93703370009304e-03 9.16498898792800e-05
1.38104651162791e+01 8.86553856377113e-03 9.12012667007271e-05
1.38965116279070e+01 8.79461537953441e-03 9.07530777287083e-05
1.39825581395349e+01 8.72425957183700e-03 9.03053599963852e-05
1.40686046511628e+01 8.65446660173685e-03 8.98581494417107e-05
1.41546511627907e+01 8.58523196660263e-03 8.94114810964568e-05
1.42406976744186e+01 8.51655119982361e-03 8.89653891056167e-05
1.43267441860465e+01 8.44841987052167e-03 8.85199067466829e-05
1.44127906976744e+01 8.38083358326516e-03 8.80750665976417e-05
1.44988372093023e+01 8.31378797732468e-03 8.76309001040754e-05
1.45848837209302e+01 8.24727872778440e-03 8.71874378991788e-05
1.46709302325581e+01 8.18130154385964e-03 8.67447101270474e-05
1.47569767441860e+01 8.11585216909146e-03 8.63027459982032e-05
1.48430232558140e+01 8.05092638107209e-03 8.58615739610935e-05
1.49290697674419e+01 7.98651999117212e-03 8.54212217179529e-05
1.50151162790698e+01 7.92262884427109e-03 8.49817162406021e-05
1.51011627906977e+01 7.85924881848904e-03 8.45430837861390e-05
1.51872093023256e+01 7.79637582492055e-03 8.41053500471376e-05
1.52732558139535e+01 7.73400580696431e-03 8.36685397578231e-05
1.53593023255814e+01 7.67213474129053e-03 8.32326769822343e-05
1.54453488372093e+01 7.61075863634292e-03 8.27977854054716e-05
1.55313953488372e+01 7.54987353249716e-03 8.23638879295417e-05
1.56174418604651e+01 7.48947550180533e-03 8.19310068270111e-05
1.57034883720930e+01 7.42956064774253e-03 8.14991637539991e-05
1.57895348837209e+01 7.37012510495584e-03 8.10683797631312e-05
1.58755813953488e+01 7.31116503901468e-03 8.06386754403722e-05
1.59616279069767e+01 7.25267664579844e-03 8.02100705422905e-05
1.60476744186047e+01 7.19465615235429e-03 7.97825842593184e-05
1.61337209302326e+01 7.13709981554225e-03 7.93562354818997e-05
1.62197674418605e+01 7.08000392216699e-03 7.89310424284350e-05
1.63058139534884e+01 7.02336478873831e-03 7.85070227853311e-05
1.63918604651163e+01 6.96717876123324e-03 7.80841937178434e-05
1.64779069767442e+01 6.91144221486075e-03 7.76625718808191e-05
1.65639534883721e+01 6.85615155382776e-03 7.72421734294196e-05
1.66500000000000e+01 6.80130321110712e-03 7.68230141421462e-05
1.67360465116279e+01 6.74689364788374e-03 7.64051090904456e-05
1.68220930232558e+01 6.69291935430458e-03 7.59884728767017e-05
1.69081395348837e+01 6.63937684826667e-03 7.55731198749373e-05
1.69941860465116e+01 6.58626267552348e-03 7.51590638920325e-05
1.70802325581395e+01 6.53357340946195e-03 7.47463182938985e-05
1.71662790697674e+01 6.48130565088138e-03 7.43348960143998e-05
1.72523255813954e+01 6.42945602777447e-03 7.39248095642782e-05
1.73383720930233e+01 6.37802119510957e-03 7.35160710400133e-05
1.74244186046512e+01 6.32699783461489e-03 7.31086922347747e-05
1.75104651162791e+01 6.27638265427671e-03 7.27026843372513e-05
1.75965116279070e+01 6.22617238899636e-03 7.22980581471838e-05
1.76825581395349e+01 6.17636379950385e-03 7.18948242934029e-05
1.77686046511628e+01 6.12695367244296e-03 7.14929929251378e-05
1.78546511627907e+01 6.07793882016381e-03 7.10925738258501e-05
1.79406976744186e+01 6.02931608051737e-03 7.06935764207067e-05
1.80267441860465e+01 5.98108231665153e-03 7.02960097840666e-05
1.81127906976744e+01 5.93323441680858e-03 6.98998827410535e-05
1.81988372093023e+01 5.88576929386485e-03 6.95052035897745e-05
1.82848837209302e+01 5.83868388591612e-03 6.91119802990722e-05
1.83709302325581e+01 5.79197515528984e-03 6.87202207085980e-05
1.84569767441860e+01 5.74564008861441e-03 6.83299322441490e-05
1.85430232558140e+01 5.69967569662490e-03 6.79411220220251e-05
1.86290697674419e+01 5.65407901396987e-03 6.75537968552748e-05
1.87151162790698e+01 5.60884709902060e-03 6.71679632599716e-05
1.88011627906977e+01 5.56397703368101e-03 6.67836274615262e-05
1.88872093023256e+01 5.51946592319943e-03 6.64007954865607e-05
1.89732558139535e+01 5.47531089575022e-03 6.60194729094032e-05
1.90593023255814e+01 5.43150910294835e-03 6.56396650316410e-05
1.91453488372093e+01 5.38805771896075e-03 6.52613770638336e-05
1.92313953488372e+01 5.34495394056068e-03 6.48846138657976e-05
1.93174418604651e+01 5.30219498694680e-03 6.45093800410699e-05
1.94034883720930e+01 5.25977809956382e-03 6.41356799421784e-05
1.94895348837209e+01 5.21770054192465e-03 6.37635176759487e-05
1.95755813953488e+01 5.17595959943376e-03 6.33928971878829e-05
1.96616279069767e+01 5.13455257900237e-03 6.30238220281126e-05
1.97476744186047e+01 5.09347680950822e-03 6.26562955164656e-05
1.98337209302326e+01 5.05272964098520e-03 6.22903209095480e-05
1.99197674418605e+01 5.01230844466662e-03 6.19259011610137e-05
2.00058139534884e+01 4.97221061281559e-03 6.15630390083046e-05
2.00918604651163e+01 4.93243355855670e-03 6.12017369771471e-05
2.01779069767442e+01 4.89297471570931e-03 6.08419973860197e-05
2.02639534883721e+01 4.85383153862193e-03 6.04838223506593e-05
2.03500000000000e+01 4.81500150200798e-03 6.01272138605802e-05
2.04360465116279e+01 4.77648210059526e-03 5.97721735652527e-05
2.05220930232558e+01 4.73827084953106e-03 5.94187029242957e-05
2.06081395348837e+01 4.70036528365115e-03 5.90668033595304e-05
2.06941860465116e+01 4.66276295751228e-03 5.87164760360000e-05
2.07802325581395e+01 4.62546144523444e-03 5.83677219407166e-05
2.08662790697674e+01 4.58845834034430e-03 5.80205418864410e-05
2.09523255813953e+01 4.55175125562010e-03 5.76749365154768e-05
2.10383720930233e+01 4.51533782293757e-03 5.73309063034411e-05
2.11244186046512e+01 4.47921569311715e-03 5.69884516288060e-05
2.12104651162791e+01 4.44338253560434e-03 5.66475725774246e-05
2.12965116279070e+01 4.40783603882710e-03 5.63082690793121e-05
2.13825581395349e+01 4.37257390953542e-03 5.59705410471722e-05
2.14686046511628e+01 4.33759387282501e-03 5.56343881762477e-05
2.15546511627907e+01 4.30289367199049e-03 5.52998100158626e-05
2.16406976744186e+01 4.26847106837985e-03 5.49668059726459e-05
2.17267441860465e+01 4.23432384125007e-03 5.46353753137612e-05
2.18127906976744e+01 4.20044978762379e-03 5.43055172309163e-05
2.18988372093023e+01 4.16684672199449e-03 5.39772306596474e-05
2.19848837209302e+01 4.13351247664680e-03 5.36505144053775e-05
2.20709302325581e+01 4.10044490105213e-03 5.33253672710953e-05
2.21569767441860e+01 4.06764186188586e-03 5.30017878723270e-05
2.22430232558140e+01 4.03510124288969e-03 5.26797747030569e-05
2.23290697674419e+01 4.00282094473506e-03 5.23593261384405e-05
2.24151162790698e+01 3.97079888488784e-03 5.20404404375442e-05
2.25011627906977e+01 3.93903299747396e-03 5.17231157461047e-05
2.25872093023256e+01 3.90752123314604e-03 5.14073501547734e-05
2.26732558139535e+01 3.87626155881408e-03 5.10931415337511e-05
2.27593023255814e+01 3.84525195792861e-03 5.07804876477820e-05
2.28453488372093e+01 3.81449042993339e-03 5.04693862726400e-05
2.29313953488372e+01 3.78397499027638e-03 5.01598350258443e-05
2.30174418604651e+01 3.75370367028171e-03 4.98518314266660e-05
2.31034883720930e+01 3.72367451702261e-03 4.95453728984420e-05
2.31895348837209e+01 3.69388559319557e-03 4.92404567709117e-05
2.32755813953488e+01 3.66433497699525e-03 4.89370803339357e-05
2.33616279069767e+01 3.63502076186564e-03 4.86352406844961e-05
2.34476744186047e+01 3.60594105675425e-03 4.83349348327964e-05
2.35337209302326e+01 3.57709398561034e-03 4.80361598097623e-05
2.36197674418605e+01 3.54847768739133e-03 4.77389125104348e-05
2.37058139534884e+01 3.52009031594276e-03 4.74431897492959e-05
2.37918604651163e+01 3.49193003987912e-03 4.71489882622529e-05
2.38779069767442e+01 3.46399504246580e-03 4.68563047086172e-05
2.39639534883721e+01 3.43628352150185e-03 4.65651356731109e-05
2.40500000000000e+01 3.40879368920373e-03 4.62754777148221e-05
2.41360465116279e+01 3.38152377197750e-03 4.59873272270684e-05
2.42220930232558e+01 3.35447201064397e-03 4.57006805343181e-05
2.43081395348837e+01 3.32763665998336e-03 4.54155339904020e-05
2.43941860465116e+01 3.30101598873744e-03 4.51318838350826e-05
2.44802325581395e+01 3.27460827949781e-03 4.48497262445174e-05
2.45662790697674e+01 3.24841182859509e-03 4.45690573329331e-05
2.46523255813953e+01 3.22242494598909e-03 4.42898731543173e-05
2.47383720930233e+01 3.19664595515975e-03 4.40121697041089e-05
2.48244186046512e+01 3.17107319299895e-03 4.37359429638619e-05
2.49104651162791e+01 3.14570500960192e-03 4.34611887728430e-05
2.49965116279070e+01 3.12053976846675e-03 4.31879029166215e-05
2.50825581395349e+01 3.09557584608084e-03 4.29160812168374e-05
2.51686046511628e+01 3.07081163191943e-03 4.26457193998010e-05
2.52546511627907e+01 3.04624552834178e-03 4.23768131425280e-05
2.53406976744186e+01 3.02187595048805e-03 4.21093580741708e-05
2.54267441860465e+01 2.99770132617714e-03 4.18433497774627e-05
2.55127906976744e+01 2.97372009580517e-03 4.15787838299776e-05
2.55988372093023e+01 2.94993071215244e-03 4.13156556851920e-05
2.56848837209302e+01 2.92633164056288e-03 4.10539607543538e-05
2.57709302325581e+01 2.90292135856387e-03 4.07936944894692e-05
2.58569767441860e+01 2.87969835586239e-03 4.05348522615821e-05
2.59430232558140e+01 2.85666113424756e-03 4.02774294033184e-05
2.60290697674419e+01 2.83380820749398e-03 4.00214212100943e-05
2.61151162790698e+01 2.81113810126589e-03 3.97668229413321e-05
2.62011627906977e+01 2.78864935302207e-03 3.95136298217040e-05
2.62872093023256e+01 2.76634051192141e-03 3.92618370788069e-05
2.63732558139535e+01 2.74421013864589e-03 3.90114398340890e-05
2.64593023255814e+01 2.72225680555981e-03 3.87624331777692e-05
2.65453488372093e+01 2.70047909636387e-03 3.85148122447695e-05
2.66313953488372e+01 2.67887560608901e-03 3.82685721031095e-05
2.67174418604651e+01 2.65744494100573e-03 3.80237077927695e-05
2.68034883720930e+01 2.63618571853418e-03 3.77802143267162e-05
2.68895348837209e+01 2.61509656715501e-03 3.75380866919470e-05
2.69755813953488e+01 2.59417612632084e-03 3.72973198843343e-05
2.70616279069767e+01 2.57342304629221e-03 3.70579088075323e-05
2.71476744186047e+01 2.55283598828090e-03 3.68198483422689e-05
