Energy (eV)          EEDF (eV^-(3/2))     First Anisotropy
2.86842105263158e-02 2.00715926888584e-01 1.71676392742692e-04
8.60526315789474e-02 1.97084539649202e-01 2.81869666772202e-04
1.43421052631579e-01 1.93518852102537e-01 3.67841025279053e-04
2.00789473684211e-01 1.90017675591324e-01 4.30619357687331e-04
2.58157894736842e-01 1.86579842970663e-01 4.80920480548914e-04
3.15526315789474e-01 1.83204208211892e-01 5.22867023615548e-04
3.72894736842105e-01 1.79889646020520e-01 5.58627806265916e-04
4.30263157894737e-01 1.76635051461089e-01 5.89533413808953e-04
4.87631578947368e-01 1.73439339588830e-01 6.16479956174029e-04
5.45000000000000e-01 1.70301445087983e-01 6.40110273161339e-04
6.02368421052632e-01 1.67220321911378e-01 6.60907117749054e-04
6.59736842105263e-01 1.64194942948301e-01 6.79245849978142e-04
7.17105263157895e-01 1.61224299664695e-01 6.95426409675577e-04
7.74473684210526e-01 1.58307401773104e-01 7.09693803526356e-04
8.31842105263158e-01 1.55443276902544e-01 7.22251820294014e-04
8.89210526315789e-01 1.52630970274346e-01 7.33272546448703e-04
9.46578947368421e-01 1.49869544383876e-01 7.42903168912601e-04
1.00394736842105e+00 1.47158078688000e-01 7.51270963830856e-04
1.06131578947368e+00 1.44495669295573e-01 7.58487035065930e-04
1.11868421052632e+00 1.41881428676742e-01 7.64649171678941e-04
1.17605263157895e+00 1.39314485353178e-01 7.69844067657615e-04
1.23342105263158e+00 1.36793983613761e-01 7.74149070998019e-04
1.29078947368421e+00 1.34319083229080e-01 7.77633582541260e-04
1.34815789473684e+00 1.31888959171336e-01 7.80360188128980e-04
1.40552631578947e+00 1.29502801322277e-01 7.82385578783814e-04
1.46289473684211e+00 1.27159814255600e-01 7.83761316543312e-04
1.52026315789474e+00 1.24859216917810e-01 7.84534472785649e-04
1.57763157894737e+00 1.22600242386396e-01 7.84748157421363e-04
1.63500000000000e+00 1.20382137614166e-01 7.84441971843410e-04
1.69236842105263e+00 1.18204163178174e-01 7.83652393525814e-04
1.74973684210526e+00 1.16065593033270e-01 7.82413105787105e-04
1.80710526315789e+00 1.13965714270088e-01 7.80755282242544e-04
1.86447368421053e+00 1.11903826877358e-01 7.78707833522216e-04
1.92184210526316e+00 1.09879243508540e-01 7.76297623315917e-04
1.97921052631579e+00 1.07891289242713e-01 7.73549653924542e-04
2.03657894736842e+00 1.05939301390227e-01 7.70487234071550e-04
2.09394736842105e+00 1.04022629240408e-01 7.67132127478253e-04
2.15131578947368e+00 1.02140633855363e-01 7.63504679865886e-04
2.20868421052632e+00 1.00292687856984e-01 7.59623935842822e-04
2.26605263157895e+00 9.84781752177704e-02 7.55507742443941e-04
2.32342105263158e+00 9.66964910555401e-02 7.51172841994751e-04
2.38078947368421e+00 9.49470414317513e-02 7.46634955665426e-04
2.43815789473684e+00 9.32292431535057e-02 7.41908859572642e-04
2.49552631578947e+00 9.15425235724202e-02 7.37008450813868e-04
2.55289473684211e+00 8.98863204142962e-02 7.31946810848576e-04
2.61026315789474e+00 8.82600815706734e-02 7.26736263318762e-04
2.66763157894737e+00 8.66632649219380e-02 7.21388423084621e-04
2.72500000000000e+00 8.50953381566024e-02 7.15914243934151e-04
2.78236842105263e+00 8.35557785938451e-02 7.10324061562814e-04
2.83973684210526e+00 8.20440730092818e-02 7.04627633021178e-04
2.89710526315789e+00 8.05597174638852e-02 6.98834172997568e-04
2.95447368421053e+00 7.91022171359826e-02 6.92952387247366e-04
3.01184210526316e+00 7.76710861563035e-02 6.86990503984751e-04
3.06921052631579e+00 7.62658474414772e-02 6.80956300776318e-04
3.12657894736842e+00 7.48860325488535e-02 6.74857132071107e-04
3.18394736842105e+00 7.35311815062107e-02 6.68699954844690e-04
3.24131578947368e+00 7.22008426632263e-02 6.62491349641914e-04
3.29868421052632e+00 7.08945725409159e-02 6.56237542345269e-04
3.35605263157895e+00 6.96119356837854e-02 6.49944423904489e-04
3.41342105263158e+00 6.83525045146898e-02 6.43617568742498e-04
3.47078947368421e+00 6.71158591922858e-02 6.37262251948221e-04
3.52815789473684e+00 6.59015874710734e-02 6.30883465770460e-04
3.58552631578947e+00 6.47092845606783e-02 6.24485933379505e-04
3.64289473684211e+00 6.35385530009697e-02 6.18074123836252e-04
3.70026315789474e+00 6.23890025193181e-02 6.11652266211998e-04
3.75763157894737e+00 6.12602499039757e-02 6.05224360656325e-04
3.81500000000000e+00 6.01519188763291e-02 5.98794190533294e-04
3.87236842105263e+00 5.90636399654604e-02 5.92365333406949e-04
3.92973684210526e+00 5.79950503849856e-02 5.85941171385727e-04
3.98710526315789e+00 5.69457939121188e-02 5.79524900873424e-04
4.04447368421053e+00 5.59155207689194e-02 5.73119541766119e-04
4.10184210526316e+00 5.49038875056908e-02 5.66727946458678e-04
4.15921052631579e+00 5.39105568841285e-02 5.60352807053567e-04
4.21657894736842e+00 5.29351977721018e-02 5.53996663782921e-04
4.27394736842105e+00 5.19774850259381e-02 5.47661913030916e-04
4.33131578947368e+00 5.10370993845211e-02 5.41350813231191e-04
4.38868421052632e+00 5.01137273628626e-02 5.35065491797494e-04
4.44605263157895e+00 4.92070611475960e-02 5.28807951355346e-04
4.50342105263158e+00 4.83167984943721e-02 5.22580075653101e-04
4.56078947368421e+00 4.74426426270996e-02 5.16383635172061e-04
4.61815789473684e+00 4.65843021390123e-02 5.10220292711645e-04
4.67552631578947e+00 4.57414908937442e-02 5.04091607653282e-04
4.73289473684210e+00 4.49139279353789e-02 4.97999041302839e-04
4.79026315789474e+00 4.41013373892629e-02 4.91943962012350e-04
4.84763157894737e+00 4.33034483719151e-02 4.85927648691109e-04
4.90500000000000e+00 4.25199949007258e-02 4.79951295226310e-04
4.96236842105263e+00 4.17507158052877e-02 4.74016014421765e-04
5.01973684210526e+00 4.09953546403344e-02 4.68122841749062e-04
5.07710526315789e+00 4.02536596002533e-02 4.62272738922447e-04
5.13447368421053e+00 3.95253834351433e-02 4.56466597305966e-04
5.19184210526316e+00 3.88102833683913e-02 4.50705241366635e-04
5.24921052631579e+00 3.81081210144210e-02 4.44989431149191e-04
5.30657894736842e+00 3.74186623032501e-02 4.39319865652420e-04
5.36394736842105e+00 3.67416773983695e-02 4.33697186083484e-04
5.42131578947368e+00 3.60769406215121e-02 4.28121977894853e-04
5.47868421052632e+00 3.54242303774217e-02 4.22594773578906e-04
5.53605263157895e+00 3.47833290799801e-02 4.17116055124228e-04
5.59342105263158e+00 3.41540230796772e-02 4.11686256363105e-04
5.65078947368421e+00 3.35361025923868e-02 4.06305765215572e-04
5.70815789473684e+00 3.29293616294340e-02 4.00974925999583e-04
5.76552631578947e+00 3.23335979279064e-02 3.95694040976367e-04
5.82289473684211e+00 3.17486128863382e-02 3.90463372651340e-04
5.88026315789474e+00 3.11742114953444e-02 3.85283146000388e-04
5.93763157894737e+00 3.06102022736838e-02 3.80153549732478e-04
5.99500000000000e+00 3.00563972044274e-02 3.75074738186441e-04
6.05236842105263e+00 2.95126116722804e-02 3.70046832973858e-04
6.10973684210526e+00 2.89786644020401e-02 3.65069924551495e-04
6.16710526315789e+00 2.84543773981672e-02 3.60144073727031e-04
6.22447368421053e+00 2.79395758854485e-02 3.55269313100546e-04
6.28184210526316e+00 2.74340882507344e-02 3.50445648576362e-04
6.33921052631579e+00 2.69377459849582e-02 3.45673060283990e-04
6.39657894736842e+00 2.64503836293146e-02 3.40951504113912e-04
6.45394736842105e+00 2.59718387177133e-02 3.36280913208603e-04
6.51131578947368e+00 2.55019517234283e-02 3.31661198702289e-04
6.56868421052632e+00 2.50405660059195e-02 3.27092250976634e-04
6.62605263157895e+00 2.45875277586134e-02 3.22573940726625e-04
6.68342105263158e+00 2.41426859576327e-02 3.18106119982188e-04
6.74078947368421e+00 2.37058923114506e-02 3.13688623087461e-04
6.79815789473684e+00 2.32770012114564e-02 3.09321267746229e-04
6.85552631578947e+00 2.28558696828093e-02 3.05003855593702e-04
6.91289473684211e+00 2.24423573386233e-02 3.00736173278168e-04
6.97026315789474e+00 2.20363263312930e-02 2.96517993513881e-04
7.02763157894737e+00 2.16376413071758e-02 2.92349075527977e-04
7.08500000000000e+00 2.12461693614707e-02 2.88229165935218e-04
7.14236842105263e+00 2.08617799939133e-02 2.84157999464612e-04
7.19973684210526e+00 2.04843450652726e-02 2.80135299655696e-04
7.25710526315789e+00 2.01137387546350e-02 2.76160779526075e-04
7.31447368421053e+00 1.97498375174610e-02 2.72234142211037e-04
7.37184210526316e+00 1.93925200444002e-02 2.68355081662358e-04
7.42921052631579e+00 1.90416672203866e-02 2.64523282973962e-04
7.48657894736842e+00 1.86971620863482e-02 2.60738423120608e-04
7.54394736842105e+00 1.83588897987785e-02 2.57000171678765e-04
7.60131578947368e+00 1.80267375919394e-02 2.53308191067816e-04
7.65868421052632e+00 1.77005947402706e-02 2.49662137137981e-04
7.71605263157895e+00 1.73803525214769e-02 2.46061659644001e-04
7.77342105263158e+00 1.70659041802866e-02 2.42506402699007e-04
7.83078947368421e+00 1.67571448928628e-02 2.38996005209366e-04
7.88815789473684e+00 1.64539717318595e-02 2.35530101361372e-04
7.94552631578947e+00 1.61562836317409e-02 2.32108320804969e-04
8.00289473684211e+00 1.58639813562150e-02 2.28730289179593e-04
8.06026315789474e+00 1.55769674640105e-02 2.25395628628425e-04
8.11763157894737e+00 1.52951462767805e-02 2.22103957921824e-04
8.17500000000000e+00 1.50184238472073e-02 2.18854892867934e-04
8.23236842105263e+00 1.47467079276843e-02 2.15648046632337e-04
8.28973684210526e+00 1.44799079395648e-02 2.12483030043756e-04
8.34710526315789e+00 1.42179349429665e-02 2.09359451886474e-04
8.40447368421053e+00 1.39607016071232e-02 2.06276919179825e-04
8.46184210526316e+00 1.37081221812719e-02 2.03235037501984e-04
8.51921052631579e+00 1.34601124657805e-02 2.00233411072556e-04
8.57657894736842e+00 1.32165897849523e-02 1.97271643112391e-04
8.63394736842105e+00 1.29774729585794e-02 1.94349336196281e-04
8.69131578947368e+00 1.27426822751799e-02 1.91466092293545e-04
8.74868421052632e+00 1.25121394654263e-02 1.88621513041448e-04
8.80605263157895e+00 1.22857676760528e-02 1.85815199947327e-04
8.86342105263158e+00 1.20634914442366e-02 1.83046754581422e-04
8.92078947368421e+00 1.18452366724415e-02 1.80315778760781e-04
8.97815789473684e+00 1.16309306037165e-02 1.77621874771124e-04
9.03552631578947e+00 1.14205017972128e-02 1.74964645391336e-04
9.09289473684210e+00 1.12138801050663e-02 1.72343694147865e-04
9.15026315789474e+00 1.10109966483050e-02 1.69758625564635e-04
9.20763157894737e+00 1.08117837941273e-02 1.67209045157011e-04
9.26500000000000e+00 1.06161751333556e-02 1.64694559618866e-04
9.32236842105263e+00 1.04241054582988e-02 1.62214776952173e-04
9.37973684210526e+00 1.02355107410148e-02 1.59769306589992e-04
9.43710526315789e+00 1.00503281119660e-02 1.57357759513209e-04
9.49447368421053e+00 9.86849583906150e-03 1.54979748361145e-04
9.55184210526316e+00 9.68995330707798e-03 1.52634887574069e-04
9.60921052631579e+00 9.51464099727364e-03 1.50322793377450e-04
9.66657894736842e+00 9.34250046809395e-03 1.48043083952871e-04
9.72394736842105e+00 9.17347433513479e-03 1.45795379606405e-04
9.78131578947368e+00 9.00750625220067e-03 1.43579302731306e-04
9.83868421052632e+00 8.84454089252121e-03 1.41394477927586e-04
9.89605263157895e+00 8.68452393030740e-03 1.39240532076055e-04
9.95342105263158e+00 8.52740202264201e-03 1.37117094407996e-04
1.00107894736842e+01 8.37312279169709e-03 1.35023796634624e-04
1.00681578947368e+01 8.22163480697611e-03 1.32960272751284e-04
1.01255263157895e+01 8.07288756936401e-03 1.30926159354957e-04
1.01828947368421e+01 7.92683149277399e-03 1.28921095830712e-04
1.02402631578947e+01 7.78341788824185e-03 1.26944724356219e-04
1.02976315789474e+01 7.64259894634739e-03 1.24996689196787e-04
1.03550000000000e+01 7.50432772537253e-03 1.23076637347236e-04
1.04123684210526e+01 7.36855813149568e-03 1.21184219190601e-04
1.04697368421053e+01 7.23524490483318e-03 1.19319087867281e-04
1.05271052631579e+01 7.10434360312749e-03 1.17480898806449e-04
1.05844736842105e+01 6.97581059065963e-03 1.15669310308715e-04
1.06418421052632e+01 6.84960301991925e-03 1.13883984144416e-04
1.06992105263158e+01 6.72567881859958e-03 1.12124584716473e-04
1.07565789473684e+01 6.60399667557478e-03 1.10390779617681e-04
1.08139473684211e+01 6.48451602603986e-03 1.08682238914456e-04
1.08713157894737e+01 6.36719704129896e-03 1.06998635661533e-04
1.09286842105263e+01 6.25200061212837e-03 1.05339646431591e-04
1.09860526315789e+01 6.13888833687389e-03 1.03704950552566e-04
1.10434210526316e+01 6.02782250865285e-03 1.02094230600909e-04
1.11007894736842e+01 5.91876610181532e-03 1.00507171748346e-04
1.11581578947368e+01 5.81168276254420e-03 9.89434622168564e-05
1.12155263157895e+01 5.70653679375031e-03 9.74027937474329e-05
1.12728947368421e+01 5.60329314418198e-03 9.58848609057174e-05
1.13302631578947e+01 5.50191739674235e-03 9.43893615187661e-05
1.13876315789474e+01 5.40237575615488e-03 9.29159960789193e-05
1.14450000000000e+01 5.30463504031457e-03 9.14644681465472e-05
1.15023684210526e+01 5.20866266657068e-03 9.00344847650255e-05
1.15597368421053e+01 5.11442664176379e-03 8.86257560099669e-05
1.16171052631579e+01 5.02189555077661e-03 8.72379946472823e-05
1.16744736842105e+01 4.93103854844821e-03 8.58709164992890e-05
1.17318421052632e+01 4.84182534686965e-03 8.45242408221856e-05
1.17892105263158e+01 4.75422620610551e-03 8.31976897185548e-05
1.18465789473684e+01 4.66821192428128e-03 8.18909884886446e-05
1.19039473684211e+01 4.58375382714977e-03 8.06038651246280e-05
1.19613157894737e+01 4.50082376065762e-03 7.93360506345653e-05
1.20186842105263e+01 4.41939407940369e-03 7.80872793771214e-05
1.20760526315789e+01 4.33943763815150e-03 7.68572885264135e-05
1.21334210526316e+01 4.26092778278213e-03 7.56458183834163e-05
1.21907894736842e+01 4.18383834078544e-03 7.44526119148797e-05
1.22481578947368e+01 4.10814361442883e-03 7.32774150401445e-05
1.23055263157895e+01 4.03381837026976e-03 7.21199769278440e-05
1.23628947368421e+01 3.96083783139327e-03 7.09800495086904e-05
1.24202631578947e+01 3.88917766915350e-03 6.98573877516224e-05
1.24776315789474e+01 3.81881399450807e-03 6.87517492431671e-05
1.25350000000000e+01 3.74972335174238e-03 6.76628944416730e-05
1.25923684210526e+01 3.68188270893801e-03 6.65905869403363e-05
1.26497368421053e+01 3.61526945087420e-03 6.55345931461914e-05
1.27071052631579e+01 3.54986137098232e-03 6.44946820324869e-05
1.27644736842105e+01 3.48563666548497e-03 6.34706253700028e-05
1.28218421052632e+01 3.42257392456327e-03 6.24621979665212e-05
1.28792105263158e+01 3.36065212574815e-03 6.14691772546400e-05
1.29365789473684e+01 3.29985062691321e-03 6.04913435143628e-05
1.29939473684211e+01 3.24014915894098e-03 5.95284795164178e-05
1.30513157894737e+01 3.18152782034190e-03 5.85803707271681e-05
1.31086842105263e+01 3.12396706922440e-03 5.76468055211964e-05
1.31660526315789e+01 3.06744771725178e-03 5.67275748058163e-05
1.32234210526316e+01 3.01195092324677e-03 5.58224722185958e-05
1.32807894736842e+01 2.95745818650630e-03 5.49312938021994e-05
1.33381578947368e+01 2.90395134186248e-03 5.40538381859707e-05
1.33955263157895e+01 2.85141255238120e-03 5.31899067745598e-05
1.34528947368421e+01 2.79982430383712e-03 5.23393034060178e-05
1.35102631578947e+01 2.74916939887582e-03 5.15018345271138e-05
1.35676315789474e+01 2.69943095091988e-03 5.06773088967335e-05
1.36250000000000e+01 2.65059237963664e-03 4.98655377469575e-05
1.36823684210526e+01 2.60263740429823e-03 4.90663349504242e-05
1.37397368421053e+01 2.55555003873065e-03 4.82795167921404e-05
1.37971052631579e+01 2.50931458565490e-03 4.75049017909837e-05
1.38544736842105e+01 2.46391563245765e-03 4.67423108463398e-05
1.39118421052632e+01 2.41933804503546e-03 4.59915673905626e-05
1.39692105263158e+01 2.37556696309349e-03 4.52524970996853e-05
1.40265789473684e+01 2.33258779519225e-03 4.45249280349142e-05
1.40839473684211e+01 2.29038621358833e-03 4.38086903911605e-05
1.41413157894737e+01 2.24894815035523e-03 4.31036166270198e-05
1.41986842105263e+01 2.20825979178389e-03 4.24095416002005e-05
1.42560526315789e+01 2.16830757408500e-03 4.17263023039514e-05
1.43134210526316e+01 2.12907817886814e-03 4.10537379926944e-05
1.43707894736842e+01 2.09055852843784e-03 4.03916899527683e-05
1.44281578947368e+01 2.05273578223626e-03 3.97400016176678e-05
1.44855263157895e+01 2.01559733174915e-03 3.90985186882733e-05
1.45428947368421e+01 1.97913079657759e-03 3.84670888928043e-05
1.46002631578947e+01 1.94332402031132e-03 3.78455620983804e-05
1.46576315789474e+01 1.90816506624007e-03 3.72337901018943e-05
1.47150000000000e+01 1.87364221409203e-03 3.66316267322789e-05
1.47723684210526e+01 1.83974395539896e-03 3.60389279572336e-05
1.48297368421053e+01 1.80645898990592e-03 3.54555517211673e-05
1.48871052631579e+01 1.77377622158819e-03 3.48813578169079e-05
1.49444736842105e+01 1.74168475560957e-03 3.43162079788192e-05
1.50018421052632e+01 1.71017389402398e-03 3.37599659800562e-05
1.50592105263158e+01 1.67923313243427e-03 3.32124974293971e-05
1.51165789473684e+01 1.64885215649090e-03 3.26736698613428e-05
1.51739473684211e+01 1.61902083825990e-03 3.21433525588070e-05
1.52313157894737e+01 1.58972923343518e-03 3.16214166356718e-05
1.52886842105263e+01 1.56096757742674e-03 3.11077351232023e-05
1.53460526315789e+01 1.53272628230707e-03 3.06021827849069e-05
1.54034210526316e+01 1.50499593361540e-03 3.01046361965528e-05
1.54607894736842e+01 1.47776728704578e-03 2.96149735844998e-05
1.55181578947368e+01 1.45103126589241e-03 2.91330748988990e-05
1.55755263157895e+01 1.42477895748951e-03 2.86588218904299e-05
1.56328947368421e+01 1.39900161042073e-03 2.81920979416449e-05
1.56902631578947e+01 1.37369063160205e-03 2.77327881380289e-05
1.57476315789474e+01 1.34883758326186e-03 2.72807791205207e-05
1.58050000000000e+01 1.32443418060018e-03 2.68359591504723e-05
1.58623684210526e+01 1.30047228854822e-03 2.63982181777765e-05
1.59197368421053e+01 1.27694391921827e-03 2.59674477258205e-05
1.59771052631579e+01 1.25384122909866e-03 2.55435407994687e-05
1.60344736842105e+01 1.23115651687188e-03 2.51263919442091e-05
1.60918421052632e+01 1.20888222040836e-03 2.47158973082344e-05
1.61492105263158e+01 1.18701091439382e-03 2.43119544996582e-05
1.62065789473684e+01 1.16553530785415e-03 2.39144626439054e-05
1.62639473684211e+01 1.14444824159732e-03 2.35233222586547e-05
1.63213157894737e+01 1.12374268621474e-03 2.31384353062684e-05
1.63786842105263e+01 1.10341173934458e-03 2.27597052489555e-05
1.64360526315789e+01 1.08344862350364e-03 2.23870369186302e-05
1.64934210526316e+01 1.06384668382830e-03 2.20203365678753e-05
1.65507894736842e+01 1.04459938574150e-03 2.16595117558997e-05
1.66081578947368e+01 1.02570031312232e-03 2.13044713950191e-05
1.66655263157895e+01 1.00714316581436e-03 2.09551257996342e-05
1.67228947368421e+01 9.88921757644708e-04 2.06113865676497e-05
1.67802631578947e+01 9.71030014361897e-04 2.02731666257262e-05
1.68376315789474e+01 9.53461971508271e-04 1.99403801252347e-05
1.68950000000000e+01 9.36211772743754e-04 1.96129424834930e-05
1.69523684210526e+01 9.19273667577185e-04 1.92907704272413e-05
1.70097368421053e+01 9.02642009556313e-04 1.89737819109895e-05
1.70671052631579e+01 8.86311254291377e-04 1.86618960511032e-05
1.71244736842105e+01 8.70275957893184e-04 1.83550331633390e-05
1.71818421052632e+01 8.54530774868007e-04 1.80531148024572e-05
1.72392105263158e+01 8.39070456433672e-04 1.77560636617986e-05
1.72965789473684e+01 8.23889848769958e-04 1.74638036098114e-05
1.73539473684210e+01 8.08983891215974e-04 1.71762596018120e-05
1.74113157894737e+01 7.94347614840146e-04 1.68933577132429e-05
1.74686842105263e+01 7.79976140523232e-04 1.66150251748588e-05
1.75260526315789e+01 7.65864677419804e-04 1.63411902811773e-05
1.75834210526316e+01 7.52008521361346e-04 1.60717824229051e-05
1.76407894736842e+01 7.38403053212124e-04 1.58067320064567e-05
1.76981578947368e+01 7.25043737560062e-04 1.55459704834211e-05
1.77555263157895e+01 7.11926120970947e-04 1.52894303817948e-05
1.78128947368421e+01 6.99045830582853e-04 1.50370452225450e-05
1.78702631578947e+01 6.86398572648505e-04 1.47887495483878e-05
1.79276315789474e+01 6.73980131035741e-04 1.45444788503539e-05
1.79850000000000e+01 6.61786366029177e-04 1.43041695939150e-05
1.80423684210526e+01 6.49813212740189e-04 1.40677592466952e-05
1.80997368421053e+01 6.38056679822838e-04 1.38351862205168e-05
