Energy (eV)          EEDF (eV^-(3/2))     First Anisotropy
4.73611111111111e-02 3.61857418503839e-02 2.25941656561237e-05
1.42083333333333e-01 3.58403036919863e-02 3.72565562795869e-05
2.36805555555556e-01 3.54981631733171e-02 4.90431109173707e-05
3.31527777777778e-01 3.51592888126439e-02 5.79128414343015e-05
4.26250000000000e-01 3.48236494319355e-02 6.52406193766606e-05
5.20972222222222e-01 3.44912141490410e-02 7.15483353392911e-05
6.15694444444444e-01 3.41619523767551e-02 7.71070892823108e-05
7.10416666666667e-01 3.38358338194334e-02 8.20811936802579e-05
8.05138888888889e-01 3.35128284717121e-02 8.65800191402589e-05
8.99861111111111e-01 3.31929066140767e-02 9.06811443602300e-05
9.94583333333333e-01 3.28760388107230e-02 9.44422014111971e-05
1.08930555555556e+00 3.25621959079910e-02 9.79075414477438e-05
1.18402777777778e+00 3.22513490260353e-02 1.01112258227750e-04
1.27875000000000e+00 3.19434695669739e-02 1.04084754401249e-04
1.37347222222222e+00 3.16385292029052e-02 1.06848451270788e-04
1.46819444444444e+00 3.13364998763876e-02 1.09422968088514e-04
1.56291666666667e+00 3.10373537959140e-02 1.11824960918327e-04
1.65763888888889e+00 3.07410634393684e-02 1.14068735204811e-04
1.75236111111111e+00 3.04476015452303e-02 1.16166702593530e-04
1.84708333333333e+00 3.01569411122067e-02 1.18129727212831e-04
1.94180555555556e+00 2.98690553968087e-02 1.19967394029252e-04
2.03652777777778e+00 2.95839179094450e-02 1.21688218572466e-04
2.13125000000000e+00 2.93015024163174e-02 1.23299814239598e-04
2.22597222222222e+00 2.90217829325418e-02 1.24809026870767e-04
2.32069444444444e+00 2.87447337212992e-02 1.26222043533575e-04
2.41541666666667e+00 2.84703292903271e-02 1.27544481834429e-04
2.51013888888889e+00 2.81985443930848e-02 1.28781464332974e-04
2.60486111111111e+00 2.79293540228212e-02 1.29937680694261e-04
2.69958333333333e+00 2.76627334114970e-02 1.31017439309001e-04
2.79430555555556e+00 2.73986580275310e-02 1.32024711610494e-04
2.88902777777778e+00 2.71371035726218e-02 1.32963169279766e-04
2.98375000000000e+00 2.68780459822875e-02 1.33836216665787e-04
3.07847222222222e+00 2.66214614208114e-02 1.34647018760473e-04
3.17319444444444e+00 2.63673262800214e-02 1.35398524978679e-04
3.26791666666667e+00 2.61156171763463e-02 1.36093489891661e-04
3.36263888888889e+00 2.58663109510268e-02 1.36734491739829e-04
3.45736111111111e+00 2.56193846655704e-02 1.37323948715719e-04
3.55208333333333e+00 2.53748156004562e-02 1.37864132807640e-04
3.64680555555556e+00 2.51325812530576e-02 1.38357182542648e-04
3.74152777777778e+00 2.48926593349238e-02 1.38805113850304e-04
3.83625000000000e+00 2.46550277716844e-02 1.39209830178619e-04
3.93097222222222e+00 2.44196646990253e-02 1.39573131558158e-04
4.02569444444444e+00 2.41865484613557e-02 1.39896722358662e-04
4.12041666666667e+00 2.39556576092561e-02 1.40182218290626e-04
4.21513888888889e+00 2.37269708992144e-02 1.40431153035482e-04
4.30986111111111e+00 2.35004672899302e-02 1.40644984257043e-04
4.40458333333333e+00 2.32761259409651e-02 1.40825098628350e-04
4.49930555555556e+00 2.30539262108337e-02 1.40972816805051e-04
4.59402777777778e+00 2.28338476546216e-02 1.41089397575953e-04
4.68875000000000e+00 2.26158700235604e-02 1.41176042014705e-04
4.78347222222222e+00 2.23999732616845e-02 1.41233897290431e-04
4.87819444444444e+00 2.21861375044878e-02 1.41264059850147e-04
4.97291666666667e+00 2.19743430766716e-02 1.41267578361834e-04
5.06763888888889e+00 2.17645704916300e-02 1.41245456687814e-04
5.16236111111111e+00 2.15568004483397e-02 1.41198656636382e-04
5.25708333333333e+00 2.13510138300280e-02 1.41128100147589e-04
5.35180555555556e+00 2.11471917024183e-02 1.41034671656067e-04
5.44652777777778e+00 2.09453153116163e-02 1.40919219958842e-04
5.54125000000000e+00 2.07453660835081e-02 1.40782560256456e-04
5.63597222222222e+00 2.05473256209104e-02 1.40625476058701e-04
5.73069444444444e+00 2.03511757022643e-02 1.40448720695132e-04
5.82541666666667e+00 2.01568982796264e-02 1.40253018739720e-04
5.92013888888889e+00 1.99644754780205e-02 1.40039067566577e-04
6.01486111111111e+00 1.97738895927658e-02 1.39807538811353e-04
6.10958333333333e+00 1.95851230881933e-02 1.39559079436515e-04
6.20430555555556e+00 1.93981585960356e-02 1.39294313020136e-04
6.29902777777778e+00 1.92129789135348e-02 1.39013840689796e-04
6.39375000000000e+00 1.90295670027490e-02 1.38718242263719e-04
6.48847222222222e+00 1.88479059880827e-02 1.38408077330060e-04
6.58319444444444e+00 1.86679791550391e-02 1.38083886037461e-04
6.67791666666667e+00 1.84897699484166e-02 1.37746189854282e-04
6.77263888888889e+00 1.83132619715944e-02 1.37395492479297e-04
6.86736111111111e+00 1.81384389842036e-02 1.37032280707095e-04
6.96208333333333e+00 1.79652849009092e-02 1.36657024986382e-04
7.05680555555556e+00 1.77937837899319e-02 1.36270180198436e-04
7.15152777777778e+00 1.76239198713449e-02 1.35872186156854e-04
7.24625000000000e+00 1.74556775163401e-02 1.35463468309660e-04
7.34097222222222e+00 1.72890412450624e-02 1.35044438410072e-04
7.43569444444444e+00 1.71239957254312e-02 1.34615494958851e-04
7.53041666666667e+00 1.69605257715141e-02 1.34177023637055e-04
7.62513888888889e+00 1.67986163427862e-02 1.33729397886259e-04
7.71986111111111e+00 1.66382525420809e-02 1.33272979465015e-04
7.81458333333333e+00 1.64794196144429e-02 1.32808118754192e-04
7.90930555555556e+00 1.63221029457724e-02 1.32335155265084e-04
8.00402777777778e+00 1.61662880612858e-02 1.31854417917963e-04
8.09875000000000e+00 1.60119606247719e-02 1.31366225506774e-04
8.19347222222222e+00 1.58591064366773e-02 1.30870887146769e-04
8.28819444444444e+00 1.57077114330016e-02 1.30368702533464e-04
8.38291666666667e+00 1.55577616838245e-02 1.29859962201133e-04
8.47763888888889e+00 1.54092433925656e-02 1.29344947917401e-04
8.57236111111111e+00 1.52621428941673e-02 1.28823933064483e-04
8.66708333333333e+00 1.51164466540215e-02 1.28297182808963e-04
8.76180555555556e+00 1.49721412667256e-02 1.27764954453935e-04
8.85652777777778e+00 1.48292134546877e-02 1.27227497596921e-04
8.95125000000000e+00 1.46876500673923e-02 1.26685054455407e-04
9.04597222222222e+00 1.45474380796971e-02 1.26137860182514e-04
9.14069444444444e+00 1.44085645908014e-02 1.25586143022872e-04
9.23541666666667e+00 1.42710168229104e-02 1.25030124471996e-04
9.33013888888889e+00 1.41347821205098e-02 1.24470019558619e-04
9.42486111111111e+00 1.39998479487463e-02 1.23906037119137e-04
9.51958333333333e+00 1.38662018924267e-02 1.23338379890801e-04
9.61430555555556e+00 1.37338316548771e-02 1.22767244767484e-04
9.70902777777778e+00 1.36027250566763e-02 1.22192822888435e-04
9.80375000000000e+00 1.34728700349427e-02 1.21615299876666e-04
9.89847222222222e+00 1.33442546418124e-02 1.21034856071390e-04
9.99319444444444e+00 1.32168670434788e-02 1.20451666741206e-04
1.00879166666667e+01 1.30906955184771e-02 1.19865901768657e-04
1.01826388888889e+01 1.29657284587512e-02 1.19277726218884e-04
1.02773611111111e+01 1.28419543661634e-02 1.18687300787865e-04
1.03720833333333e+01 1.27193618523367e-02 1.18094781360928e-04
1.04668055555556e+01 1.25979396376145e-02 1.17500319635954e-04
1.05615277777778e+01 1.24776765488862e-02 1.16904062429995e-04
1.06562500000000e+01 1.23585615219926e-02 1.16306152358713e-04
1.07509722222222e+01 1.22405835972369e-02 1.15706728518119e-04
1.08456944444444e+01 1.21237319195467e-02 1.15105926010086e-04
1.09404166666667e+01 1.20079957364228e-02 1.14503875560176e-04
1.10351388888889e+01 1.18933644001423e-02 1.13900704152048e-04
1.11298611111111e+01 1.17798273635518e-02 1.13296535664413e-04
1.12245833333333e+01 1.16673741801812e-02 1.12691490167889e-04
1.13193055555556e+01 1.15559945032882e-02 1.12085684534238e-04
1.14140277777778e+01 1.14456780839420e-02 1.11479231805100e-04
1.15087500000000e+01 1.13364147729934e-02 1.10872241772739e-04
1.16034722222222e+01 1.12281945171968e-02 1.10264821563931e-04
1.16981944444444e+01 1.11210073592778e-02 1.09657075205084e-04
1.17929166666667e+01 1.10148434361217e-02 1.09049103268109e-04
1.18876388888889e+01 1.09096929805807e-02 1.08441003415169e-04
1.19823611111111e+01 1.08055463178321e-02 1.07832870946684e-04
1.20770833333333e+01 1.07023938654094e-02 1.07224798166467e-04
1.21718055555556e+01 1.06002261323252e-02 1.06616874906775e-04
1.22665277777778e+01 1.04990337173751e-02 1.06009187956813e-04
1.23612500000000e+01 1.03988073107585e-02 1.05401821564077e-04
1.24559722222222e+01 1.02995376907104e-02 1.04794857939236e-04
1.25506944444444e+01 1.02012157234995e-02 1.04188376860496e-04
1.26454166666667e+01 1.01038323618216e-02 1.03582455348777e-04
1.27401388888889e+01 1.00073786462894e-02 1.02977168139607e-04
1.28348611111111e+01 9.91184570226175e-03 1.02372588158555e-04
1.29295833333333e+01 9.81722473981590e-03 1.01768785949636e-04
1.30243055555556e+01 9.72350705294173e-03 1.01165830131378e-04
1.31190277777778e+01 9.63068401803545e-03 1.00563786881102e-04
1.32137500000000e+01 9.53874709523714e-03 9.99627203709784e-05
1.33084722222222e+01 9.44768782549254e-03 9.93626932077456e-05
1.34031944444444e+01 9.35749783049985e-03 9.87637660743473e-05
1.34979166666667e+01 9.26816881128075e-03 9.81659974337869e-05
1.35926388888889e+01 9.17969254941128e-03 9.75694439406916e-05
1.36873611111111e+01 9.09206090425127e-03 9.69741608564461e-05
1.37820833333333e+01 9.00526581287180e-03 9.63802015352616e-05
1.38768055555556e+01 8.91929928931637e-03 9.57876178227913e-05
1.39715277777778e+01 8.83415342325854e-03 9.51964595915083e-05
1.40662500000000e+01 8.74982038110911e-03 9.46067751222183e-05
1.41609722222222e+01 8.66629240344234e-03 9.40186114891757e-05
1.42556944444444e+01 8.58356180490608e-03 9.34320142362878e-05
1.43504166666667e+01 8.50162097294689e-03 9.28470271081581e-05
1.44451388888889e+01 8.42046236882990e-03 9.22636924109189e-05
1.45398611111111e+01 8.34007852520804e-03 9.16820513765321e-05
1.46345833333333e+01 8.26046204601835e-03 9.11021437010014e-05
1.47293055555556e+01 8.18160560580387e-03 9.05240078944707e-05
1.48240277777778e+01 8.10350194851458e-03 8.99476808629867e-05
1.49187500000000e+01 8.02614388842568e-03 8.93731982438442e-05
1.50134722222222e+01 7.94952430787523e-03 8.88005947443863e-05
1.51081944444444e+01 7.87363615714842e-03 8.82299038498691e-05
1.52029166666667e+01 7.79847245333739e-03 8.76611575797515e-05
1.52976388888889e+01 7.72402628118776e-03 8.70943868053774e-05
1.53923611111111e+01 7.65029079095905e-03 8.65296215710026e-05
1.54870833333333e+01 7.57725919829924e-03 8.59668906788969e-05
1.55818055555556e+01 7.50492478362255e-03 8.54062219980213e-05
1.56765277777778e+01 7.43328089103577e-03 8.48476420876713e-05
1.57712500000000e+01 7.36232092910123e-03 8.42911764933586e-05
1.58659722222222e+01 7.29203836884198e-03 8.37368500459570e-05
1.59606944444444e+01 7.22242674360843e-03 8.31846865983048e-05
1.60554166666667e+01 7.15347964805644e-03 8.26347088046879e-05
1.61501388888889e+01 7.08519073885101e-03 8.20869384015212e-05
1.62448611111111e+01 7.01755373277744e-03 8.15413964911603e-05
1.63395833333333e+01 6.95056240660143e-03 8.09981031690699e-05
1.64343055555556e+01 6.88421059649813e-03 8.04570777968722e-05
1.65290277777778e+01 6.81849219708897e-03 7.99183386636662e-05
1.66237500000000e+01 6.75340116207613e-03 7.93819032478976e-05
1.67184722222222e+01 6.68893150247882e-03 7.88477884822859e-05
1.68131944444444e+01 6.62507728648871e-03 7.83160105164252e-05
1.69079166666667e+01 6.56183263855221e-03 7.77865845173902e-05
1.70026388888889e+01 6.49919173995598e-03 7.72595249184521e-05
1.70973611111111e+01 6.43714882715502e-03 7.67348456706993e-05
1.71920833333333e+01 6.37569819162399e-03 7.62125599078625e-05
1.72868055555556e+01 6.31483417933333e-03 7.56926801885194e-05
1.73815277777778e+01 6.25455118988355e-03 7.51752181912475e-05
1.74762500000000e+01 6.19484367703329e-03 7.46601849469881e-05
1.75709722222222e+01 6.13570614713616e-03 7.41475910742677e-05
1.76656944444444e+01 6.07713315898954e-03 7.36374465652303e-05
1.77604166666667e+01 6.01911932300931e-03 7.31297606054404e-05
1.78551388888889e+01 5.96165930171703e-03 7.26245417947824e-05
1.79498611111111e+01 5.90474780825676e-03 7.21217983710712e-05
1.80445833333333e+01 5.84837960624176e-03 7.16215379086230e-05
1.81393055555556e+01 5.79254950927371e-03 7.11237675335417e-05
1.82340277777778e+01 5.73725238016363e-03 7.06284936492586e-05
1.83287500000000e+01 5.68248313137122e-03 7.01357221431869e-05
1.84234722222222e+01 5.62823672361649e-03 6.96454585959895e-05
1.85181944444444e+01 5.57450816572572e-03 6.91577080887110e-05
1.86129166666667e+01 5.52129251388811e-03 6.86724750399546e-05
1.87076388888889e+01 5.46858487206116e-03 6.81897634024923e-05
1.88023611111111e+01 5.41638039065217e-03 6.77095768623792e-05
1.88970833333333e+01 5.36467426636346e-03 6.72319185677125e-05
1.89918055555556e+01 5.31346174175134e-03 6.67567913204001e-05
1.90865277777778e+01 5.26273810452379e-03 6.62841973289350e-05
1.91812500000000e+01 5.21249868790605e-03 6.58141383925272e-05
1.92759722222222e+01 5.16273886940494e-03 6.53466160876503e-05
1.93706944444444e+01 5.11345407065482e-03 6.48816315941320e-05
1.94654166666667e+01 5.06463975674707e-03 6.44191855480290e-05
1.95601388888889e+01 5.01629143656737e-03 6.39592782169267e-05
1.96548611111111e+01 4.96840466162121e-03 6.35019096775559e-05
1.97495833333333e+01 4.92097502588021e-03 6.30470795715937e-05
1.98443055555556e+01 4.87399816537747e-03 6.25947872767571e-05
1.99390277777778e+01 4.82746975757372e-03 6.21450316840187e-05
2.00337500000000e+01 4.78138552166127e-03 6.16978113619398e-05
2.01284722222222e+01 4.73574121746231e-03 6.12531247232273e-05
2.02231944444444e+01 4.69053264527686e-03 6.08109698678662e-05
2.03179166666667e+01 4.64575564527738e-03 6.03713444501639e-05
2.04126388888889e+01 4.60140609778891e-03 5.99342458353061e-05
2.05073611111111e+01 4.55747992224128e-03 5.94996712580244e-05
2.06020833333333e+01 4.51397307701819e-03 5.90676176026151e-05
2.06968055555556e+01 4.47088155908599e-03 5.86380815558312e-05
2.07915277777778e+01 4.42820140342101e-03 5.82110594060170e-05
2.08862500000000e+01 4.38592868326191e-03 5.77865471899898e-05
2.09809722222222e+01 4.34405950912581e-03 5.73645408419566e-05
2.10756944444444e+01 4.30259002865990e-03 5.69450360519640e-05
2.11704166666667e+01 4.26151642609410e-03 5.65280281457292e-05
2.12651388888889e+01 4.22083492247351e-03 5.61135122246366e-05
2.13598611111111e+01 4.18054177472217e-03 5.57014833076764e-05
2.14545833333333e+01 4.14063327549619e-03 5.52919361331783e-05
2.15493055555556e+01 4.10110575284322e-03 5.48848652956039e-05
2.16440277777778e+01 4.06195556968458e-03 5.44802650643639e-05
2.17387500000000e+01 4.02317912402433e-03 5.40781295152693e-05
2.18334722222222e+01 3.98477284806943e-03 5.36784526638430e-05
2.19281944444444e+01 3.94673320808590e-03 5.32812283375436e-05
2.20229166666667e+01 3.90905670390373e-03 5.28864500671167e-05
2.21176388888889e+01 3.87173986910925e-03 5.24941112119447e-05
2.22123611111111e+01 3.83477927020733e-03 5.21042050871725e-05
2.23070833333333e+01 3.79817150647961e-03 5.17167247849105e-05
2.24018055555556e+01 3.76191320967213e-03 5.13316632967713e-05
2.24965277777778e+01 3.72600104352649e-03 5.09490133503617e-05
2.25912500000000e+01 3.69043170395275e-03 5.05687675270535e-05
2.26859722222222e+01 3.65520191824148e-03 5.01909183814669e-05
2.27806944444444e+01 3.62030844492538e-03 4.98154583260801e-05
2.28754166666667e+01 3.58574807333091e-03 4.94423795329620e-05
2.29701388888889e+01 3.55151762373716e-03 4.90716740461322e-05
2.30648611111111e+01 3.51761394662513e-03 4.87033338955458e-05
2.31595833333333e+01 3.48403392254174e-03 4.83373509357670e-05
2.32543055555556e+01 3.45077446181321e-03 4.79737169558494e-05
2.33490277777778e+01 3.41783250412040e-03 4.76124235317063e-05
2.34437500000000e+01 3.38520501864123e-03 4.72534621317473e-05
2.35384722222222e+01 3.35288900334421e-03 4.68968242240662e-05
2.36331944444444e+01 3.32088148485603e-03 4.65425011721842e-05
2.37279166666667e+01 3.28917951805520e-03 4.61904841461582e-05
2.38226388888889e+01 3.25778018620279e-03 4.58407642233955e-05
2.39173611111111e+01 3.22668060026894e-03 4.54933324909454e-05
2.40120833333333e+01 3.19587789880306e-03 4.51481798998659e-05
2.41068055555556e+01 3.16536924767087e-03 4.48052973638559e-05
2.42015277777778e+01 3.13515183966942e-03 4.44646756259018e-05
2.42962500000000e+01 3.10522289464394e-03 4.41263053531038e-05
2.43909722222222e+01 3.07557965885378e-03 4.37901772329244e-05
2.44856944444444e+01 3.04621940484620e-03 4.34562818789680e-05
2.45804166666667e+01 3.01713943108785e-03 4.31246097505336e-05
2.46751388888889e+01 2.98833706207192e-03 4.27951512431444e-05
2.47698611111111e+01 2.95980964771327e-03 4.24678967804359e-05
2.48645833333333e+01 2.93155456322501e-03 4.21428366826262e-05
2.49593055555556e+01 2.90356920887732e-03 4.18199612551223e-05
2.50540277777778e+01 2.87585100964809e-03 4.14992606680089e-05
2.51487500000000e+01 2.84839741531853e-03 4.11807250412493e-05
2.52434722222222e+01 2.82120589990323e-03 4.08643445311816e-05
2.53381944444444e+01 2.79427396153051e-03 4.05501092453226e-05
2.54329166666667e+01 2.76759912210801e-03 4.02380091695470e-05
2.55276388888889e+01 2.74117892740988e-03 3.99280342494497e-05
2.56223611111111e+01 2.71501094653318e-03 3.96201744729550e-05
2.57170833333333e+01 2.68909277178084e-03 3.93144197514690e-05
2.58118055555556e+01 2.66342201844043e-03 3.90107599995333e-05
2.59065277777778e+01 2.63799632446707e-03 3.87091850258793e-05
2.60012500000000e+01 2.61281335056099e-03 3.84096846100394e-05
2.60959722222222e+01 2.58787077965497e-03 3.81122485801375e-05
2.61906944444444e+01 2.56316631680114e-03 3.78168667358258e-05
2.62854166666667e+01 2.53869768886728e-03 3.75235287823388e-05
2.63801388888889e+01 2.51446264460748e-03 3.72322244036821e-05
2.64748611111111e+01 2.49045895417293e-03 3.69429433369443e-05
2.65695833333333e+01 2.46668440900141e-03 3.66556752648543e-05
2.66643055555556e+01 2.44313682161429e-03 3.63704098874589e-05
2.67590277777778e+01 2.41981402532862e-03 3.60871368235759e-05
2.68537500000000e+01 2.39671387431953e-03 3.58058456797373e-05
2.69484722222222e+01 2.37383424315889e-03 3.55265261202014e-05
2.70431944444444e+01 2.35117302670842e-03 3.52491677972087e-05
2.71379166666667e+01 2.32872813984388e-03 3.49737602912529e-05
2.72326388888889e+01 2.30649751751175e-03 3.47002931769537e-05
2.73273611111111e+01 2.28447911428864e-03 3.44287560899576e-05
2.74220833333333e+01 2.26267090427720e-03 3.41591386297658e-05
2.75168055555556e+01 2.24107088091992e-03 3.38914304242662e-05
2.76115277777778e+01 2.21967705673741e-03 3.36256210405701e-05
2.77062500000000e+01 2.19848746337830e-03 3.33617000470845e-05
2.78009722222222e+01 2.17750015120350e-03 3.30996570765663e-05
2.78956944444444e+01 2.15671318918565e-03 3.28394817629882e-05
2.79904166666667e+01 2.13612466465844e-03 3.25811636874157e-05
2.80851388888889e+01 2.11573268336157e-03 3.23246924373302e-05
2.81798611111111e+01 2.09553536904370e-03 3.20700576668981e-05
2.82745833333333e+01 2.07553086336459e-03 3.18172490090562e-05
2.83693055555556e+01 2.05571732572425e-03 3.15662561336404e-05
2.84640277777778e+01 2.03609293302505e-03 3.13170686666817e-05
2.85587500000000e+01 2.01665587971107e-03 3.10696762463300e-05
2.86534722222222e+01 1.99740437739314e-03 3.08240685796753e-05
2.87481944444444e+01 1.97833665475457e-03 3.05802353855712e-05
2.88429166666667e+01 1.95945095732302e-03 3.03381663455785e-05
2.89376388888889e+01 1.94074554750588e-03 3.00978511574314e-05
2.90323611111111e+01 1.92221870423203e-03 2.98592795893493e-05
2.91270833333333e+01 1.90386872286009e-03 2.96224414004691e-05
2.92218055555556e+01 1.88569391502167e-03 2.93873263932468e-05
2.93165277777778e+01 1.86769260840498e-03 2.91539243403711e-05
2.94112500000000e+01 1.84986314678538e-03 2.89222250351827e-05
2.95059722222222e+01 1.83220388968710e-03 2.86922183429048e-05
2.96006944444444e+01 1.81471321229476e-03 2.84638941488440e-05
2.96954166666667e+01 1.79738950524594e-03 2.82372423139165e-05
2.97901388888889e+01 1.78023117465835e-03 2.80122527228534e-05
2.98848611111111e+01 1.76323664180653e-03 2.77889153331774e-05
