Energy (eV)          EEDF (eV^-(3/2))     First Anisotropy
1.36250000000000e-02 2.01696563331795e-01 1.19465226097215e-04
4.08750000000000e-02 1.99954955785242e-01 1.97081897579545e-04
6.81250000000000e-02 1.98228386654661e-01 2.59669839638145e-04
9.53750000000000e-02 1.96516726086583e-01 3.06914810387703e-04
1.22625000000000e-01 1.94819845348716e-01 3.46067265778441e-04
1.49875000000000e-01 1.93137616820329e-01 3.79875647805108e-04
1.77125000000000e-01 1.91469913982669e-01 4.09765794553985e-04
2.04375000000000e-01 1.89816611409442e-01 4.36600803322148e-04
2.31625000000000e-01 1.88177584757384e-01 4.60954456386749e-04
2.58875000000000e-01 1.86552710756909e-01 4.83233246598250e-04
2.86125000000000e-01 1.84941867202837e-01 5.03738784488214e-04
3.13375000000000e-01 1.83344932945205e-01 5.22702896229702e-04
3.40625000000000e-01 1.81761787880153e-01 5.40308804234812e-04
3.67875000000000e-01 1.80192312940894e-01 5.56704626025497e-04
3.95125000000000e-01 1.78636390088758e-01 5.72012361054933e-04
4.22375000000000e-01 1.77093902304313e-01 5.86334091409869e-04
4.49625000000000e-01 1.75564733578566e-01 5.99756389876580e-04
4.76875000000000e-01 1.74048768904235e-01 6.12353534107014e-04
5.04125000000000e-01 1.72545894267107e-01 6.24189901935911e-04
5.31375000000000e-01 1.71055996637452e-01 6.35321790664604e-04
5.58625000000000e-01 1.69578963961531e-01 6.45798822067981e-04
5.85875000000000e-01 1.68114685153166e-01 6.55665043603795e-04
6.13125000000000e-01 1.66663050085384e-01 6.64959802960663e-04
6.40375000000000e-01 1.65223949582135e-01 6.73718450866043e-04
6.67625000000000e-01 1.63797275410081e-01 6.81972911948354e-04
6.94875000000000e-01 1.62382920270458e-01 6.89752152945927e-04
7.22125000000000e-01 1.60980777791003e-01 6.97082570136584e-04
7.49375000000000e-01 1.59590742517954e-01 7.03988312533734e-04
7.76625000000000e-01 1.58212709908123e-01 7.10491553515792e-04
8.03875000000000e-01 1.56846576321028e-01 7.16612720692609e-04
8.31125000000000e-01 1.55492239011103e-01 7.22370691672460e-04
8.58375000000000e-01 1.54149596119966e-01 7.27782961776747e-04
8.85625000000000e-01 1.52818546668763e-01 7.32865788515188e-04
9.12875000000000e-01 1.51498990550570e-01 7.37634316682987e-04
9.40125000000000e-01 1.50190828522865e-01 7.42102687201012e-04
9.67375000000000e-01 1.48893962200065e-01 7.46284132239681e-04
9.94625000000000e-01 1.47608294046127e-01 7.50191058707941e-04
1.02187500000000e+00 1.46333727367209e-01 7.53835121823209e-04
1.04912500000000e+00 1.45070166304401e-01 7.57227290185402e-04
1.07637500000000e+00 1.43817515826516e-01 7.60377903540834e-04
1.10362500000000e+00 1.42575681722939e-01 7.63296724229941e-04
1.13087500000000e+00 1.41344570596546e-01 7.65992983156101e-04
1.15812500000000e+00 1.40124089856676e-01 7.68475420983087e-04
1.18537500000000e+00 1.38914147712170e-01 7.70752325163092e-04
1.21262500000000e+00 1.37714653164466e-01 7.72831563308342e-04
1.23987500000000e+00 1.36525516000755e-01 7.74720613345867e-04
1.26712500000000e+00 1.35346646787198e-01 7.76426590833671e-04
1.29437500000000e+00 1.34177956862197e-01 7.77956273763930e-04
1.32162500000000e+00 1.33019358329730e-01 7.79316125135999e-04
1.34887500000000e+00 1.31870764052736e-01 7.80512313544374e-04
1.37612500000000e+00 1.30732087646568e-01 7.81550731995043e-04
1.40337500000000e+00 1.29603243472488e-01 7.82437015137454e-04
1.43062500000000e+00 1.28484146631235e-01 7.83176555075477e-04
1.45787500000000e+00 1.27374712956633e-01 7.83774515901271e-04
1.48512500000000e+00 1.26274859009262e-01 7.84235847078982e-04
1.51237500000000e+00 1.25184502070186e-01 7.84565295790171e-04
1.53962500000000e+00 1.24103560134729e-01 7.84767418340187e-04
1.56687500000000e+00 1.23031951906309e-01 7.84846590713594e-04
1.59412500000000e+00 1.21969596790322e-01 7.84807018356870e-04
1.62137500000000e+00 1.20916414888081e-01 7.84652745258265e-04
1.64862500000000e+00 1.19872326990808e-01 7.84387662387459e-04
1.67587500000000e+00 1.18837254573677e-01 7.84015515550650e-04
1.70312500000000e+00 1.17811119789906e-01 7.83539912711136e-04
1.73037500000000e+00 1.16793845464905e-01 7.82964330820714e-04
1.75762500000000e+00 1.15785355090470e-01 7.82292122202322e-04
1.78487500000000e+00 1.14785572819028e-01 7.81526520520581e-04
1.81212500000000e+00 1.13794423457936e-01 7.80670646373192e-04
1.83937500000000e+00 1.12811832463822e-01 7.79727512533149e-04
1.86662500000000e+00 1.11837725936982e-01 7.78700028869109e-04
1.89387500000000e+00 1.10872030615818e-01 7.77591006968249e-04
1.92112500000000e+00 1.09914673871333e-01 7.76403164484257e-04
1.94837500000000e+00 1.08965583701665e-01 7.75139129230674e-04
1.97562500000000e+00 1.08024688726674e-01 7.73801443038215e-04
2.00287500000000e+00 1.07091918182571e-01 7.72392565393286e-04
2.03012500000000e+00 1.06167201916598e-01 7.70914876872914e-04
2.05737500000000e+00 1.05250470381752e-01 7.69370682390539e-04
2.08462500000000e+00 1.04341654631553e-01 7.67762214265626e-04
2.11187500000000e+00 1.03440686314861e-01 7.66091635129104e-04
2.13912500000000e+00 1.02547497670731e-01 7.64361040675576e-04
2.16637500000000e+00 1.01662021523322e-01 7.62572462272434e-04
2.19362500000000e+00 1.00784191276841e-01 7.60727869435365e-04
2.22087500000000e+00 9.99139409105363e-02 7.58829172178668e-04
2.24812500000000e+00 9.90512049737318e-02 7.56878223248326e-04
2.27537500000000e+00 9.81959185809035e-02 7.54876820245208e-04
2.30262500000000e+00 9.73480174068008e-02 7.52826707645378e-04
2.32987500000000e+00 9.65074376816079e-02 7.50729578723524e-04
2.35712500000000e+00 9.56741161861482e-02 7.48587077385415e-04
2.38437500000000e+00 9.48479902471292e-02 7.46400799914859e-04
2.41162500000000e+00 9.40289977324295e-02 7.44172296640202e-04
2.43887500000000e+00 9.32170770464252e-02 7.41903073524957e-04
2.46612500000000e+00 9.24121671253579e-02 7.39594593686957e-04
2.49337500000000e+00 9.16142074327419e-02 7.37248278850048e-04
2.52062500000000e+00 9.08231379548113e-02 7.34865510732107e-04
2.54787500000000e+00 9.00388991960066e-02 7.32447632372961e-04
2.57512500000000e+00 8.92614321745000e-02 7.29995949405415e-04
2.60237500000000e+00 8.84906784177592e-02 7.27511731272470e-04
2.62962500000000e+00 8.77265799581502e-02 7.24996212393612e-04
2.65687500000000e+00 8.69690793285773e-02 7.22450593282885e-04
2.68412500000000e+00 8.62181195581611e-02 7.19876041621296e-04
2.71137500000000e+00 8.54736441679537e-02 7.17273693285759e-04
2.73862500000000e+00 8.47355971666914e-02 7.14644653336907e-04
2.76587500000000e+00 8.40039230465829e-02 7.11989996967922e-04
2.79312500000000e+00 8.32785667791354e-02 7.09310770416077e-04
2.82037500000000e+00 8.25594738110154e-02 7.06607991839096e-04
2.84762500000000e+00 8.18465900599461e-02 7.03882652157973e-04
2.87487500000000e+00 8.11398619106397e-02 7.01135715867719e-04
2.90212500000000e+00 8.04392362107653e-02 6.98368121817735e-04
2.92937500000000e+00 7.97446602669511e-02 6.95580783963257e-04
2.95662500000000e+00 7.90560818408218e-02 6.92774592089110e-04
2.98387500000000e+00 7.83734491450691e-02 6.89950412507090e-04
3.01112500000000e+00 7.76967108395577e-02 6.87109088728245e-04
3.03837500000000e+00 7.70258160274632e-02 6.84251442111177e-04
3.06562500000000e+00 7.63607142514449e-02 6.81378272487369e-04
3.09287500000000e+00 7.57013554898506e-02 6.78490358764607e-04
3.12012500000000e+00 7.50476901529546e-02 6.75588459509543e-04
3.14737500000000e+00 7.43996690792278e-02 6.72673313510075e-04
3.17462500000000e+00 7.37572435316410e-02 6.69745640318712e-04
3.20187500000000e+00 7.31203651939989e-02 6.66806140777593e-04
3.22912500000000e+00 7.24889861673062e-02 6.63855497525744e-04
3.25637500000000e+00 7.18630589661657e-02 6.60894375489795e-04
3.28362500000000e+00 7.12425365152065e-02 6.57923422358428e-04
3.31087500000000e+00 7.06273721455435e-02 6.54943269041232e-04
3.33812500000000e+00 7.00175195912681e-02 6.51954530112921e-04
3.36537500000000e+00 6.94129329859677e-02 6.48957804243321e-04
3.39262500000000e+00 6.88135668592766e-02 6.45953674613522e-04
3.41987500000000e+00 6.82193761334564e-02 6.42942709319012e-04
3.44712500000000e+00 6.76303161200053e-02 6.39925461760206e-04
3.47437500000000e+00 6.70463425162975e-02 6.36902471020938e-04
3.50162500000000e+00 6.64674114022510e-02 6.33874262235118e-04
3.52887500000000e+00 6.58934792370246e-02 6.30841346942295e-04
3.55612500000000e+00 6.53245028557429e-02 6.27804223432554e-04
3.58337500000000e+00 6.47604394662506e-02 6.24763377080838e-04
3.61062500000000e+00 6.42012466458931e-02 6.21719280671465e-04
3.63787500000000e+00 6.36468823383271e-02 6.18672394712883e-04
3.66512500000000e+00 6.30973048503566e-02 6.15623167743239e-04
3.69237500000000e+00 6.25524728487978e-02 6.12572036627152e-04
3.71962500000000e+00 6.20123453573702e-02 6.09519426843654e-04
3.74687500000000e+00 6.14768817536150e-02 6.06465752765974e-04
3.77412500000000e+00 6.09460417658397e-02 6.03411417933323e-04
3.80137500000000e+00 6.04197854700895e-02 6.00356815314879e-04
3.82862500000000e+00 5.98980732871446e-02 5.97302327566516e-04
3.85587500000000e+00 5.93808659795432e-02 5.94248327280155e-04
3.88312500000000e+00 5.88681246486312e-02 5.91195177226173e-04
3.91037500000000e+00 5.83598107316360e-02 5.88143230589316e-04
3.93762500000000e+00 5.78558859987663e-02 5.85092831197950e-04
3.96487500000000e+00 5.73563125503373e-02 5.82044313747051e-04
3.99212500000000e+00 5.68610528139199e-02 5.78998004015287e-04
4.01937500000000e+00 5.63700695415151e-02 5.75954219076130e-04
4.04662500000000e+00 5.58833258067526e-02 5.72913267503379e-04
4.07387500000000e+00 5.54007850021134e-02 5.69875449571128e-04
4.10112500000000e+00 5.49224108361769e-02 5.66841057448514e-04
4.12837500000000e+00 5.44481673308912e-02 5.63810375389389e-04
4.15562500000000e+00 5.39780188188675e-02 5.60783679916893e-04
4.18287500000000e+00 5.35119299406973e-02 5.57761240003298e-04
4.21012500000000e+00 5.30498656422932e-02 5.54743317245239e-04
4.23737500000000e+00 5.25917911722526e-02 5.51730166034443e-04
4.26462500000000e+00 5.21376720792438e-02 5.48722033723961e-04
4.29187500000000e+00 5.16874742094152e-02 5.45719160790273e-04
4.31912500000000e+00 5.12411637038266e-02 5.42721780991310e-04
4.34637500000000e+00 5.07987069959027e-02 5.39730121520474e-04
4.37362500000000e+00 5.03600708089083e-02 5.36744403156770e-04
4.40087500000000e+00 4.99252221534461e-02 5.33764840411179e-04
4.42812500000000e+00 4.94941283249752e-02 5.30791641669521e-04
4.45537500000000e+00 4.90667569013516e-02 5.27825009331682e-04
4.48262500000000e+00 4.86430757403897e-02 5.24865139947421e-04
4.50987500000000e+00 4.82230529774449e-02 5.21912224348930e-04
4.53712500000000e+00 4.78066570230171e-02 5.18966447780158e-04
4.56437500000000e+00 4.73938565603751e-02 5.16027990022943e-04
4.59162500000000e+00 4.69846205432009e-02 5.13097025520142e-04
4.61887500000000e+00 4.65789181932550e-02 5.10173723495832e-04
4.64612500000000e+00 4.61767189980617e-02 5.07258248072633e-04
4.67337500000000e+00 4.57779927086139e-02 5.04350758386219e-04
4.70062500000000e+00 4.53827093370985e-02 5.01451408697103e-04
4.72787500000000e+00 4.49908391546407e-02 4.98560348499860e-04
4.75512500000000e+00 4.46023526890687e-02 4.95677722629761e-04
4.78237500000000e+00 4.42172207226961e-02 4.92803671366814e-04
4.80962500000000e+00 4.38354142901257e-02 4.89938330537510e-04
4.83687500000000e+00 4.34569046760701e-02 4.87081831614182e-04
4.86412500000000e+00 4.30816634131925e-02 4.84234301812043e-04
4.89137500000000e+00 4.27096622799655e-02 4.81395864184030e-04
4.91862500000000e+00 4.23408732985488e-02 4.78566637713408e-04
4.94587500000000e+00 4.19752687326848e-02 4.75746737404316e-04
4.97312500000000e+00 4.16128210856127e-02 4.72936274370270e-04
5.00037500000000e+00 4.12535030980004e-02 4.70135355920590e-04
5.02762500000000e+00 4.08972877458945e-02 4.67344085644913e-04
5.05487500000000e+00 4.05441482386877e-02 4.64562563495850e-04
5.08212500000000e+00 4.01940580171041e-02 4.61790885869723e-04
5.10937500000000e+00 3.98469907512014e-02 4.59029145685496e-04
5.13662500000000e+00 3.95029203383911e-02 4.56277432462018e-04
5.16387500000000e+00 3.91618209014748e-02 4.53535832393527e-04
5.19112500000000e+00 3.88236667866985e-02 4.50804428423413e-04
5.21837500000000e+00 3.84884325618227e-02 4.48083300316395e-04
5.24562500000000e+00 3.81560930142104e-02 4.45372524729198e-04
5.27287500000000e+00 3.78266231489300e-02 4.42672175279525e-04
5.30012500000000e+00 3.74999981868761e-02 4.39982322613618e-04
5.32737500000000e+00 3.71761935629057e-02 4.37303034472389e-04
5.35462500000000e+00 3.68551849239906e-02 4.34634375755989e-04
5.38187500000000e+00 3.65369481273859e-02 4.31976408587081e-04
5.40912500000000e+00 3.62214592388144e-02 4.29329192372693e-04
5.43637500000000e+00 3.59086945306660e-02 4.26692783864748e-04
5.46362500000000e+00 3.55986304802139e-02 4.24067237219339e-04
5.49087500000000e+00 3.52912437678450e-02 4.21452604054653e-04
5.51812500000000e+00 3.49865112753060e-02 4.18848933507697e-04
5.54537500000000e+00 3.46844100839651e-02 4.16256272289820e-04
5.57262500000000e+00 3.43849174730880e-02 4.13674664741082e-04
5.59987500000000e+00 3.40880109181293e-02 4.11104152883414e-04
5.62712500000000e+00 3.37936680890380e-02 4.08544776472665e-04
5.65437500000000e+00 3.35018668485788e-02 4.05996573049590e-04
5.68162500000000e+00 3.32125852506665e-02 4.03459577989687e-04
5.70887500000000e+00 3.29258015387158e-02 4.00933824552075e-04
5.73612500000000e+00 3.26414941440052e-02 3.98419343927264e-04
5.76337500000000e+00 3.23596416840542e-02 3.95916165283992e-04
5.79062500000000e+00 3.20802229610158e-02 3.93424315815077e-04
5.81787500000000e+00 3.18032169600819e-02 3.90943820782234e-04
5.84512500000000e+00 3.15286028479028e-02 3.88474703560044e-04
5.87237500000000e+00 3.12563599710206e-02 3.86016985679009e-04
5.89962500000000e+00 3.09864678543154e-02 3.83570686867624e-04
5.92687500000000e+00 3.07189061994659e-02 3.81135825093691e-04
5.95412500000000e+00 3.04536548834224e-02 3.78712416604740e-04
5.98137500000000e+00 3.01906939568937e-02 3.76300475967569e-04
6.00862500000000e+00 2.99300036428463e-02 3.73900016107013e-04
6.03587500000000e+00 2.96715643350174e-02 3.71511048343907e-04
6.06312500000000e+00 2.94153565964401e-02 3.69133582432277e-04
6.09037500000000e+00 2.91613611579818e-02 3.66767626595805e-04
6.11762500000000e+00 2.89095589168946e-02 3.64413187563442e-04
6.14487500000000e+00 2.86599309353789e-02 3.62070270604382e-04
6.17212500000000e+00 2.84124584391590e-02 3.59738879562308e-04
6.19937500000000e+00 2.81671228160713e-02 3.57419016888905e-04
6.22662500000000e+00 2.79239056146642e-02 3.55110683676767e-04
6.25387500000000e+00 2.76827885428105e-02 3.52813879691525e-04
6.28112500000000e+00 2.74437534663317e-02 3.50528603403414e-04
6.30837500000000e+00 2.72067824076342e-02 3.48254852018153e-04
6.33562500000000e+00 2.69718575443570e-02 3.45992621507230e-04
6.36287500000000e+00 2.67389612080316e-02 3.43741906637530e-04
6.39012500000000e+00 2.65080758827530e-02 3.41502701000414e-04
6.41737500000000e+00 2.62791842038623e-02 3.39274997040194e-04
6.44462500000000e+00 2.60522689566408e-02 3.37058786081999e-04
6.47187500000000e+00 2.58273130750154e-02 3.34854058359140e-04
6.49912500000000e+00 2.56042996402749e-02 3.32660803039870e-04
6.52637500000000e+00 2.53832118797975e-02 3.30479008253626e-04
6.55362500000000e+00 2.51640331657896e-02 3.28308661116750e-04
6.58087500000000e+00 2.49467470140351e-02 3.26149747757697e-04
6.60812500000000e+00 2.47313370826557e-02 3.24002253341722e-04
6.63537500000000e+00 2.45177871708817e-02 3.21866162095054e-04
6.66262500000000e+00 2.43060812178337e-02 3.19741457328626e-04
6.68987500000000e+00 2.40962033013145e-02 3.17628121461315e-04
6.71712500000000e+00 2.38881376366120e-02 3.15526136042695e-04
6.74437500000000e+00 2.36818685753115e-02 3.13435481775363e-04
6.77162500000000e+00 2.34773806041194e-02 3.11356138536804e-04
6.79887500000000e+00 2.32746583436957e-02 3.09288085400806e-04
6.82612500000000e+00 2.30736865474982e-02 3.07231300658488e-04
6.85337500000000e+00 2.28744501006352e-02 3.05185761838851e-04
6.88062500000000e+00 2.26769340187289e-02 3.03151445728964e-04
6.90787500000000e+00 2.24811234467885e-02 3.01128328393718e-04
6.93512500000000e+00 2.22870036580930e-02 2.99116385195181e-04
6.96237500000000e+00 2.20945600530834e-02 2.97115590811625e-04
6.98962500000000e+00 2.19037781582650e-02 2.95125919256102e-04
7.01687500000000e+00 2.17146436251186e-02 2.93147343894646e-04
7.04412500000000e+00 2.15271422290214e-02 2.91179837464175e-04
7.07137500000000e+00 2.13412598681773e-02 2.89223372089997e-04
7.09862500000000e+00 2.11569825625564e-02 2.87277919302954e-04
7.12587500000000e+00 2.09742964528431e-02 2.85343450056248e-04
7.15312500000000e+00 2.07931877993943e-02 2.83419934741909e-04
7.18037500000000e+00 2.06136429812059e-02 2.81507343206956e-04
7.20762500000000e+00 2.04356484948882e-02 2.79605644769215e-04
7.23487500000000e+00 2.02591909536504e-02 2.77714808232820e-04
7.26212500000000e+00 2.00842570862940e-02 2.75834801903435e-04
7.28937500000000e+00 1.99108337362143e-02 2.73965593603118e-04
7.31662500000000e+00 1.97389078604112e-02 2.72107150684909e-04
7.34387500000000e+00 1.95684665285084e-02 2.70259440047167e-04
7.37112500000000e+00 1.93994969217803e-02 2.68422428147567e-04
7.39837500000000e+00 1.92319863321886e-02 2.66596081016827e-04
7.42562500000000e+00 1.90659221614262e-02 2.64780364272168e-04
7.45287500000000e+00 1.89012919199695e-02 2.62975243130483e-04
7.48012500000000e+00 1.87380832261397e-02 2.61180682421274e-04
7.50737500000000e+00 1.85762838051710e-02 2.59396646599327e-04
7.53462500000000e+00 1.84158814882876e-02 2.57623099757083e-04
7.56187500000000e+00 1.82568642117885e-02 2.55860005636803e-04
7.58912500000000e+00 1.80992200161404e-02 2.54107327642467e-04
7.61637500000000e+00 1.79429370450779e-02 2.52365028851468e-04
7.64362500000000e+00 1.77880035447121e-02 2.50633072026022e-04
7.67087500000000e+00 1.76344078626463e-02 2.48911419624365e-04
7.69812500000000e+00 1.74821384471000e-02 2.47200033811719e-04
7.72537500000000e+00 1.73311838460397e-02 2.45498876471045e-04
7.75262500000000e+00 1.71815327063180e-02 2.43807909213594e-04
7.77987500000000e+00 1.70331737728195e-02 2.42127093389181e-04
7.80712500000000e+00 1.68860958876142e-02 2.40456390096317e-04
7.83437500000000e+00 1.67402879891186e-02 2.38795760192086e-04
7.86162500000000e+00 1.65957391112638e-02 2.37145164301867e-04
7.88887500000000e+00 1.64524383826703e-02 2.35504562828802e-04
7.91612500000000e+00 1.63103750258310e-02 2.33873915963099e-04
7.94337500000000e+00 1.61695383563002e-02 2.32253183691170e-04
7.97062500000000e+00 1.60299177818899e-02 2.30642325804526e-04
7.99787500000000e+00 1.58915028018738e-02 2.29041301908507e-04
8.02512500000000e+00 1.57542830061971e-02 2.27450071430848e-04
8.05237500000000e+00 1.56182480746933e-02 2.25868593630078e-04
8.07962500000000e+00 1.54833877763088e-02 2.24296827603691e-04
8.10687500000000e+00 1.53496919683328e-02 2.22734732296192e-04
8.13412500000000e+00 1.52171505956347e-02 2.21182266506984e-04
8.16137500000000e+00 1.50857536899078e-02 2.19639388898040e-04
8.18862500000000e+00 1.49554913689198e-02 2.18106058001457e-04
8.21587500000000e+00 1.48263538357693e-02 2.16582232226843e-04
8.24312500000000e+00 1.46983313781490e-02 2.15067869868537e-04
8.27037500000000e+00 1.45714143676154e-02 2.13562929112673e-04
8.29762500000000e+00 1.44455932588648e-02 2.12067368044116e-04
8.32487500000000e+00 1.43208585890148e-02 2.10581144653270e-04
8.35212500000000e+00 1.41972009768934e-02 2.09104216842668e-04
8.37937500000000e+00 1.40746111223328e-02 2.07636542433459e-04
8.40662500000000e+00 1.39530798054703e-02 2.06178079171803e-04
8.43387500000000e+00 1.38325978860546e-02 2.04728784735061e-04
8.46112500000000e+00 1.37131563027590e-02 2.03288616737883e-04
8.48837500000000e+00 1.35947460724989e-02 2.01857532738176e-04
8.51562500000000e+00 1.34773582897572e-02 2.00435490242903e-04
8.54287500000000e+00 1.33609841259138e-02 1.99022446713786e-04
8.57012500000000e+00 1.32456148285820e-02 1.97618359572904e-04
8.59737500000000e+00 1.31312417209501e-02 1.96223186208129e-04
