Energy (eV)          EEDF (eV^-(3/2))     First Anisotropy
4.43571428571429e-03 1.44395910753056e+01 1.85808790531218e-02
1.33071428571429e-02 1.37440847477239e+01 3.00443842081792e-02
2.21785714285714e-02 1.30820786115662e+01 3.80071528822827e-02
3.10500000000000e-02 1.24519590740904e+01 4.31309407122106e-02
3.99214285714286e-02 1.18521902658223e+01 4.66937616667147e-02
4.87928571428571e-02 1.12813102948380e+01 4.92115507068185e-02
5.76642857142857e-02 1.07379276844824e+01 5.09669394649676e-02
6.65357142857143e-02 1.02207179787975e+01 5.21392331392294e-02
7.54071428571429e-02 9.72842051740691e+00 5.28524815045839e-02
8.42785714285714e-02 9.25983536221222e+00 5.31975249891632e-02
9.31500000000000e-02 8.81382037100476e+00 5.32435822230655e-02
1.02021428571429e-01 8.38928841525005e+00 5.30449494520734e-02
1.10892857142857e-01 7.98520472938022e+00 5.26451580222242e-02
1.19764285714286e-01 7.60058439134641e+00 5.20797001914443e-02
1.28635714285714e-01 7.23448991468472e+00 5.13778960648766e-02
1.37507142857143e-01 6.88602897137216e+00 5.05642190687729e-02
1.46378571428571e-01 6.55435221591156e+00 4.96592661808427e-02
1.55250000000000e-01 6.23865120862493e+00 4.86804852551871e-02
1.64121428571429e-01 5.93815645342975e+00 4.76427327692860e-02
1.72992857142857e-01 5.65213551493036e+00 4.65587094248708e-02
1.81864285714286e-01 5.37989123964944e+00 4.54393056898943e-02
1.90735714285714e-01 5.12076005098469e+00 4.42938800099290e-02
1.99607142857143e-01 4.87411033590867e+00 4.31304851822800e-02
2.08478571428571e-01 4.63934090506905e+00 4.19560552044989e-02
2.17350000000000e-01 4.41587952431045e+00 4.07765602540013e-02
2.26221428571429e-01 4.20318152392978e+00 3.95971367717571e-02
2.35092857142857e-01 4.00072846743991e+00 3.84221973901539e-02
2.43964285714286e-01 3.80802689121770e+00 3.72555243531558e-02
2.52835714285714e-01 3.62460709872894e+00 3.61003495277324e-02
2.61707142857143e-01 3.45002201783432e+00 3.49594230530383e-02
2.70578571428571e-01 3.28384611089014e+00 3.38350729305389e-02
2.79450000000000e-01 3.12567433585635e+00 3.27292565071363e-02
2.88321428571429e-01 2.97512116121325e+00 3.16436054123551e-02
2.97192857142857e-01 2.83181962426643e+00 3.05794648568895e-02
3.06064285714286e-01 2.69542043852458e+00 2.95379280446249e-02
3.14935714285714e-01 2.56559114066843e+00 2.85198664775416e-02
3.23807142857143e-01 2.44201528140741e+00 2.75259565533894e-02
3.32678571428571e-01 2.32439165405239e+00 2.65567032206735e-02
3.41550000000000e-01 2.21243355939183e+00 2.56124607563641e-02
3.50421428571429e-01 2.10586810812888e+00 2.46934512336844e-02
3.59292857142857e-01 2.00443555458653e+00 2.37997809206319e-02
3.68164285714286e-01 1.90788866465469e+00 2.29314548214159e-02
3.77035714285714e-01 1.81599211219870e+00 2.20883896417518e-02
3.85907142857143e-01 1.72852190618016e+00 2.12704252591163e-02
3.94778571428571e-01 1.64526484463480e+00 2.04773350463213e-02
4.03650000000000e-01 1.56601799444278e+00 1.97088349723652e-02
4.12521428571429e-01 1.49058819743388e+00 1.89645917500327e-02
4.21392857142857e-01 1.41879159889367e+00 1.82442301049456e-02
4.30264285714286e-01 1.35045320006604e+00 1.75473392368395e-02
4.39135714285714e-01 1.28540643101796e+00 1.68734785988022e-02
4.48007142857143e-01 1.22349274506737e+00 1.62221829998484e-02
4.56878571428571e-01 1.16456123230128e+00 1.55929672181326e-02
4.65750000000000e-01 1.10846825139982e+00 1.49853300406479e-02
4.74621428571429e-01 1.05507707997211e+00 1.43987578769081e-02
4.83492857142857e-01 1.00425758088629e+00 1.38327279705014e-02
4.92364285714286e-01 9.55885885459747e-01 1.32867112338108e-02
5.01235714285714e-01 9.09844091175596e-01 1.27601747699729e-02
5.10107142857143e-01 8.66019974569386e-01 1.22525840696727e-02
5.18978571428571e-01 8.24306717670756e-01 1.17634049926262e-02
5.27850000000000e-01 7.84602647428815e-01 1.12921054659188e-02
5.36721428571429e-01 7.46810988171978e-01 1.08381569863388e-02
5.45592857142857e-01 7.10839625463031e-01 1.04010359332133e-02
5.54464285714286e-01 6.76600881820743e-01 9.98022470052810e-03
5.63335714285714e-01 6.44011302785080e-01 9.57521268364447e-03
5.72207142857143e-01 6.12991453669764e-01 9.18549710608266e-03
5.81078571428571e-01 5.83465725932446e-01 8.81058375397196e-03
5.89950000000000e-01 5.55362152749761e-01 8.44998756793911e-03
5.98821428571429e-01 5.28612233780456e-01 8.10323314620415e-03
6.07692857142857e-01 5.03150768035548e-01 7.76985515925566e-03
6.16564285714286e-01 4.78915695110231e-01 7.44939867853029e-03
6.25435714285714e-01 4.55847943771785e-01 7.14141943952838e-03
6.34307142857143e-01 4.33891288083791e-01 6.84548402683305e-03
6.43178571428571e-01 4.12992210350955e-01 6.56117002383676e-03
6.52050000000000e-01 3.93099770587738e-01 6.28806609116843e-03
6.60921428571429e-01 3.74165482468893e-01 6.02577200788435e-03
6.69792857142857e-01 3.56143195041876e-01 5.77389867379055e-03
6.78664285714286e-01 3.38988980336313e-01 5.53206807287892e-03
6.87535714285714e-01 3.22661026200101e-01 5.29991321007225e-03
6.96407142857143e-01 3.07119534453484e-01 5.07707801146180e-03
7.05278571428571e-01 2.92326623878426e-01 4.86321721563660e-03
7.14150000000000e-01 2.78246237830579e-01 4.65799623065868e-03
7.23021428571429e-01 2.64844056426723e-01 4.46109097863407e-03
7.31892857142857e-01 2.52087412824298e-01 4.27218772580855e-03
7.40764285714286e-01 2.39945213662414e-01 4.09098289732079e-03
7.49635714285714e-01 2.28387863214041e-01 3.91718288404088e-03
7.58507142857143e-01 2.17387191292750e-01 3.75050383412380e-03
7.67378571428571e-01 2.06916384586420e-01 3.59067144729309e-03
7.76250000000000e-01 1.96949921265813e-01 3.43742075399218e-03
7.85121428571429e-01 1.87463508824343e-01 3.29049589371342e-03
7.93992857142857e-01 1.78434024822453e-01 3.14964989056839e-03
8.02864285714286e-01 1.69839460570086e-01 3.01464442503807e-03
8.11735714285714e-01 1.61658867442970e-01 2.88524960648765e-03
8.20607142857143e-01 1.53872305850703e-01 2.76124374103208e-03
8.29478571428572e-01 1.46460796633176e-01 2.64241310661367e-03
8.38350000000000e-01 1.39406274776751e-01 2.52855172279251e-03
8.47221428571429e-01 1.32691545413110e-01 2.41946112465647e-03
8.56092857142857e-01 1.26300241878922e-01 2.31495013922681e-03
8.64964285714286e-01 1.20216785850664e-01 2.21483466336115e-03
8.73835714285714e-01 1.14426349347905e-01 2.11893744600954e-03
8.82707142857143e-01 1.08914818610119e-01 2.02708787089471e-03
8.91578571428571e-01 1.03668759693933e-01 1.93912174747627e-03
9.00450000000000e-01 9.86753857134111e-02 1.85488110146481e-03
9.09321428571429e-01 9.39225256933564e-02 1.77421397110801e-03
9.18192857142857e-01 8.93985948842823e-02 1.69697420795594e-03
9.27064285714286e-01 8.50925665434741e-02 1.62302128125858e-03
9.35935714285714e-01 8.09939450411587e-02 1.55222008778371e-03
9.44807142857143e-01 7.70927402906737e-02 1.48444076422476e-03
9.53678571428571e-01 7.33794433973794e-02 1.41955850743301e-03
9.62550000000000e-01 6.98450034712051e-02 1.35745339637286e-03
9.71421428571429e-01 6.64808055792550e-02 1.29801021993579e-03
9.80292857142857e-01 6.32786497348578e-02 1.24111830961455e-03
9.89164285714286e-01 6.02307309226477e-02 1.18667137635471e-03
9.98035714285714e-01 5.73296200631743e-02 1.13456735288699e-03
1.00690714285714e+00 5.45682459110372e-02 1.08470823893282e-03
1.01577857142857e+00 5.19398778214252e-02 1.03699995287467e-03
1.02465000000000e+00 4.94381093419202e-02 9.91352185882270e-04
1.03352142857143e+00 4.70568426166002e-02 9.47678266308251e-04
1.04239285714286e+00 4.47902734628757e-02 9.05895020847621e-04
1.05126428571429e+00 4.26328772864690e-02 8.65922639436998e-04
1.06013571428571e+00 4.05793955941214e-02 8.27684553715339e-04
1.06900714285714e+00 3.86248231763801e-02 7.91107312100357e-04
1.07787857142857e+00 3.67643959078333e-02 7.56120460873666e-04
1.08675000000000e+00 3.49935791348766e-02 7.22656428205085e-04
1.09562142857143e+00 3.33080566357512e-02 6.90650416353003e-04
1.10449285714286e+00 3.17037200599659e-02 6.60040292257546e-04
1.11336428571429e+00 3.01766589560357e-02 6.30766481439227e-04
1.12223571428571e+00 2.87231512256977e-02 6.02771871915248e-04
1.13110714285714e+00 2.73396540515559e-02 5.76001716447741e-04
1.13997857142857e+00 2.60227952617662e-02 5.50403539543274e-04
1.14885000000000e+00 2.47693651105975e-02 5.25927047058898e-04
1.15772142857143e+00 2.35763084635669e-02 5.02524041988397e-04
1.16659285714286e+00 2.24407173239195e-02 4.80148339664075e-04
1.17546428571429e+00 2.13598237724131e-02 4.58755685726288e-04
1.18433571428571e+00 2.03309932111143e-02 4.38303681456342e-04
1.19320714285714e+00 1.93517179417514e-02 4.18751708402433e-04
1.20207857142857e+00 1.84196110534103e-02 4.00060856693908e-04
1.21095000000000e+00 1.75324006046041e-02 3.82193855544283e-04
1.21982142857143e+00 1.66879240913948e-02 3.65115008385999e-04
1.22869285714286e+00 1.58841231584144e-02 3.48790127953552e-04
1.23756428571429e+00 1.51190386004517e-02 3.33186473606466e-04
1.24643571428571e+00 1.43908055805852e-02 3.18272694043677e-04
1.25530714285714e+00 1.36976490847745e-02 3.04018769828461e-04
1.26417857142857e+00 1.30378795954114e-02 2.90395958738215e-04
1.27305000000000e+00 1.24098889732378e-02 2.77376742889927e-04
1.28192142857143e+00 1.18121465415386e-02 2.64934779313959e-04
1.29079285714286e+00 1.12431953430866e-02 2.53044850729941e-04
1.29966428571429e+00 1.07016486014907e-02 2.41682818093620e-04
1.30853571428571e+00 1.01861863366889e-02 2.30825577079023e-04
1.31740714285714e+00 9.69555214759128e-03 2.20451014631936e-04
1.32627857142857e+00 9.22855014970504e-03 2.10537967664954e-04
1.33515000000000e+00 8.78404206024990e-03 2.01066183159509e-04
1.34402142857143e+00 8.36094442631940e-03 1.92016280821693e-04
1.35289285714286e+00 7.95822597584819e-03 1.83369716039386e-04
1.36176428571429e+00 7.57490511244837e-03 1.75108744216277e-04
1.37063571428571e+00 7.21004751991098e-03 1.67216387971096e-04
1.37950714285714e+00 6.86276388487686e-03 1.59676404523792e-04
1.38837857142857e+00 6.53220772920780e-03 1.52473254692345e-04
1.39725000000000e+00 6.21757334675551e-03 1.45592072985605e-04
1.40612142857143e+00 5.91809384129931e-03 1.39018639579340e-04
1.41499285714286e+00 5.63303925174927e-03 1.32739352611059e-04
1.42386428571429e+00 5.36171477865930e-03 1.26741201531899e-04
1.43273571428571e+00 5.10345908872347e-03 1.21011742540215e-04
1.44160714285714e+00 4.85764270282335e-03 1.15539074238580e-04
1.45047857142857e+00 4.62366646172352e-03 1.10311814494420e-04
1.45935000000000e+00 4.40096006566330e-03 1.05319078143524e-04
1.46822142857143e+00 4.18898068550422e-03 1.00550456077395e-04
1.47709285714286e+00 3.98721163586681e-03 9.59959946268425e-05
1.48596428571429e+00 3.79516111963766e-03 9.16461757492037e-05
1.49483571428571e+00 3.61236102790754e-03 8.74918987253055e-05
1.50370714285714e+00 3.43836579898959e-03 8.35244620756317e-05
1.51257857142857e+00 3.27275133239842e-03 7.97355463712829e-05
1.52145000000000e+00 3.11511395513528e-03 7.61171976867048e-05
1.53032142857143e+00 2.96506943858724e-03 7.26618120662677e-05
1.53919285714286e+00 2.82225205944730e-03 6.93621202480223e-05
1.54806428571429e+00 2.68631371093141e-03 6.62111729936216e-05
1.55693571428571e+00 2.55692305338246e-03 6.32023275115214e-05
1.56580714285714e+00 2.43376470665365e-03 6.03292340764214e-05
1.57467857142857e+00 2.31653848139459e-03 5.75858233110410e-05
1.58355000000000e+00 2.20495864736107e-03 5.49662939526445e-05
1.59242142857143e+00 2.09875323752802e-03 5.24651013604922e-05
1.60129285714286e+00 1.99766338345498e-03 5.00769462373506e-05
1.61016428571429e+00 1.90144268610920e-03 4.77967638053331e-05
1.61903571428571e+00 1.80985661466633e-03 4.56197137723873e-05
1.62790714285714e+00 1.72268193485848e-03 4.35411704654263e-05
1.63677857142857e+00 1.63970616485838e-03 4.15567134519349e-05
1.64565000000000e+00 1.56072705737010e-03 3.96621185253576e-05
1.65452142857143e+00 1.48555210704717e-03 3.78533492307845e-05
1.66339285714286e+00 1.41399808009329e-03 3.61265485638187e-05
1.67226428571429e+00 1.34589056886656e-03 3.44780310081838e-05
1.68113571428571e+00 1.28106356635158e-03 3.29042751444573e-05
1.69000714285714e+00 1.21935906152939e-03 3.14019163955376e-05
1.69887857142857e+00 1.16062665423805e-03 2.99677401312476e-05
1.70775000000000e+00 1.10472318858303e-03 2.85986750444765e-05
1.71662142857143e+00 1.05151240426515e-03 2.72917869205719e-05
1.72549285714286e+00 1.00086460365009e-03 2.60442725440128e-05
1.73436428571429e+00 9.52656336474237e-04 2.48534538565278e-05
1.74323571428571e+00 9.06770098655856e-04 2.37167725273451e-05
1.75210714285714e+00 8.63094045887406e-04 2.26317846329745e-05
1.76097857142857e+00 8.21521721023833e-04 2.15961556003268e-05
1.76985000000000e+00 7.81951794600909e-04 2.06076553516012e-05
1.77872142857143e+00 7.44287818029656e-04 1.96641537349260e-05
1.78759285714286e+00 7.08437987959478e-04 1.87636160621650e-05
1.79646428571429e+00 6.74314923084036e-04 1.79040988326690e-05
1.80533571428571e+00 6.41835450959143e-04 1.70837457541577e-05
1.81420714285714e+00 6.10920405275959e-04 1.63007838498053e-05
1.82307857142857e+00 5.81494432899313e-04 1.55535197579679e-05
1.83195000000000e+00 5.53485810199852e-04 1.48403361812605e-05
1.84082142857143e+00 5.26826268354386e-04 1.41596885429709e-05
1.84969285714286e+00 5.01450826569172e-04 1.35101017261416e-05
1.85856428571429e+00 4.77297634083648e-04 1.28901669497133e-05
1.86743571428571e+00 4.54307819279319e-04 1.22985388587145e-05
1.87630714285714e+00 4.32425346184463e-04 1.17339326813823e-05
1.88517857142857e+00 4.11596877890820e-04 1.11951215269184e-05
1.89405000000000e+00 3.91771646548720e-04 1.06809337934318e-05
1.90292142857143e+00 3.72901329707313e-04 1.01902507261228e-05
1.91179285714286e+00 3.54939932274398e-04 9.72200403863513e-06
1.92066428571429e+00 3.37843674673520e-04 9.27517363515550e-06
1.92953571428571e+00 3.21570886042440e-04 8.84878548659138e-06
1.93840714285714e+00 3.06081902663439e-04 8.44190955816569e-06
1.94727857142857e+00 2.91338971286092e-04 8.05365783949547e-06
1.95615000000000e+00 2.77306157106443e-04 7.68318245572754e-06
1.96502142857143e+00 2.63949256235539e-04 7.32967388741806e-06
1.97389285714286e+00 2.51235712153313e-04 6.99235923830696e-06
1.98276428571429e+00 2.39134536537277e-04 6.67050057696434e-06
1.99163571428571e+00 2.27616233667694e-04 6.36339338927524e-06
2.00050714285714e+00 2.16652728533910e-04 6.07036507008404e-06
2.00937857142857e+00 2.06217298403694e-04 5.79077348940010e-06
2.01825000000000e+00 1.96284507688504e-04 5.52400561808229e-06
2.02712142857143e+00 1.86830145985208e-04 5.26947623214861e-06
2.03599285714286e+00 1.77831168943805e-04 5.02662665316835e-06
2.04486428571429e+00 1.69265642223941e-04 4.79492354270299e-06
2.05373571428571e+00 1.61112687988299e-04 4.57385777643107e-06
2.06260714285714e+00 1.53352434014393e-04 4.36294334788691e-06
2.07147857142857e+00 1.45965965257561e-04 4.16171632636790e-06
2.08035000000000e+00 1.38935277746913e-04 3.96973385838932e-06
2.08922142857143e+00 1.32243234728823e-04 3.78657322593347e-06
2.09809285714286e+00 1.25873524814123e-04 3.61183093173608e-06
2.10696428571429e+00 1.19810622306419e-04 3.44512182404125e-06
2.11583571428571e+00 1.14039749329636e-04 3.28607827861128e-06
2.12470714285714e+00 1.08546839808024e-04 3.13434940299907e-06
2.13357857142857e+00 1.03318505181184e-04 2.98960028012231e-06
2.14245000000000e+00 9.83420017704209e-05 2.85151124365851e-06
2.15132142857143e+00 9.36051997354179e-05 2.71977719442925e-06
2.16019285714286e+00 8.90965534514380e-05 2.59410693695124e-06
2.16906428571429e+00 8.48050734269058e-05 2.47422254475904e-06
2.17793571428571e+00 8.07202994969132e-05 2.35985876684561e-06
2.18680714285714e+00 7.68322753273301e-05 2.25076245075537e-06
2.19567857142857e+00 7.31315241470065e-05 2.14669199415901e-06
2.20455000000000e+00 6.96090256488302e-05 2.04741681963910e-06
2.21342142857143e+00 6.62561940160854e-05 1.95271687903471e-06
2.22229285714286e+00 6.30648569558061e-05 1.86238217276875e-06
2.23116428571429e+00 6.00272358201303e-05 1.77621229011700e-06
2.24003571428571e+00 5.71359266323737e-05 1.69401597899174e-06
2.24890714285714e+00 5.43838820403772e-05 1.61561072812825e-06
2.25777857142857e+00 5.17643941391275e-05 1.54082236988966e-06
2.26665000000000e+00 4.92710781207254e-05 1.46948469997539e-06
2.27552142857143e+00 4.68978567206258e-05 1.40143911843035e-06
2.28439285714286e+00 4.46389453776617e-05 1.33653428174714e-06
2.29326428571429e+00 4.24888381626332e-05 1.27462577018940e-06
2.30213571428571e+00 4.04422943483413e-05 1.21557577629176e-06
2.31100714285714e+00 3.84943256356993e-05 1.15925280256303e-06
2.31987857142857e+00 3.66401839951350e-05 1.10553137410070e-06
2.32875000000000e+00 3.48753500936149e-05 1.05429176349817e-06
2.33762142857143e+00 3.31955222851226e-05 1.00541973109129e-06
2.34649285714286e+00 3.15966061070498e-05 9.58806273393361e-07
2.35536428571429e+00 3.00747043195557e-05 9.14347382579321e-07
2.36423571428571e+00 2.86261073996717e-05 8.71943821157808e-07
2.37310714285714e+00 2.72472844996099e-05 8.31500903450048e-07
2.38197857142857e+00 2.59348748405923e-05 7.92928287843194e-07
2.39085000000000e+00 2.46856795211968e-05 7.56139777971388e-07
2.39972142857143e+00 2.34966537244216e-05 7.21053134936407e-07
2.40859285714286e+00 2.23648992833000e-05 6.87589895556627e-07
2.41746428571429e+00 2.12876576301458e-05 6.55675198627478e-07
2.42633571428571e+00 2.02623030681551e-05 6.25237622070403e-07
2.43520714285714e+00 1.92863363714633e-05 5.96209025101914e-07
2.44407857142857e+00 1.83573786934722e-05 5.68524398181424e-07
2.45295000000000e+00 1.74731657685852e-05 5.42121719435333e-07
2.46182142857143e+00 1.66315423960903e-05 5.16941819021606e-07
2.47069285714286e+00 1.58304571781394e-05 4.92928247921895e-07
2.47956428571429e+00 1.50679575288023e-05 4.70027152536434e-07
2.48843571428571e+00 1.43421849116140e-05 4.48187157082351e-07
2.49730714285714e+00 1.36513703095287e-05 4.27359249684966e-07
2.50617857142857e+00 1.29938299130753e-05 4.07496674080796e-07
2.51505000000000e+00 1.23679610161945e-05 3.88554826013431e-07
2.52392142857143e+00 1.17722381117382e-05 3.70491155337710e-07
2.53279285714286e+00 1.12052091670295e-05 3.53265071368904e-07
2.54166428571429e+00 1.06654920909801e-05 3.36837852430791e-07
2.55053571428571e+00 1.01517713631592e-05 3.21172560994270e-07
2.55940714285714e+00 9.66279482730790e-06 3.06233961526567e-07
2.56827857142857e+00 9.19737063930431e-06 2.91988442385944e-07
2.57715000000000e+00 8.75436436213012e-06 2.78403941113587e-07
2.58602142857143e+00 8.33269620212986e-06 2.65449873827069e-07
2.59489285714286e+00 7.93133837285968e-06 2.53097066987605e-07
2.60376428571429e+00 7.54931259431364e-06 2.41317692202910e-07
2.61263571428571e+00 7.18568770692767e-06 2.30085205033972e-07
2.62150714285714e+00 6.83957740194637e-06 2.19374285787318e-07
2.63037857142857e+00 6.51013806111282e-06 2.09160783221797e-07
2.63925000000000e+00 6.19656670041068e-06 1.99421660712327e-07
2.64812142857143e+00 5.89809901379386e-06 1.90134945359385e-07
2.65699285714286e+00 5.61400750732053e-06 1.81279678831960e-07
2.66586428571429e+00 5.34359972896760e-06 1.72835870403325e-07
2.67473571428571e+00 5.08621657978590e-06 1.64784452853517e-07
2.68360714285714e+00 4.84123070739477e-06 1.57107239823527e-07
2.69247857142857e+00 4.60804497685830e-06 1.49786885267933e-07
2.70135000000000e+00 4.38609101521257e-06 1.42806844682987e-07
2.71022142857143e+00 4.17482782675129e-06 1.36151338449390e-07
2.71909285714286e+00 3.97374047236489e-06 1.29805316439000e-07
2.72796428571429e+00 3.78233881650799e-06 1.23754424204302e-07
2.73683571428571e+00 3.60015633180810e-06 1.17984971219817e-07
2.74570714285714e+00 3.42674896193935e-06 1.12483900183188e-07
2.75457857142857e+00 3.26169403926891e-06 1.07238757826253e-07
2.76345000000000e+00 3.10458925463553e-06 1.02237667008127e-07
2.77232142857143e+00 2.95505167720235e-06 9.74693003257287e-08
2.78119285714286e+00 2.81271681969093e-06 9.29228546445827e-08
2.79006428571429e+00 2.67723775141896e-06 8.85880267712455e-08
2.79893571428571e+00 2.54828425218270e-06 8.44549905940747e-08
