Energy (eV)          EEDF (eV^-(3/2))     First Anisotropy
8.60000000000000e-02 1.00136911058893e-01 1.17178958679387e-04
2.58000000000000e-01 9.67287175885090e-02 1.90844501623322e-04
4.30000000000000e-01 9.34365231299711e-02 2.45008974301818e-04
6.02000000000000e-01 9.02563796178654e-02 2.82166787765507e-04
7.74000000000000e-01 8.71844733605169e-02 3.10010308445380e-04
9.46000000000000e-01 8.42171204665308e-02 3.31577179341298e-04
1.11800000000000e+00 8.13507624269961e-02 3.48502940813336e-04
1.29000000000000e+00 7.85819618480501e-02 3.61811894923725e-04
1.46200000000000e+00 7.59073983286875e-02 3.72206449056330e-04
1.63400000000000e+00 7.33238644788684e-02 3.80198367269764e-04
1.80600000000000e+00 7.08282620731526e-02 3.86176993122822e-04
1.97800000000000e+00 6.84175983352454e-02 3.90448248353923e-04
2.15000000000000e+00 6.60889823490007e-02 3.93258557840167e-04
2.32200000000000e+00 6.38396215915763e-02 3.94810353968910e-04
2.49400000000000e+00 6.16668185845848e-02 3.95272574931381e-04
2.66600000000000e+00 5.95679676592237e-02 3.94788034003882e-04
2.83800000000000e+00 5.75405518315051e-02 3.93478750634812e-04
3.01000000000000e+00 5.55821397838382e-02 3.91449907037184e-04
3.18200000000000e+00 5.36903829493447e-02 3.88792850036435e-04
3.35400000000000e+00 5.18630126954106e-02 3.85587412566882e-04
3.52600000000000e+00 5.00978376030963e-02 3.81903739400613e-04
3.69800000000000e+00 4.83927408391434e-02 3.77803744429400e-04
3.87000000000000e+00 4.67456776174259e-02 3.73342289287368e-04
4.04200000000000e+00 4.51546727468019e-02 3.68568147894048e-04
4.21400000000000e+00 4.36178182624246e-02 3.63524804194488e-04
4.38600000000000e+00 4.21332711376730e-02 3.58251118262447e-04
4.55800000000000e+00 4.06992510739576e-02 3.52781887305489e-04
4.73000000000000e+00 3.93140383657504e-02 3.47148321865690e-04
4.90200000000000e+00 3.79759718382797e-02 3.41378452922805e-04
5.07400000000000e+00 3.66834468554167e-02 3.35497482192304e-04
5.24600000000000e+00 3.54349133953628e-02 3.29528085337423e-04
5.41800000000000e+00 3.42288741918334e-02 3.23490675853134e-04
5.59000000000000e+00 3.30638829385055e-02 3.17403635869099e-04
5.76200000000000e+00 3.19385425545788e-02 3.11283518943508e-04
5.93400000000000e+00 3.08515035093683e-02 3.05145228997287e-04
6.10600000000000e+00 2.98014622039197e-02 2.99002178807709e-04
6.27800000000000e+00 2.87871594077082e-02 2.92866430897698e-04
6.45000000000000e+00 2.78073787485437e-02 2.86748823188496e-04
6.62200000000000e+00 2.68609452538728e-02 2.80659081403839e-04
6.79400000000000e+00 2.59467239417285e-02 2.74605919904524e-04
6.96600000000000e+00 2.50636184596371e-02 2.68597132378579e-04
7.13800000000000e+00 2.42105697698502e-02 2.62639673602834e-04
7.31000000000000e+00 2.33865548793258e-02 2.56739733318014e-04
7.48200000000000e+00 2.25905856129341e-02 2.50902803114560e-04
7.65400000000000e+00 2.18217074284188e-02 2.45133737104896e-04
7.82600000000000e+00 2.10789982716902e-02 2.39436807055455e-04
7.99800000000000e+00 2.03615674710801e-02 2.33815752565157e-04
8.17000000000000e+00 1.96685546692302e-02 2.28273826803388e-04
8.34200000000000e+00 1.89991287913344e-02 2.22813838257636e-04
8.51400000000000e+00 1.83524870484975e-02 2.17438188887052e-04
8.68600000000000e+00 1.77278539750144e-02 2.12148909031874e-04
8.85800000000000e+00 1.71244804984164e-02 2.06947689388581e-04
9.03000000000000e+00 1.65416430411682e-02 2.01835910325990e-04
9.20200000000000e+00 1.59786426529395e-02 1.96814668787359e-04
9.37400000000000e+00 1.54348041724100e-02 1.91884802997225e-04
9.54600000000000e+00 1.49094754176017e-02 1.87046915168745e-04
9.71800000000000e+00 1.44020264037701e-02 1.82301392387102e-04
9.89000000000000e+00 1.39118485879134e-02 1.77648425826754e-04
1.00620000000000e+01 1.34383541389956e-02 1.73088028444697e-04
1.02340000000000e+01 1.29809752330079e-02 1.68620051277984e-04
1.04060000000000e+01 1.25391633720228e-02 1.64244198461480e-04
1.05780000000000e+01 1.21123887264243e-02 1.59960041070947e-04
1.07500000000000e+01 1.17001394995258e-02 1.55767029886733e-04
1.09220000000000e+01 1.13019213138130e-02 1.51664507164729e-04
1.10940000000000e+01 1.09172566180769e-02 1.47651717493449e-04
1.12660000000000e+01 1.05456841147245e-02 1.43727817809100e-04
1.14380000000000e+01 1.01867582065816e-02 1.39891886634272e-04
1.16100000000000e+01 9.84004846252399e-03 1.36142932600231e-04
1.17820000000000e+01 9.50513910129537e-03 1.32479902307706e-04
1.19540000000000e+01 9.18162849289462e-03 1.28901687576481e-04
1.21260000000000e+01 8.86912867693283e-03 1.25407132129933e-04
1.22980000000000e+01 8.56726489738351e-03 1.21995037756907e-04
1.24700000000000e+01 8.27567515316765e-03 1.18664169989896e-04
1.26420000000000e+01 7.99400976403479e-03 1.15413263335375e-04
1.28140000000000e+01 7.72193095121952e-03 1.12241026089340e-04
1.29860000000000e+01 7.45911243237037e-03 1.09146144768486e-04
1.31580000000000e+01 7.20523903026551e-03 1.06127288185136e-04
1.33300000000000e+01 6.96000629484596e-03 1.03183111191867e-04
1.35020000000000e+01 6.72312013811293e-03 1.00312258119825e-04
1.36740000000000e+01 6.49429648145167e-03 9.75133659328948e-05
1.38460000000000e+01 6.27326091495870e-03 9.47850671182700e-05
1.40180000000000e+01 6.05974836836395e-03 9.21259923324200e-05
1.41900000000000e+01 5.85350279315319e-03 8.95347728200732e-05
1.43620000000000e+01 5.65427685550958e-03 8.70100426225529e-05
1.45340000000000e+01 5.46183163970596e-03 8.45504405906126e-05
1.47060000000000e+01 5.27593636159235e-03 8.21546122158361e-05
1.48780000000000e+01 5.09636809183502e-03 7.98212112936575e-05
1.50500000000000e+01 4.92291148857509e-03 7.75489014301331e-05
1.52220000000000e+01 4.75535853918638e-03 7.53363574037375e-05
1.53940000000000e+01 4.59350831082242e-03 7.31822663926659e-05
1.55660000000000e+01 4.43716670945379e-03 7.10853290773932e-05
1.57380000000000e+01 4.28614624710671e-03 6.90442606275560e-05
1.59100000000000e+01 4.14026581702366e-03 6.70577915815964e-05
1.60820000000000e+01 3.99935047647661e-03 6.51246686270316e-05
1.62540000000000e+01 3.86323123697211e-03 6.32436552886569e-05
1.64260000000000e+01 3.73174486159698e-03 6.14135325314986e-05
1.65980000000000e+01 3.60473366926134e-03 5.96330992848659e-05
1.67700000000000e+01 3.48204534560425e-03 5.79011728934125e-05
1.69420000000000e+01 3.36353276033530e-03 5.62165895007165e-05
1.71140000000000e+01 3.24905379079306e-03 5.45782043705153e-05
1.72860000000000e+01 3.13847115150869e-03 5.29848921503813e-05
1.74580000000000e+01 3.03165222957051e-03 5.14355470822962e-05
1.76300000000000e+01 2.92846892559190e-03 4.99290831642870e-05
1.78020000000000e+01 2.82879750009200e-03 4.84644342669930e-05
1.79740000000000e+01 2.73251842510481e-03 4.70405542087793e-05
1.81460000000000e+01 2.63951624083889e-03 4.56564167927655e-05
1.83180000000000e+01 2.54967941721564e-03 4.43110158089060e-05
1.84900000000000e+01 2.46290022012026e-03 4.30033650040472e-05
1.86620000000000e+01 2.37907458220479e-03 4.17324980226902e-05
1.88340000000000e+01 2.29810197808846e-03 4.04974683209948e-05
1.90060000000000e+01 2.21988530380570e-03 3.92973490563929e-05
1.91780000000000e+01 2.14433076035707e-03 3.81312329550170e-05
1.93500000000000e+01 2.07134774122366e-03 3.69982321589938e-05
1.95220000000000e+01 2.00084872370991e-03 3.58974780555129e-05
1.96940000000000e+01 1.93274916398469e-03 3.48281210894538e-05
1.98660000000000e+01 1.86696739569457e-03 3.37893305612202e-05
2.00380000000000e+01 1.80342453202799e-03 3.27802944113238e-05
2.02100000000000e+01 1.74204437111254e-03 3.18002189931477e-05
2.03820000000000e+01 1.68275330463221e-03 3.08483288352201e-05
2.05540000000000e+01 1.62548022955477e-03 2.99238663942329e-05
2.07260000000000e+01 1.57015646286366e-03 2.90260917999529e-05
2.08980000000000e+01 1.51671565919187e-03 2.81542825930868e-05
2.10700000000000e+01 1.46509373125930e-03 2.73077334570915e-05
2.12420000000000e+01 1.41522877301800e-03 2.64857559448412e-05
2.14140000000000e+01 1.36706098541319e-03 2.56876782009991e-05
2.15860000000000e+01 1.32053260467107e-03 2.49128446808771e-05
2.17580000000000e+01 1.27558783302728e-03 2.41606158665083e-05
2.19300000000000e+01 1.23217277181318e-03 2.34303679806021e-05
2.21020000000000e+01 1.19023535681945e-03 2.27214926989979e-05
2.22740000000000e+01 1.14972529585966e-03 2.20333968621874e-05
2.24460000000000e+01 1.11059400845887e-03 2.13655021864303e-05
2.26180000000000e+01 1.07279456759495e-03 2.07172449749426e-05
2.27900000000000e+01 1.03628164342276e-03 2.00880758296030e-05
2.29620000000000e+01 1.00101144891371e-03 1.94774593635799e-05
2.31340000000000e+01 9.66941687345463e-04 1.88848739152509e-05
2.33060000000000e+01 9.34031501578844e-04 1.83098112637541e-05
2.34780000000000e+01 9.02241425061177e-04 1.77517763464779e-05
2.36500000000000e+01 8.71533334497186e-04 1.72102869787726e-05
2.38220000000000e+01 8.41870404130780e-04 1.66848735761350e-05
2.39940000000000e+01 8.13217061582871e-04 1.61750788790991e-05
2.41660000000000e+01 7.85538945192266e-04 1.56804576810369e-05
2.43380000000000e+01 7.58802862808474e-04 1.52005765590585e-05
2.45100000000000e+01 7.32976751987018e-04 1.47350136081741e-05
2.46820000000000e+01 7.08029641539511e-04 1.42833581788694e-05
2.48540000000000e+01 6.83931614392386e-04 1.38452106182220e-05
2.50260000000000e+01 6.60653771709742e-04 1.34201820146759e-05
2.51980000000000e+01 6.38168198237288e-04 1.30078939465712e-05
2.53700000000000e+01 6.16447928825805e-04 1.26079782345177e-05
2.55420000000000e+01 5.95466916094003e-04 1.22200766976842e-05
2.57140000000000e+01 5.75199999191983e-04 1.18438409140654e-05
2.58860000000000e+01 5.55622873627839e-04 1.14789319847768e-05
2.60580000000000e+01 5.36712062121228e-04 1.11250203024182e-05
2.62300000000000e+01 5.18444886448943e-04 1.07817853235356e-05
2.64020000000000e+01 5.00799440248739e-04 1.04489153452052e-05
2.65740000000000e+01 4.83754562748782e-04 1.01261072857516e-05
2.67460000000000e+01 4.67289813391230e-04 9.81306646960916e-06
2.69180000000000e+01 4.51385447319504e-04 9.50950641632388e-06
2.70900000000000e+01 4.36022391699867e-04 9.21514863369167e-06
2.72620000000000e+01 4.21182222848897e-04 8.92972241501926e-06
2.74340000000000e+01 4.06847144139438e-04 8.65296464049049e-06
2.76060000000000e+01 3.92999964658527e-04 8.38461958261639e-06
2.77780000000000e+01 3.79624078591711e-04 8.12443871574149e-06
2.79500000000000e+01 3.66703445309023e-04 7.87218052957549e-06
2.81220000000000e+01 3.54222570128731e-04 7.62761034671652e-06
2.82940000000000e+01 3.42166485735814e-04 7.39050014412776e-06
2.84660000000000e+01 3.30520734232855e-04 7.16062837852680e-06
2.86380000000000e+01 3.19271349801841e-04 6.93777981564433e-06
2.88100000000000e+01 3.08404841956074e-04 6.72174536330614e-06
2.89820000000000e+01 2.97908179362115e-04 6.51232190829022e-06
2.91540000000000e+01 2.87768774212340e-04 6.30931215690968e-06
2.93260000000000e+01 2.77974467129397e-04 6.11252447926955e-06
2.94980000000000e+01 2.68513512584433e-04 5.92177275714396e-06
2.96700000000000e+01 2.59374564811625e-04 5.73687623541997e-06
2.98420000000000e+01 2.50546664202106e-04 5.55765937705236e-06
3.00140000000000e+01 2.42019224160985e-04 5.38395172147281e-06
3.01860000000000e+01 2.33782018411695e-04 5.21558774639671e-06
3.03580000000000e+01 2.25825168732428e-04 5.05240673296959e-06
3.05300000000000e+01 2.18139133109986e-04 4.89425263419483e-06
3.07020000000000e+01 2.10714694296796e-04 4.74097394658440e-06
3.08740000000000e+01 2.03542948757412e-04 4.59242358497345e-06
3.10460000000000e+01 1.96615295991214e-04 4.44845876043998e-06
3.12180000000000e+01 1.89923428218511e-04 4.30894086127049e-06
3.13900000000000e+01 1.83459320417695e-04 4.17373533691255e-06
3.15620000000000e+01 1.77215220701466e-04 4.04271158485567e-06
3.17340000000000e+01 1.71183641020618e-04 3.91574284038176e-06
3.19060000000000e+01 1.65357348184221e-04 3.79270606912681e-06
3.20780000000000e+01 1.59729355185431e-04 3.67348186239599e-06
3.22500000000000e+01 1.54292912822535e-04 3.55795433517423e-06
3.24220000000000e+01 1.49041501605172e-04 3.44601102677560e-06
3.25940000000000e+01 1.43968823936028e-04 3.33754280407476e-06
3.27660000000000e+01 1.39068796558634e-04 3.23244376726452e-06
3.29380000000000e+01 1.34335543262203e-04 3.13061115808373e-06
3.31100000000000e+01 1.29763387834758e-04 3.03194527046102e-06
3.32820000000000e+01 1.25346847256110e-04 2.93634936352035e-06
3.34540000000000e+01 1.21080625122506e-04 2.84372957689457e-06
3.36260000000000e+01 1.16959605295075e-04 2.75399484829459e-06
3.37980000000000e+01 1.12978845764458e-04 2.66705683328197e-06
3.39700000000000e+01 1.09133572724247e-04 2.58282982719373e-06
3.41420000000000e+01 1.05419174846139e-04 2.50123068916902e-06
3.43140000000000e+01 1.01831197749946e-04 2.42217876822798e-06
3.44860000000000e+01 9.83653386618056e-05 2.34559583135386e-06
3.46580000000000e+01 9.50174412542138e-05 2.27140599353031e-06
3.48300000000000e+01 9.17834906616713e-05 2.19953564968690e-06
3.50020000000000e+01 8.86596086659775e-05 2.12991340850611e-06
3.51740000000000e+01 8.56420490453935e-05 2.06247002804655e-06
3.53460000000000e+01 8.27271930820982e-05 1.99713835313737e-06
3.55180000000000e+01 7.99115452225495e-05 1.93385325450024e-06
3.56900000000000e+01 7.71917288855463e-05 1.87255156955579e-06
3.58620000000000e+01 7.45644824129654e-05 1.81317204487215e-06
3.60340000000000e+01 7.20266551583156e-05 1.75565528021436e-06
3.62060000000000e+01 6.95752037084192e-05 1.69994367415400e-06
3.63780000000000e+01 6.72071882336904e-05 1.64598137119926e-06
3.65500000000000e+01 6.49197689626330e-05 1.59371421040685e-06
3.67220000000000e+01 6.27102027763291e-05 1.54308967543718e-06
3.68940000000000e+01 6.05758399188366e-05 1.49405684601580e-06
3.70660000000000e+01 5.85141208195487e-05 1.44656635076468e-06
3.72380000000000e+01 5.65225730237056e-05 1.40057032136737e-06
3.74100000000000e+01 5.45988082273774e-05 1.35602234803332e-06
3.75820000000000e+01 5.27405194133623e-05 1.31287743622717e-06
3.77540000000000e+01 5.09454780845654e-05 1.27109196462957e-06
3.79260000000000e+01 4.92115315915406e-05 1.23062364429702e-06
3.80980000000000e+01 4.75366005509899e-05 1.19143147898869e-06
3.82700000000000e+01 4.59186763521259e-05 1.15347572662918e-06
3.84420000000000e+01 4.43558187479054e-05 1.11671786187690e-06
3.86140000000000e+01 4.28461535282462e-05 1.08112053976804e-06
3.87860000000000e+01 4.13878702724372e-05 1.04664756040748e-06
3.89580000000000e+01 3.99792201780453e-05 1.01326383467805e-06
3.91300000000000e+01 3.86185139637171e-05 9.80935350940615e-07
3.93020000000000e+01 3.73041198433584e-05 9.49629142698068e-07
3.94740000000000e+01 3.60344615692639e-05 9.19313257196731e-07
3.96460000000000e+01 3.48080165418495e-05 8.89956724939660e-07
3.98180000000000e+01 3.36233139837205e-05 8.61529530086691e-07
3.99900000000000e+01 3.24789331758857e-05 8.34002581716843e-07
4.01620000000000e+01 3.13735017540030e-05 8.07347685929288e-07
4.03340000000000e+01 3.03056940626126e-05 7.81537518759611e-07
4.05060000000000e+01 2.92742295653843e-05 7.56545599888719e-07
4.06780000000000e+01 2.82778713094730e-05 7.32346267122374e-07
4.08500000000000e+01 2.73154244421401e-05 7.08914651619821e-07
4.10220000000000e+01 2.63857347778619e-05 6.86226653850541e-07
4.11940000000000e+01 2.54876874142075e-05 6.64258920258714e-07
4.13660000000000e+01 2.46202053948255e-05 6.42988820615501e-07
4.15380000000000e+01 2.37822484179364e-05 6.22394426039799e-07
4.17100000000000e+01 2.29728115887820e-05 6.02454487668542e-07
4.18820000000000e+01 2.21909242145352e-05 5.83148415958188e-07
4.20540000000000e+01 2.14356486402260e-05 5.64456260599502e-07
4.22260000000000e+01 2.07060791242871e-05 5.46358691028186e-07
4.23980000000000e+01 2.00013407523700e-05 5.28836977514438e-07
4.25700000000000e+01 1.93205883881308e-05 5.11872972814850e-07
4.27420000000000e+01 1.86630056597252e-05 4.95449094370625e-07
4.29140000000000e+01 1.80278039807996e-05 4.79548307036456e-07
4.30860000000000e+01 1.74142216048022e-05 4.64154106324808e-07
4.32580000000000e+01 1.68215227114818e-05 4.49250502150841e-07
4.34300000000000e+01 1.62489965244766e-05 4.34822003063485e-07
4.36020000000000e+01 1.56959564589379e-05 4.20853600948722e-07
4.37740000000000e+01 1.51617392981631e-05 4.07330756191360e-07
4.39460000000000e+01 1.46457043982537e-05 3.94239383282062e-07
4.41180000000000e+01 1.41472329198415e-05 3.81565836856708e-07
4.42900000000000e+01 1.36657270859646e-05 3.69296898155543e-07
4.44620000000000e+01 1.32006094652013e-05 3.57419761889884e-07
4.46340000000000e+01 1.27513222792025e-05 3.45922023504512e-07
4.48060000000000e+01 1.23173267337931e-05 3.34791666824213e-07
4.49780000000000e+01 1.18981023728390e-05 3.24017052073266e-07
4.51500000000000e+01 1.14931464541059e-05 3.13586904256900e-07
4.53220000000000e+01 1.11019733463604e-05 3.03490301894139e-07
4.54940000000000e+01 1.07241139469919e-05 2.93716666091758e-07
4.56660000000000e+01 1.03591151194547e-05 2.84255749949272e-07
4.58380000000000e+01 1.00065391498583e-05 2.75097628285243e-07
4.60100000000000e+01 9.66596322205149e-06 2.66232687675420e-07
4.61820000000000e+01 9.33697891057318e-06 2.57651616793513e-07
4.63540000000000e+01 9.01919169086033e-06 2.49345397045672e-07
4.65260000000000e+01 8.71222046612617e-06 2.41305293489950e-07
4.66980000000000e+01 8.41569711034130e-06 2.33522846032338e-07
4.68700000000000e+01 8.12926602676968e-06 2.25989860891153e-07
4.70420000000000e+01 7.85258372152983e-06 2.18698402321808e-07
4.72140000000000e+01 7.58531839167013e-06 2.11640784594223e-07
4.73860000000000e+01 7.32714952726412e-06 2.04809564215366e-07
4.75580000000000e+01 7.07776752704853e-06 1.98197532389599e-07
4.77300000000000e+01 6.83687332714329e-06 1.91797707709746e-07
4.79020000000000e+01 6.60417804240816e-06 1.85603329071991e-07
4.80740000000000e+01 6.37940262000586e-06 1.79607848807916e-07
4.82460000000000e+01 6.16227750475635e-06 1.73804926027160e-07
4.84180000000000e+01 5.95254231588087e-06 1.68188420164405e-07
4.85900000000000e+01 5.74994553474808e-06 1.62752384724555e-07
4.87620000000000e+01 5.55424420324795e-06 1.57491061220153e-07
4.89340000000000e+01 5.36520363243146e-06 1.52398873295259e-07
4.91060000000000e+01 5.18259712106697e-06 1.47470421030175e-07
4.92780000000000e+01 5.00620568377555e-06 1.42700475421572e-07
4.94500000000000e+01 4.83581778841936e-06 1.38083973032728e-07
4.96220000000000e+01 4.67122910242807e-06 1.33616010808753e-07
4.97940000000000e+01 4.51224224775912e-06 1.29291841051807e-07
4.99660000000000e+01 4.35866656419809e-06 1.25106866551463e-07
5.01380000000000e+01 4.21031788071512e-06 1.21056635865544e-07
5.03100000000000e+01 4.06701829460332e-06 1.17136838746863e-07
5.04820000000000e+01 3.92859595813432e-06 1.13343301711441e-07
5.06540000000000e+01 3.79488487247503e-06 1.09671983743914e-07
5.08260000000000e+01 3.66572468861850e-06 1.06118972135956e-07
5.09980000000000e+01 3.54096051509020e-06 1.02680478453683e-07
5.11700000000000e+01 3.42044273219907e-06 9.93528346301132e-08
5.13420000000000e+01 3.30402681261060e-06 9.61324891788650e-08
5.15140000000000e+01 3.19157314802673e-06 9.30160035254129e-08
5.16860000000000e+01 3.08294688176484e-06 9.00000484523072e-08
5.18580000000000e+01 2.97801774703487e-06 8.70814006548800e-08
5.20300000000000e+01 2.87665991072081e-06 8.42569394040677e-08
5.22020000000000e+01 2.77875182247910e-06 8.15236433130692e-08
5.23740000000000e+01 2.68417606897304e-06 7.88785872046663e-08
5.25460000000000e+01 2.59281923306836e-06 7.63189390761265e-08
5.27180000000000e+01 2.50457175782112e-06 7.38419571586950e-08
5.28900000000000e+01 2.41932781509485e-06 7.14449870687759e-08
5.30620000000000e+01 2.33698517864932e-06 6.91254590479932e-08
5.32340000000000e+01 2.25744510154878e-06 6.68808852893988e-08
5.34060000000000e+01 2.18061219774269e-06 6.47088573471833e-08
5.35780000000000e+01 2.10639432767683e-06 6.26070436273208e-08
5.37500000000000e+01 2.03470248779773e-06 6.05731869566550e-08
5.39220000000000e+01 1.96545070381781e-06 5.86051022280189e-08
5.40940000000000e+01 1.89855592761331e-06 5.67006741190367e-08
5.42660000000000e+01 1.83393793763130e-06 5.48578548823433e-08
