Energy (eV)          EEDF (eV^-(3/2))     First Anisotropy
9.45348837209302e-04 9.84477987924455e+00 5.31896327359355e-03
2.83604651162791e-03 9.76599746310192e+00 8.77748510189942e-03
4.72674418604651e-03 9.68784549962881e+00 1.15723563535504e-02
6.61744186046512e-03 9.61031894385784e+00 1.36865837119775e-02
8.50813953488372e-03 9.53341279086766e+00 1.54423949859680e-02
1.03988372093023e-02 9.45712207600937e+00 1.69618223911673e-02
1.22895348837209e-02 9.38144187445943e+00 1.83081171701646e-02
1.41802325581395e-02 9.30636730023060e+00 1.95195335114836e-02
1.60709302325581e-02 9.23189350684912e+00 2.06214806639811e-02
1.79616279069767e-02 9.15801568660578e+00 2.16319443176247e-02
1.98523255813954e-02 9.08472907062491e+00 2.25642583121710e-02
2.17430232558140e-02 9.01202892746479e+00 2.34286628469976e-02
2.36337209302326e-02 8.93991056391492e+00 2.42332444789631e-02
2.55244186046512e-02 8.86836932431644e+00 2.49845350836141e-02
2.74151162790698e-02 8.79740059051230e+00 2.56879104773835e-02
2.93058139534884e-02 8.72699978080615e+00 2.63478653043465e-02
3.11965116279070e-02 8.65716235041671e+00 2.69682083757196e-02
3.30872093023256e-02 8.58788379093022e+00 2.75522051234896e-02
3.49779069767442e-02 8.51915963019444e+00 2.81026837247541e-02
3.68686046511628e-02 8.45098543147477e+00 2.86221156225475e-02
3.87593023255814e-02 8.38335679372810e+00 2.91126776818098e-02
4.06500000000000e-02 8.31626935112990e+00 2.95763009490556e-02
4.25406976744186e-02 8.24971877293744e+00 3.00147093605619e-02
4.44313953488372e-02 8.18370076277225e+00 3.04294507887809e-02
4.63220930232558e-02 8.11821105878452e+00 3.08219222454138e-02
4.82127906976744e-02 8.05324543322975e+00 3.11933905987591e-02
5.01034883720930e-02 7.98879969231374e+00 3.15450097086103e-02
5.19941860465116e-02 7.92486967556418e+00 3.18778346702028e-02
5.38848837209302e-02 7.86145125592274e+00 3.21928337767144e-02
5.57755813953488e-02 7.79854033935804e+00 3.24908986872197e-02
5.76662790697674e-02 7.73613286469975e+00 3.27728530811684e-02
5.95569767441861e-02 7.67422480307695e+00 3.30394600288996e-02
6.14476744186047e-02 7.61281215795996e+00 3.32914283349391e-02
6.33383720930233e-02 7.55189096480159e+00 3.35294180724975e-02
6.52290697674419e-02 7.49145729086504e+00 3.37540453950329e-02
6.71197674418605e-02 7.43150723471447e+00 3.39658867021129e-02
6.90104651162791e-02 7.37203692622069e+00 3.41654822914395e-02
7.09011627906977e-02 7.31304252622555e+00 3.43533396161600e-02
7.27918604651163e-02 7.25452022636648e+00 3.45299361630908e-02
7.46825581395349e-02 7.19646624860957e+00 3.46957219717999e-02
7.65732558139535e-02 7.13887684522846e+00 3.48511218749504e-02
7.84639534883721e-02 7.08174829848830e+00 3.49965375364988e-02
8.03546511627907e-02 7.02507692046910e+00 3.51323492759214e-02
8.22453488372093e-02 6.96885905263403e+00 3.52589176748730e-02
8.41360465116279e-02 6.91309106578831e+00 3.53765850145459e-02
8.60267441860465e-02 6.85776935983783e+00 3.54856766478935e-02
8.79174418604651e-02 6.80289036338136e+00 3.55865021711053e-02
8.98081395348837e-02 6.74845053365654e+00 3.56793564931193e-02
9.16988372093023e-02 6.69444635625142e+00 3.57645208406975e-02
9.35895348837209e-02 6.64087434492963e+00 3.58422636732021e-02
9.54802325581395e-02 6.58773104124956e+00 3.59128414903016e-02
9.73709302325581e-02 6.53501301449785e+00 3.59764995697638e-02
9.92616279069768e-02 6.48271686141507e+00 3.60334726950853e-02
1.01152325581395e-01 6.43083920588335e+00 3.60839856922410e-02
1.03043023255814e-01 6.37937669930276e+00 3.61282542062762e-02
1.04933720930233e-01 6.32832601901397e+00 3.61664851315032e-02
1.06824418604651e-01 6.27768386939995e+00 3.61988769029732e-02
1.08715116279070e-01 6.22744698163210e+00 3.62256203551038e-02
1.10605813953488e-01 6.17761211220621e+00 3.62468989473056e-02
1.12496511627907e-01 6.12817604399269e+00 3.62628889643466e-02
1.14387209302326e-01 6.07913558599136e+00 3.62737602690944e-02
1.16277906976744e-01 6.03048757196508e+00 3.62796764535222e-02
1.18168604651163e-01 5.98222886140252e+00 3.62807949717449e-02
1.20059302325581e-01 5.93435633928087e+00 3.62772678035405e-02
1.21950000000000e-01 5.88686691478752e+00 3.62692415500323e-02
1.23840697674419e-01 5.83975752220462e+00 3.62568575725626e-02
1.25731395348837e-01 5.79302512034752e+00 3.62402523603106e-02
1.27622093023256e-01 5.74666669269634e+00 3.62195578649638e-02
1.29512790697674e-01 5.70067924621084e+00 3.61949016020287e-02
1.31403488372093e-01 5.65505981213404e+00 3.61664066839100e-02
1.33294186046512e-01 5.60980544577249e+00 3.61341923396428e-02
1.35184883720930e-01 5.56491322538174e+00 3.60983739280122e-02
1.37075581395349e-01 5.52038025290760e+00 3.60590629447435e-02
1.38966279069767e-01 5.47620365377398e+00 3.60163674961793e-02
1.40856976744186e-01 5.43238057583271e+00 3.59703922912635e-02
1.42747674418605e-01 5.38890819004865e+00 3.59212386291184e-02
1.44638372093023e-01 5.34578369029445e+00 3.58690048338136e-02
1.46529069767442e-01 5.30300429235944e+00 3.58137862303509e-02
1.48419767441861e-01 5.26056723458382e+00 3.57556751173733e-02
1.50310465116279e-01 5.21846977765999e+00 3.56947611686581e-02
1.52201162790698e-01 5.17670920369563e+00 3.56311313970102e-02
1.54091860465116e-01 5.13528281680174e+00 3.55648701157075e-02
1.55982558139535e-01 5.09418794290009e+00 3.54960593112266e-02
1.57873255813954e-01 5.05342192883632e+00 3.54247785980384e-02
1.59763953488372e-01 5.01298214292585e+00 3.53511051715671e-02
1.61654651162791e-01 4.97286597476722e+00 3.52751141557746e-02
1.63545348837209e-01 4.93307083440137e+00 3.51968785511815e-02
1.65436046511628e-01 4.89359415281910e+00 3.51164691814956e-02
1.67326744186047e-01 4.85443338177999e+00 3.50339550190442e-02
1.69217441860465e-01 4.81558599301436e+00 3.49494031277409e-02
1.71108139534884e-01 4.77704947869592e+00 3.48628786051428e-02
1.72998837209302e-01 4.73882135126550e+00 3.47744448881897e-02
1.74889534883721e-01 4.70089914267294e+00 3.46841636924552e-02
1.76780232558140e-01 4.66328040481774e+00 3.45920949509908e-02
1.78670930232558e-01 4.62596270937741e+00 3.44982971024094e-02
1.80561627906977e-01 4.58894364708655e+00 3.44028270275331e-02
1.82452325581395e-01 4.55222082814805e+00 3.43057399860445e-02
1.84343023255814e-01 4.51579188206586e+00 3.42070898886511e-02
1.86233720930233e-01 4.47965445695883e+00 3.41069292320040e-02
1.88124418604651e-01 4.44380621994468e+00 3.40053090339582e-02
1.90015116279070e-01 4.40824485697712e+00 3.39022790912901e-02
1.91905813953488e-01 4.37296807219213e+00 3.37978879135841e-02
1.93796511627907e-01 4.33797358826676e+00 3.36921826577282e-02
1.95687209302326e-01 4.30325914626057e+00 3.35852093724576e-02
1.97577906976744e-01 4.26882250499212e+00 3.34770129317571e-02
1.99468604651163e-01 4.23466144137463e+00 3.33676369690942e-02
2.01359302325581e-01 4.20077375026150e+00 3.32571241098697e-02
2.03250000000000e-01 4.16715724385117e+00 3.31455159047815e-02
2.05140697674419e-01 4.13380975200137e+00 3.30328527949706e-02
2.07031395348837e-01 4.10072912193625e+00 3.29191742099052e-02
2.08922093023256e-01 4.06791321824826e+00 3.28045186552822e-02
2.10812790697674e-01 4.03535992233523e+00 3.26889236791259e-02
2.12703488372093e-01 4.00306713269124e+00 3.25724258061060e-02
2.14594186046512e-01 3.97103276476130e+00 3.24550607465109e-02
2.16484883720930e-01 3.93925475040317e+00 3.23368633302478e-02
2.18375581395349e-01 3.90773103815978e+00 3.22178674418670e-02
2.20266279069767e-01 3.87645959311795e+00 3.20981062201295e-02
2.22156976744186e-01 3.84543839639329e+00 3.19776119929594e-02
2.24047674418605e-01 3.81466544538568e+00 3.18564162133605e-02
2.25938372093023e-01 3.78413875364170e+00 3.17345496502214e-02
2.27829069767442e-01 3.75385635036148e+00 3.16120423243559e-02
2.29719767441861e-01 3.72381628063827e+00 3.14889234454547e-02
2.31610465116279e-01 3.69401660532455e+00 3.13652215946915e-02
2.33501162790698e-01 3.66445540055956e+00 3.12409646619696e-02
2.35391860465116e-01 3.63513075799407e+00 3.11161797840114e-02
2.37282558139535e-01 3.60604078466007e+00 3.09908935192762e-02
2.39173255813954e-01 3.57718360251778e+00 3.08651317864945e-02
2.41063953488372e-01 3.54855734866670e+00 3.07389198039753e-02
2.42954651162791e-01 3.52016017521871e+00 3.06122822573076e-02
2.44845348837209e-01 3.49199024886358e+00 3.04852432392306e-02
2.46736046511628e-01 3.46404575106714e+00 3.03578261902210e-02
2.48626744186047e-01 3.43632487794773e+00 3.02300540594029e-02
2.50517441860465e-01 3.40882583985918e+00 3.01019492457730e-02
2.52408139534884e-01 3.38154686157710e+00 2.99735335401410e-02
2.54298837209302e-01 3.35448618217839e+00 2.98448282796292e-02
2.56189534883721e-01 3.32764205464086e+00 2.97158542902477e-02
2.58080232558140e-01 3.30101274601846e+00 2.95866318302383e-02
2.59970930232558e-01 3.27459653732371e+00 2.94571807385090e-02
2.61861627906977e-01 3.24839172314314e+00 2.93275203785803e-02
2.63752325581395e-01 3.22239661180214e+00 2.91976695833391e-02
2.65643023255814e-01 3.19660952525024e+00 2.90676467977315e-02
2.67533720930233e-01 3.17102879869165e+00 2.89374700240890e-02
2.69424418604651e-01 3.14565278074026e+00 2.88071567682942e-02
2.71315116279070e-01 3.12047983330782e+00 2.86767241770296e-02
2.73205813953488e-01 3.09550833124871e+00 2.85461889844824e-02
2.75096511627907e-01 3.07073666250586e+00 2.84155674599188e-02
2.76987209302326e-01 3.04616322800159e+00 2.82848755397630e-02
2.78877906976744e-01 3.02178644129609e+00 2.81541287756770e-02
2.80768604651163e-01 2.99760472872461e+00 2.80233422835255e-02
2.82659302325581e-01 2.97361652929116e+00 2.78925308705435e-02
2.84550000000000e-01 2.94982029433974e+00 2.77617089847736e-02
2.86440697674419e-01 2.92621448768366e+00 2.76308906838649e-02
2.88331395348837e-01 2.90279758542947e+00 2.75000896835953e-02
2.90222093023256e-01 2.87956807595014e+00 2.73693194010550e-02
2.92112790697674e-01 2.85652445957160e+00 2.72385929252530e-02
2.94003488372093e-01 2.83366524869306e+00 2.71079229689683e-02
2.95894186046512e-01 2.81098896768666e+00 2.69773219858747e-02
2.97784883720930e-01 2.78849415259560e+00 2.68468021228831e-02
2.99675581395349e-01 2.76617935124740e+00 2.67163751732974e-02
3.01566279069767e-01 2.74404312315610e+00 2.65860526897295e-02
3.03456976744186e-01 2.72208403923146e+00 2.64558459377803e-02
3.05347674418605e-01 2.70030068188557e+00 2.63257658504839e-02
3.07238372093023e-01 2.67869164493751e+00 2.61958231371969e-02
3.09129069767442e-01 2.65725553333315e+00 2.60660282385945e-02
3.11019767441860e-01 2.63599096324547e+00 2.59363912823752e-02
3.12910465116279e-01 2.61489656198170e+00 2.58069221883002e-02
3.14801162790698e-01 2.59397096771312e+00 2.56776306244782e-02
3.16691860465116e-01 2.57321282956959e+00 2.55485259643010e-02
3.18582558139535e-01 2.55262080754898e+00 2.54196173878080e-02
3.20473255813954e-01 2.53219357225664e+00 2.52909138392238e-02
3.22363953488372e-01 2.51192980499441e+00 2.51624239850950e-02
3.24254651162791e-01 2.49182819767233e+00 2.50341563121408e-02
3.26145348837209e-01 2.47188745255731e+00 2.49061190860130e-02
3.28036046511628e-01 2.45210628235697e+00 2.47783203106081e-02
3.29926744186047e-01 2.43248341013354e+00 2.46507678225521e-02
3.31817441860465e-01 2.41301756906139e+00 2.45234692511352e-02
3.33708139534884e-01 2.39370750250600e+00 2.43964319787915e-02
3.35598837209302e-01 2.37455196393992e+00 2.42696632323581e-02
3.37489534883721e-01 2.35554971670885e+00 2.41431700441430e-02
3.39380232558140e-01 2.33669953410596e+00 2.40169592135484e-02
3.41270930232558e-01 2.31800019928996e+00 2.38910373952310e-02
3.43161627906977e-01 2.29945050505924e+00 2.37654110612813e-02
3.45052325581395e-01 2.28104925392195e+00 2.36400864639590e-02
3.46943023255814e-01 2.26279525801598e+00 2.35150697208782e-02
3.48833720930233e-01 2.24468733889094e+00 2.33903667782627e-02
3.50724418604651e-01 2.22672432757417e+00 2.32659833747691e-02
3.52615116279070e-01 2.20890506449262e+00 2.31419251238203e-02
3.54505813953488e-01 2.19122839926237e+00 2.30181974779054e-02
3.56396511627907e-01 2.17369319075072e+00 2.28948056934568e-02
3.58287209302326e-01 2.15629830700002e+00 2.27717549104419e-02
3.60177906976744e-01 2.13904262502433e+00 2.26490501176886e-02
3.62068604651163e-01 2.12192503086787e+00 2.25266961187804e-02
3.63959302325581e-01 2.10494441953079e+00 2.24046976090167e-02
3.65850000000000e-01 2.08809969477254e+00 2.22830591417302e-02
3.67740697674419e-01 2.07138976916708e+00 2.21617851067082e-02
3.69631395348837e-01 2.05481356399045e+00 2.20408797583999e-02
3.71522093023256e-01 2.03837000919058e+00 2.19203472409281e-02
3.73412790697674e-01 2.02205804319915e+00 2.18001915678049e-02
3.75303488372093e-01 2.00587661298278e+00 2.16804165899578e-02
3.77194186046512e-01 1.98982467397294e+00 2.15610260671911e-02
3.79084883720930e-01 1.97390118988394e+00 2.14420236366113e-02
3.80975581395349e-01 1.95810513276121e+00 2.13234127815713e-02
3.82866279069768e-01 1.94243548291284e+00 2.12051969008063e-02
3.84756976744186e-01 1.92689122873364e+00 2.10873792777837e-02
3.86647674418605e-01 1.91147136675055e+00 2.09699630505380e-02
3.88538372093023e-01 1.89617490155587e+00 2.08529512785661e-02
3.90429069767442e-01 1.88100084563709e+00 2.07363469130802e-02
3.92319767441861e-01 1.86594821941962e+00 2.06201527677060e-02
3.94210465116279e-01 1.85101605120163e+00 2.05043715832233e-02
3.96101162790698e-01 1.83620337698950e+00 2.03890059986883e-02
3.97991860465116e-01 1.82150924053794e+00 2.02740585229724e-02
3.99882558139535e-01 1.80693269328647e+00 2.01595315974308e-02
4.01773255813954e-01 1.79247279420018e+00 2.00454275678661e-02
4.03663953488372e-01 1.77812860980749e+00 1.99317486568843e-02
4.05554651162791e-01 1.76389921413814e+00 1.98184970245631e-02
4.07445348837209e-01 1.74978368856917e+00 1.97056747412351e-02
4.09336046511628e-01 1.73578112186030e+00 1.95932837606372e-02
4.11226744186047e-01 1.72189061009354e+00 1.94813259786515e-02
4.13117441860465e-01 1.70811125652406e+00 1.93698032068784e-02
4.15008139534884e-01 1.69444217161347e+00 1.92587171465635e-02
4.16898837209302e-01 1.68088247297085e+00 1.91480694454809e-02
4.18789534883721e-01 1.66743128520845e+00 1.90378616722616e-02
4.20680232558140e-01 1.65408773997291e+00 1.89280952910834e-02
4.22570930232558e-01 1.64085097588773e+00 1.88187717167624e-02
4.24461627906977e-01 1.62772013841357e+00 1.87098922898147e-02
4.26352325581395e-01 1.61469437987757e+00 1.86014582518835e-02
4.28243023255814e-01 1.60177285941720e+00 1.84934707991027e-02
4.30133720930233e-01 1.58895474284499e+00 1.83859310578724e-02
4.32024418604651e-01 1.57623920267604e+00 1.82788400610001e-02
4.33915116279070e-01 1.56362541807328e+00 1.81721987993959e-02
4.35805813953488e-01 1.55111257471636e+00 1.80660081985429e-02
4.37696511627907e-01 1.53869986482761e+00 1.79602690953293e-02
4.39587209302326e-01 1.52638648711843e+00 1.78549822881335e-02
4.41477906976744e-01 1.51417164666251e+00 1.77501485139694e-02
4.43368604651163e-01 1.50205455491998e+00 1.76457684259883e-02
4.45259302325581e-01 1.49003442968526e+00 1.75418426420112e-02
4.47150000000000e-01 1.47811049496409e+00 1.74383717223255e-02
4.49040697674419e-01 1.46628198099632e+00 1.73353561552276e-02
4.50931395348837e-01 1.45454812418173e+00 1.72327963744405e-02
4.52822093023256e-01 1.44290816705371e+00 1.71306927745280e-02
4.54712790697675e-01 1.43136135816120e+00 1.70290456972992e-02
4.56603488372093e-01 1.41990695208972e+00 1.69278554107300e-02
4.58494186046512e-01 1.40854420941199e+00 1.68271221542043e-02
4.60384883720930e-01 1.39727239657365e+00 1.67268461177078e-02
4.62275581395349e-01 1.38609078591281e+00 1.66270274213493e-02
4.64166279069768e-01 1.37499865561196e+00 1.65276661592112e-02
4.66056976744186e-01 1.36399528958714e+00 1.64287623791459e-02
4.67947674418605e-01 1.35307997750629e+00 1.63303160628800e-02
4.69838372093023e-01 1.34225201474228e+00 1.62323271685231e-02
4.71729069767442e-01 1.33151070226550e+00 1.61347956109484e-02
4.73619767441861e-01 1.32085534666098e+00 1.60377212424593e-02
4.75510465116279e-01 1.31028526008258e+00 1.59411038940037e-02
4.77401162790698e-01 1.29979976014885e+00 1.58449433561204e-02
4.79291860465116e-01 1.28939816995902e+00 1.57492393601546e-02
4.81182558139535e-01 1.27907981804830e+00 1.56539916182171e-02
4.83073255813954e-01 1.26884403828691e+00 1.55591998046803e-02
4.84963953488372e-01 1.25869016989500e+00 1.54648635379284e-02
4.86854651162791e-01 1.24861755739898e+00 1.53709824191018e-02
4.88745348837209e-01 1.23862555053369e+00 1.52775560141250e-02
4.90636046511628e-01 1.22871350425625e+00 1.51845838359752e-02
4.92526744186047e-01 1.21888077870346e+00 1.50920653822577e-02
4.94417441860465e-01 1.20912673909695e+00 1.50000001177445e-02
4.96308139534884e-01 1.19945075575600e+00 1.49083874571469e-02
4.98198837209302e-01 1.18985220405605e+00 1.48172268015604e-02
5.00089534883721e-01 1.18033046433665e+00 1.47265175214977e-02
5.01980232558140e-01 1.17088492191343e+00 1.46362589401565e-02
5.03870930232558e-01 1.16151496703753e+00 1.45464503687639e-02
5.05761627906977e-01 1.15221999480637e+00 1.44570910900906e-02
5.07652325581395e-01 1.14299940517477e+00 1.43681803421978e-02
5.09543023255814e-01 1.13385260291532e+00 1.42797173527228e-02
5.11433720930233e-01 1.12477899753184e+00 1.41917013228563e-02
5.13324418604651e-01 1.11577800326966e+00 1.41041314115553e-02
5.15215116279070e-01 1.10684903907700e+00 1.40170067688001e-02
5.17105813953488e-01 1.09799152852099e+00 1.39303265200268e-02
5.18996511627907e-01 1.08920489979714e+00 1.38440897507895e-02
5.20887209302326e-01 1.08048858569169e+00 1.37582955390232e-02
5.22777906976744e-01 1.07184202350012e+00 1.36729429399151e-02
5.24668604651163e-01 1.06326465503590e+00 1.35880309710051e-02
5.26559302325581e-01 1.05475592659376e+00 1.35035586434884e-02
5.28450000000000e-01 1.04631528887054e+00 1.34195249475108e-02
5.30340697674419e-01 1.03794219697339e+00 1.33359288425049e-02
5.32231395348837e-01 1.02963611036989e+00 1.32527692682735e-02
5.34122093023256e-01 1.02139649286698e+00 1.31700451547890e-02
5.36012790697674e-01 1.01322281253485e+00 1.30877554130993e-02
5.37903488372093e-01 1.00511454171428e+00 1.30058989213538e-02
5.39794186046512e-01 9.97071156981904e-01 1.29244745540603e-02
5.41684883720930e-01 9.89092139076375e-01 1.28434811682955e-02
5.43575581395349e-01 9.81176972905085e-01 1.27629175901233e-02
5.45466279069768e-01 9.73325147510249e-01 1.26827826429843e-02
5.47356976744186e-01 9.65536155997261e-01 1.26030751343003e-02
5.49247674418605e-01 9.57809495540837e-01 1.25237938422735e-02
5.51138372093023e-01 9.50144667351909e-01 1.24449375434380e-02
5.53029069767442e-01 9.42541176608085e-01 1.23665049996422e-02
5.54919767441861e-01 9.34998532459245e-01 1.22884949452177e-02
5.56810465116279e-01 9.27516247995236e-01 1.22109061137210e-02
5.58701162790698e-01 9.20093840178368e-01 1.21337372252840e-02
5.60591860465116e-01 9.12730829848487e-01 1.20569869741418e-02
5.62482558139535e-01 9.05426741691455e-01 1.19806540545879e-02
5.64373255813954e-01 8.98181104173615e-01 1.19047371486841e-02
5.66263953488372e-01 8.90993449546374e-01 1.18292349141327e-02
5.68154651162791e-01 8.83863313815449e-01 1.17541460094740e-02
5.70045348837209e-01 8.76790236677232e-01 1.16794690821435e-02
5.71936046511628e-01 8.69773761522916e-01 1.16052027566810e-02
5.73826744186047e-01 8.62813435408486e-01 1.15313456591916e-02
5.75717441860465e-01 8.55908808992923e-01 1.14578964057353e-02
5.77608139534884e-01 8.49059436541912e-01 1.13848535908718e-02
5.79498837209302e-01 8.42264875898533e-01 1.13122158114045e-02
5.81389534883721e-01 8.35524688423275e-01 1.12399816550932e-02
5.83280232558140e-01 8.28838438997322e-01 1.11681496895221e-02
5.85170930232558e-01 8.22205695993959e-01 1.10967184851505e-02
5.87061627906977e-01 8.15626031220309e-01 1.10256866043423e-02
5.88952325581395e-01 8.09099019920241e-01 1.09550525905437e-02
5.90843023255814e-01 8.02624240746462e-01 1.08848149906651e-02
5.92733720930233e-01 7.96201275703931e-01 1.08149723444139e-02
5.94624418604651e-01 7.89829710152409e-01 1.07455231737769e-02
5.96515116279070e-01 7.83509132779217e-01 1.06764660047534e-02
