Energy (eV)          EEDF (eV^-(3/2))     First Anisotropy
1.72058823529412e-02 1.80866198402501e-01 1.16064467108438e-04
5.16176470588235e-02 1.79032685281917e-01 1.91327184820238e-04
8.60294117647059e-02 1.77217759218424e-01 2.51705495238863e-04
1.20441176470588e-01 1.75421231789001e-01 2.97050491374000e-04
1.54852941176471e-01 1.73642916473525e-01 3.34436902523476e-04
1.89264705882353e-01 1.71882628650090e-01 3.66552651612383e-04
2.23676470588235e-01 1.70140185576970e-01 3.94795192417269e-04
2.58088235294118e-01 1.68415406345212e-01 4.20012218846715e-04
2.92500000000000e-01 1.66708111889673e-01 4.42768436250560e-04
3.26911764705882e-01 1.65018124966234e-01 4.63464723041544e-04
3.61323529411765e-01 1.63345270115871e-01 4.82399121550875e-04
3.95735294117647e-01 1.61689373664035e-01 4.99801167318683e-04
4.30147058823529e-01 1.60050263700826e-01 5.15852625439908e-04
4.64558823529412e-01 1.58427770050918e-01 5.30700714749796e-04
4.98970588235294e-01 1.56821724268217e-01 5.44466918934850e-04
5.33382352941176e-01 1.55231959614200e-01 5.57253072057889e-04
5.67794117647059e-01 1.53658311043564e-01 5.69145688270308e-04
6.02205882352941e-01 1.52100615178209e-01 5.80219120607927e-04
6.36617647058824e-01 1.50558710299209e-01 5.90537916614589e-04
6.71029411764706e-01 1.49032436329430e-01 6.00158611026962e-04
7.05441176470588e-01 1.47521634809748e-01 6.09131109580087e-04
7.39852941176470e-01 1.46026148889784e-01 6.17499774611483e-04
7.74264705882353e-01 1.44545823309220e-01 6.25304288833364e-04
8.08676470588235e-01 1.43080504383547e-01 6.32580350061799e-04
8.43088235294118e-01 1.41630039982410e-01 6.39360235323540e-04
8.77500000000000e-01 1.40194279519572e-01 6.45673263678410e-04
9.11911764705882e-01 1.38773073936949e-01 6.51546181178498e-04
9.46323529411765e-01 1.37366275684299e-01 6.57003480783134e-04
9.80735294117647e-01 1.35973738708768e-01 6.62067671417389e-04
1.01514705882353e+00 1.34595318439477e-01 6.66759507218525e-04
1.04955882352941e+00 1.33230871769620e-01 6.71098182940665e-04
1.08397058823529e+00 1.31880257035575e-01 6.75101497124186e-04
1.11838235294118e+00 1.30543334030205e-01 6.78786000866745e-04
1.15279411764706e+00 1.29219963942775e-01 6.82167119972268e-04
1.18720588235294e+00 1.27910009393697e-01 6.85259262487285e-04
1.22161764705882e+00 1.26613334383641e-01 6.88075919723845e-04
1.25602941176471e+00 1.25329804282188e-01 6.90629741113890e-04
1.29044117647059e+00 1.24059285844237e-01 6.92932613503994e-04
1.32485294117647e+00 1.22801647155634e-01 6.94995725230519e-04
1.35926470588235e+00 1.21556757658628e-01 6.96829623758085e-04
1.39367647058824e+00 1.20324488100481e-01 6.98444267683375e-04
1.42808823529412e+00 1.19104710556634e-01 6.99849072652850e-04
1.46250000000000e+00 1.17897298382036e-01 7.01052953141771e-04
1.49691176470588e+00 1.16702126232247e-01 7.02064359477445e-04
1.53132352941176e+00 1.15519070017257e-01 7.02891311797548e-04
1.56573529411765e+00 1.14348006920738e-01 7.03541430227912e-04
1.60014705882353e+00 1.13188815356149e-01 7.04021962777613e-04
1.63455882352941e+00 1.12041374984308e-01 7.04339810180903e-04
1.66897058823529e+00 1.10905566671611e-01 7.04501549033828e-04
1.70338235294118e+00 1.09781272506086e-01 7.04513452428332e-04
1.73779411764706e+00 1.08668375757555e-01 7.04381509312471e-04
1.77220588235294e+00 1.07566760892320e-01 7.04111440816079e-04
1.80661764705882e+00 1.06476313541149e-01 7.03708720413275e-04
1.84102941176471e+00 1.05396920488547e-01 7.03178582794742e-04
1.87544117647059e+00 1.04328469678454e-01 7.02526041387855e-04
1.90985294117647e+00 1.03270850179355e-01 7.01755900154395e-04
1.94426470588235e+00 1.02223952195402e-01 7.00872765049308e-04
1.97867647058824e+00 1.01187667032972e-01 6.99881055028608e-04
2.01308823529412e+00 1.00161887110848e-01 6.98785011878788e-04
2.04750000000000e+00 9.91465059281444e-02 6.97588709726786e-04
2.08191176470588e+00 9.81414180736164e-02 6.96296063520169e-04
2.11632352941176e+00 9.71465191948680e-02 6.94910837290533e-04
2.15073529411765e+00 9.61617060068679e-02 6.93436651508649e-04
2.18514705882353e+00 9.51868762623595e-02 6.91876990303384e-04
2.21955882352941e+00 9.42219287596452e-02 6.90235207872750e-04
2.25397058823529e+00 9.32667633141322e-02 6.88514534821963e-04
2.28838235294118e+00 9.23212807654421e-02 6.86718083777502e-04
2.32279411764706e+00 9.13853829500284e-02 6.84848854978191e-04
2.35720588235294e+00 9.04589727076633e-02 6.82909740515711e-04
2.39161764705882e+00 8.95419538588851e-02 6.80903532083327e-04
2.42602941176471e+00 8.86342311956028e-02 6.78832921167641e-04
2.46044117647059e+00 8.77357104823564e-02 6.76700506120675e-04
2.49485294117647e+00 8.68462984316898e-02 6.74508795574929e-04
2.52926470588235e+00 8.59659027089719e-02 6.72260212091394e-04
2.56367647058824e+00 8.50944319086323e-02 6.69957095880308e-04
2.59808823529412e+00 8.42317955585314e-02 6.67601708051861e-04
2.63250000000000e+00 8.33779040970173e-02 6.65196233957381e-04
2.66691176470588e+00 8.25326688768773e-02 6.62742786095350e-04
2.70132352941176e+00 8.16960021431766e-02 6.60243407121805e-04
2.73573529411765e+00 8.08678170368226e-02 6.57700072456286e-04
2.77014705882353e+00 8.00480275731476e-02 6.55114693002653e-04
2.80455882352941e+00 7.92365486451135e-02 6.52489117492666e-04
2.83897058823529e+00 7.84332960026054e-02 6.49825134952592e-04
2.87338235294118e+00 7.76381862553020e-02 6.47124476816547e-04
2.90779411764706e+00 7.68511368526471e-02 6.44388819168837e-04
2.94220588235294e+00 7.60720660864106e-02 6.41619784129879e-04
2.97661764705882e+00 7.53008930738821e-02 6.38818944005093e-04
3.01102941176471e+00 7.45375377498181e-02 6.35987819876556e-04
3.04544117647059e+00 7.37819208656831e-02 6.33127885482112e-04
3.07985294117647e+00 7.30339639713638e-02 6.30240568441856e-04
3.11426470588235e+00 7.22935894168785e-02 6.27327251760942e-04
3.14867647058824e+00 7.15607203346608e-02 6.24389275466259e-04
3.18308823529412e+00 7.08352806410395e-02 6.21427937976003e-04
3.21750000000000e+00 7.01171950190689e-02 6.18444497603975e-04
3.25191176470588e+00 6.94063889197957e-02 6.15440173810111e-04
3.28632352941176e+00 6.87027885456133e-02 6.12416148586227e-04
3.32073529411765e+00 6.80063208513301e-02 6.09373567599923e-04
3.35514705882353e+00 6.73169135280279e-02 6.06313541473472e-04
3.38955882352941e+00 6.66344950039455e-02 6.03237146832360e-04
3.42397058823529e+00 6.59589944288211e-02 6.00145427487713e-04
3.45838235294118e+00 6.52903416746038e-02 5.97039395398993e-04
3.49279411764706e+00 6.46284673202620e-02 5.93920031769365e-04
3.52720588235294e+00 6.39733026523348e-02 5.90788287527681e-04
3.56161764705882e+00 6.33247796519953e-02 5.87645085962102e-04
3.59602941176471e+00 6.26828309882052e-02 5.84491321122474e-04
3.63044117647059e+00 6.20473900160445e-02 5.81327860312509e-04
3.66485294117647e+00 6.14183907627093e-02 5.78155544571482e-04
3.69926470588235e+00 6.07957679276132e-02 5.74975189398177e-04
3.73367647058824e+00 6.01794568687868e-02 5.71787585598443e-04
3.76808823529412e+00 5.95693936028612e-02 5.68593499954313e-04
3.80250000000000e+00 5.89655147918543e-02 5.65393676014773e-04
3.83691176470588e+00 5.83677577430451e-02 5.62188834714977e-04
3.87132352941176e+00 5.77760603961331e-02 5.58979675114969e-04
3.90573529411765e+00 5.71903613230118e-02 5.55766874973366e-04
3.94014705882353e+00 5.66105997152878e-02 5.52551091438450e-04
3.97455882352941e+00 5.60367153839602e-02 5.49332961580433e-04
4.00897058823529e+00 5.54686487472880e-02 5.46113103038687e-04
4.04338235294118e+00 5.49063408303821e-02 5.42892114515904e-04
4.07779411764706e+00 5.43497332534083e-02 5.39670576385180e-04
4.11220588235294e+00 5.37987682310993e-02 5.36449050835353e-04
4.14661764705882e+00 5.32533885625866e-02 5.33228083700593e-04
4.18102941176471e+00 5.27135376256054e-02 5.30008203008017e-04
4.21544117647059e+00 5.21791593744646e-02 5.26789920720082e-04
4.24985294117647e+00 5.16501983291047e-02 5.23573732919912e-04
4.28426470588235e+00 5.11265995743716e-02 5.20360120196668e-04
4.31867647058824e+00 5.06083087493695e-02 5.17149548133577e-04
4.35308823529412e+00 5.00952720466769e-02 5.13942467667341e-04
4.38750000000000e+00 4.95874362019849e-02 5.10739315548023e-04
4.42191176470588e+00 4.90847484932603e-02 5.07540514674504e-04
4.45632352941176e+00 4.85871567306602e-02 5.04346474528208e-04
4.49073529411765e+00 4.80946092556458e-02 5.01157591486444e-04
4.52514705882353e+00 4.76070549311650e-02 4.97974249231778e-04
4.55955882352941e+00 4.71244431407217e-02 4.94796819045060e-04
4.59397058823529e+00 4.66467237788168e-02 4.91625660192201e-04
4.62838235294118e+00 4.61738472499775e-02 4.88461120198184e-04
4.66279411764706e+00 4.57057644594486e-02 4.85303535212804e-04
4.69720588235294e+00 4.52424268121848e-02 4.82153230020049e-04
4.73161764705882e+00 4.47837862047465e-02 4.79010519375567e-04
4.76602941176471e+00 4.43297950204040e-02 4.75875706767354e-04
4.80044117647059e+00 4.38804061270337e-02 4.72749085693898e-04
4.83485294117647e+00 4.34355728684445e-02 4.69630939720561e-04
4.86926470588235e+00 4.29952490632515e-02 4.66521542698388e-04
4.90367647058823e+00 4.25593889964255e-02 4.63421159065816e-04
4.93808823529412e+00 4.21279474181427e-02 4.60330044053814e-04
4.97250000000000e+00 4.17008795355501e-02 4.57248443972245e-04
5.00691176470588e+00 4.12781410115938e-02 4.54176596402360e-04
5.04132352941176e+00 4.08596879569947e-02 4.51114730468544e-04
5.07573529411765e+00 4.04454769290567e-02 4.48063067019139e-04
5.11014705882353e+00 4.00354649238471e-02 4.45021818884487e-04
5.14455882352941e+00 3.96296093749874e-02 4.41991191046828e-04
5.17897058823529e+00 3.92278681460312e-02 4.38971380885548e-04
5.21338235294118e+00 3.88301995292409e-02 4.35962578336804e-04
5.24779411764706e+00 3.84365622381573e-02 4.32964966126711e-04
5.28220588235294e+00 3.80469154063636e-02 4.29978719725427e-04
5.31661764705882e+00 3.76612185809602e-02 4.27004008355296e-04
5.35102941176471e+00 3.72794317184348e-02 4.24040993958398e-04
5.38544117647059e+00 3.69015151826321e-02 4.21089832162039e-04
5.41985294117647e+00 3.65274297378070e-02 4.18150672276723e-04
5.45426470588235e+00 3.61571365473381e-02 4.15223657425453e-04
5.48867647058823e+00 3.57905971669530e-02 4.12308924739678e-04
5.52308823529412e+00 3.54277735434359e-02 4.09406605480861e-04
5.55750000000000e+00 3.50686280080213e-02 4.06516825227183e-04
5.59191176470588e+00 3.47131232750969e-02 4.03639703988129e-04
5.62632352941176e+00 3.43612224357598e-02 4.00775356382425e-04
5.66073529411765e+00 3.40128889565174e-02 3.97923891745949e-04
5.69514705882353e+00 3.36680866730012e-02 3.95085414301482e-04
5.72955882352941e+00 3.33267797886667e-02 3.92260023260320e-04
5.76397058823529e+00 3.29889328686611e-02 3.89447812984292e-04
5.79838235294118e+00 3.26545108385223e-02 3.86648873081464e-04
5.83279411764706e+00 3.23234789781969e-02 3.83863288560793e-04
5.86720588235294e+00 3.19958029207398e-02 3.81091139765862e-04
5.90161764705882e+00 3.16714486470222e-02 3.78332503150059e-04
5.93602941176471e+00 3.13503824822497e-02 3.75587450424985e-04
5.97044117647059e+00 3.10325710940789e-02 3.72856049303726e-04
6.00485294117647e+00 3.07179814870102e-02 3.70138363472860e-04
6.03926470588235e+00 3.04065810010757e-02 3.67434452670569e-04
6.07367647058823e+00 3.00983373063676e-02 3.64744372818164e-04
6.10808823529412e+00 2.97932184017307e-02 3.62068176093681e-04
6.14250000000000e+00 2.94911926094223e-02 3.59405911057604e-04
6.17691176470588e+00 2.91922285738105e-02 3.56757622722258e-04
6.21132352941176e+00 2.88962952561622e-02 3.54123352672100e-04
6.24573529411765e+00 2.86033619333474e-02 3.51503139129066e-04
6.28014705882353e+00 2.83133981927520e-02 3.48897017067659e-04
6.31455882352941e+00 2.80263739309897e-02 3.46305018276628e-04
6.34897058823529e+00 2.77422593489349e-02 3.43727171469033e-04
6.38338235294118e+00 2.74610249504435e-02 3.41163502340362e-04
6.41779411764706e+00 2.71826415375033e-02 3.38614033673955e-04
6.45220588235294e+00 2.69070802089629e-02 3.36078785270297e-04
6.48661764705882e+00 2.66343123562143e-02 3.33557774551157e-04
6.52102941176471e+00 2.63643096602596e-02 3.31051015860028e-04
6.55544117647059e+00 2.60970440900056e-02 3.28558521041950e-04
6.58985294117647e+00 2.58324878977102e-02 3.26080299405118e-04
6.62426470588235e+00 2.55706136177203e-02 3.23616357768340e-04
6.65867647058823e+00 2.53113940620261e-02 3.21166700551455e-04
6.69308823529412e+00 2.50548023190090e-02 3.18731329820042e-04
6.72750000000000e+00 2.48008117491000e-02 3.16310245372063e-04
6.76191176470588e+00 2.45493959835392e-02 3.13903444779953e-04
6.79632352941176e+00 2.43005289201354e-02 3.11510923473648e-04
6.83073529411765e+00 2.40541847220367e-02 3.09132674780324e-04
6.86514705882353e+00 2.38103378135896e-02 3.06768690003945e-04
6.89955882352941e+00 2.35689628791208e-02 3.04418958462590e-04
6.93397058823529e+00 2.33300348588929e-02 3.02083467564854e-04
6.96838235294118e+00 2.30935289478980e-02 2.99762202844964e-04
7.00279411764706e+00 2.28594205919078e-02 2.97455148035960e-04
7.03720588235294e+00 2.26276854862789e-02 2.95162285001799e-04
7.07161764705882e+00 2.23982995724155e-02 2.92883594212782e-04
7.10602941176471e+00 2.21712390352999e-02 2.90619054171724e-04
7.14044117647059e+00 2.19464803019719e-02 2.88368641870514e-04
7.17485294117647e+00 2.17240000378137e-02 2.86132332749091e-04
7.20926470588235e+00 2.15037751453771e-02 2.83910100724008e-04
7.24367647058823e+00 2.12857827607536e-02 2.81701918251534e-04
7.27808823529412e+00 2.10700002524148e-02 2.79507756354529e-04
7.31250000000000e+00 2.08564052176664e-02 2.77327584683021e-04
7.34691176470588e+00 2.06449754815015e-02 2.75161371539429e-04
7.38132352941176e+00 2.04356890931361e-02 2.73009083936703e-04
7.41573529411765e+00 2.02285243248758e-02 2.70870687621985e-04
7.45014705882353e+00 2.00234596687310e-02 2.68746147132470e-04
7.48455882352941e+00 1.98204738352968e-02 2.66635425817592e-04
7.51897058823529e+00 1.96195457504457e-02 2.64538485892640e-04
7.55338235294118e+00 1.94206545542212e-02 2.62455288459569e-04
7.58779411764706e+00 1.92237795976062e-02 2.60385793558465e-04
7.62220588235294e+00 1.90289004414294e-02 2.58329960105397e-04
7.65661764705882e+00 1.88359968534581e-02 2.56287746269349e-04
7.69102941176471e+00 1.86450488063173e-02 2.54259109001591e-04
7.72544117647059e+00 1.84560364761514e-02 2.52244004397737e-04
7.75985294117647e+00 1.82689402395805e-02 2.50242387657854e-04
7.79426470588235e+00 1.80837406726344e-02 2.48254213103116e-04
7.82867647058823e+00 1.79004185477788e-02 2.46279434220361e-04
7.86308823529412e+00 1.77189548328624e-02 2.44318003677623e-04
7.89750000000000e+00 1.75393306882112e-02 2.42369873366943e-04
7.93191176470588e+00 1.73615274655896e-02 2.40434994418903e-04
7.96632352941176e+00 1.71855267053595e-02 2.38513317243726e-04
8.00073529411765e+00 1.70113101354566e-02 2.36604791544805e-04
8.03514705882353e+00 1.68388596686131e-02 2.34709366358242e-04
8.06955882352941e+00 1.66681574013475e-02 2.32826990065408e-04
8.10397058823529e+00 1.64991856112507e-02 2.30957610430926e-04
8.13838235294117e+00 1.63319267559892e-02 2.29101174614358e-04
8.17279411764706e+00 1.61663634706526e-02 2.27257629206713e-04
8.20720588235294e+00 1.60024785667704e-02 2.25426920175114e-04
8.24161764705882e+00 1.58402550299139e-02 2.23608993163289e-04
8.27602941176471e+00 1.56796760179461e-02 2.21803793105385e-04
8.31044117647059e+00 1.55207248598508e-02 2.20011264514703e-04
8.34485294117647e+00 1.53633850532324e-02 2.18231351446708e-04
8.37926470588235e+00 1.52076402633618e-02 2.16463997508080e-04
8.41367647058823e+00 1.50534743207316e-02 2.14709145888377e-04
8.44808823529412e+00 1.49008712201160e-02 2.12966739368333e-04
8.48250000000000e+00 1.47498151181809e-02 2.11236720350318e-04
8.51691176470588e+00 1.46002903325571e-02 2.09519030866006e-04
8.55132352941176e+00 1.44522813395041e-02 2.07813612605600e-04
8.58573529411765e+00 1.43057727729967e-02 2.06120406924887e-04
8.62014705882353e+00 1.41607494224409e-02 2.04439354873343e-04
8.65455882352941e+00 1.40171962317744e-02 2.02770397200557e-04
8.68897058823529e+00 1.38750982972332e-02 2.01113474383268e-04
8.72338235294118e+00 1.37344408664649e-02 1.99468526631243e-04
8.75779411764706e+00 1.35952093363460e-02 1.97835493913212e-04
8.79220588235294e+00 1.34573892521081e-02 1.96214315908460e-04
8.82661764705882e+00 1.33209663053563e-02 1.94604932247447e-04
8.86102941176470e+00 1.31859263325956e-02 1.93007282194645e-04
8.89544117647059e+00 1.30522553142153e-02 1.91421304879820e-04
8.92985294117647e+00 1.29199393724279e-02 1.89846939264673e-04
8.96426470588235e+00 1.27889647704257e-02 1.88284124147021e-04
8.99867647058823e+00 1.26593179103655e-02 1.86732798183339e-04
9.03308823529412e+00 1.25309853325378e-02 1.85192899892493e-04
9.06750000000000e+00 1.24039537133966e-02 1.83664367677402e-04
9.10191176470588e+00 1.22782098647412e-02 1.82147139828356e-04
9.13632352941176e+00 1.21537407317897e-02 1.80641154543824e-04
9.17073529411765e+00 1.20305333923731e-02 1.79146349933361e-04
9.20514705882353e+00 1.19085750550519e-02 1.77662664037637e-04
9.23955882352941e+00 1.17878530583228e-02 1.76190034830956e-04
9.27397058823529e+00 1.16683548687764e-02 1.74728400240472e-04
9.30838235294117e+00 1.15500680803168e-02 1.73277698148394e-04
9.34279411764706e+00 1.14329804123599e-02 1.71837866410435e-04
9.37720588235294e+00 1.13170797090652e-02 1.70408842813859e-04
9.41161764705882e+00 1.12023539376943e-02 1.68990565270878e-04
9.44602941176471e+00 1.10887911873714e-02 1.67582971557936e-04
9.48044117647059e+00 1.09763796682049e-02 1.66185999501621e-04
9.51485294117647e+00 1.08651077095863e-02 1.64799586949097e-04
9.54926470588235e+00 1.07549637594494e-02 1.63423671769197e-04
9.58367647058823e+00 1.06459363826064e-02 1.62058191868471e-04
9.61808823529412e+00 1.05380142600189e-02 1.60703085191995e-04
9.65250000000000e+00 1.04311861871709e-02 1.59358289738783e-04
9.68691176470588e+00 1.03254410733514e-02 1.58023743562322e-04
9.72132352941176e+00 1.02207679400628e-02 1.56699384785392e-04
9.75573529411765e+00 1.01171559203157e-02 1.55385151600352e-04
9.79014705882353e+00 1.00145942570718e-02 1.54080982283355e-04
9.82455882352941e+00 9.91307230255027e-03 1.52786815194421e-04
9.85897058823529e+00 9.81257951670496e-03 1.51502588791091e-04
9.89338235294118e+00 9.71310546654167e-03 1.50228241628277e-04
9.92779411764706e+00 9.61463982462907e-03 1.48963712371357e-04
9.96220588235294e+00 9.51717236842706e-03 1.47708939760087e-04
9.99661764705882e+00 9.42069297892568e-03 1.46463862658849e-04
1.00310294117647e+01 9.32519163988352e-03 1.45228420300693e-04
1.00654411764706e+01 9.23065843584876e-03 1.44002551906223e-04
1.00998529411765e+01 9.13708355245645e-03 1.42786196203571e-04
1.01342647058824e+01 9.04445727574018e-03 1.41579292972252e-04
1.01686764705882e+01 8.95276998838624e-03 1.40381782139837e-04
1.02030882352941e+01 8.86201217149071e-03 1.39193602752835e-04
1.02375000000000e+01 8.77217440351681e-03 1.38014695035567e-04
1.02719117647059e+01 8.68324735668794e-03 1.36844999053777e-04
1.03063235294118e+01 8.59522179951116e-03 1.35684455008758e-04
1.03407352941176e+01 8.50808859237800e-03 1.34533003616362e-04
1.03751470588235e+01 8.42183868918551e-03 1.33390584795879e-04
1.04095588235294e+01 8.33646313634652e-03 1.32257139606186e-04
1.04439705882353e+01 8.25195306940791e-03 1.31132609290554e-04
1.04783823529412e+01 8.16829971459879e-03 1.30016934341285e-04
1.05127941176471e+01 8.08549438787180e-03 1.28910056368826e-04
1.05472058823529e+01 8.00352849164521e-03 1.27811917179647e-04
1.05816176470588e+01 7.92239351628169e-03 1.26722457872488e-04
1.06160294117647e+01 7.84208103915958e-03 1.25641620642937e-04
1.06504411764706e+01 7.76258272153383e-03 1.24569347892890e-04
1.06848529411765e+01 7.68389030994937e-03 1.23505581357680e-04
1.07192647058824e+01 7.60599563534014e-03 1.22450263848433e-04
1.07536764705882e+01 7.52889061000521e-03 1.21403338391562e-04
1.07880882352941e+01 7.45256722895938e-03 1.20364747386077e-04
1.08225000000000e+01 7.37701756905927e-03 1.19334434285815e-04
1.08569117647059e+01 7.30223378609005e-03 1.18312342505316e-04
