Energy (eV)          EEDF (eV^-(3/2))     First Anisotropy
9.08333333333333e-03 7.90804341387895e-01 5.98188032322799e-04
2.72500000000000e-02 7.79495562257150e-01 9.84023768524426e-04
4.54166666666667e-02 7.68348502670083e-01 1.28911389996156e-03
6.35833333333333e-02 7.57360849932569e-01 1.51495089490938e-03
8.17500000000000e-02 7.46530324472149e-01 1.69844762766218e-03
9.99166666666667e-02 7.35854679328997e-01 1.85371950644649e-03
1.18083333333333e-01 7.25331699647706e-01 1.98815022864675e-03
1.36250000000000e-01 7.14959202232354e-01 2.10624532057563e-03
1.54416666666667e-01 7.04735035214012e-01 2.21102355248617e-03
1.72583333333333e-01 6.94657077344648e-01 2.30463994917575e-03
1.90750000000000e-01 6.84723237783906e-01 2.38870543396136e-03
2.08916666666667e-01 6.74931455642719e-01 2.46446719841370e-03
2.27083333333333e-01 6.65279699401296e-01 2.53291787351665e-03
2.45250000000000e-01 6.55765966641232e-01 2.59486532438709e-03
2.63416666666667e-01 6.46388283617470e-01 2.65097928649341e-03
2.81583333333333e-01 6.37144704734565e-01 2.70182362718995e-03
2.99750000000000e-01 6.28033312257008e-01 2.74787935254688e-03
3.17916666666667e-01 6.19052215903259e-01 2.78956145760285e-03
3.36083333333333e-01 6.10199552364379e-01 2.82723150789498e-03
3.54250000000000e-01 6.01473485006624e-01 2.86120722599384e-03
3.72416666666667e-01 5.92872203484721e-01 2.89176993775944e-03
3.90583333333333e-01 5.84393923294177e-01 2.91917041289910e-03
4.08750000000000e-01 5.76036885473247e-01 2.94363351856893e-03
4.26916666666667e-01 5.67799356233800e-01 2.96536198806814e-03
4.45083333333333e-01 5.59679626541861e-01 2.98453947872379e-03
4.63250000000000e-01 5.51676011822934e-01 3.00133308828347e-03
4.81416666666667e-01 5.43786851609274e-01 3.01589545899421e-03
4.99583333333333e-01 5.36010509144948e-01 3.02836652639704e-03
5.17750000000000e-01 5.28345371096862e-01 3.03887499407961e-03
5.35916666666667e-01 5.20789847217482e-01 3.04753959930716e-03
5.54083333333333e-01 5.13342369971715e-01 3.05447018317746e-03
5.72250000000000e-01 5.06001394255052e-01 3.05976861056010e-03
5.90416666666667e-01 4.98765397070925e-01 3.06352957741166e-03
6.08583333333333e-01 4.91632877177329e-01 3.06584130166343e-03
6.26750000000000e-01 4.84602354812930e-01 3.06678612637873e-03
6.44916666666667e-01 4.77672371388338e-01 3.06644105976740e-03
6.63083333333333e-01 4.70841489150804e-01 3.06487824100914e-03
6.81250000000000e-01 4.64108290918782e-01 3.06216535212542e-03
6.99416666666667e-01 4.57471379786460e-01 3.05836599365777e-03
7.17583333333333e-01 4.50929378805157e-01 3.05354001021771e-03
7.35750000000000e-01 4.44480930726592e-01 3.04774378140532e-03
7.53916666666667e-01 4.38124697720063e-01 3.04103049192951e-03
7.72083333333333e-01 4.31859361069373e-01 3.03345036608114e-03
7.90250000000000e-01 4.25683620924902e-01 3.02505087915789e-03
8.08416666666667e-01 4.19596196032869e-01 3.01587695722291e-03
8.26583333333333e-01 4.13595823446764e-01 3.00597115036001e-03
8.44750000000000e-01 4.07681258288215e-01 2.99537379010768e-03
8.62916666666667e-01 4.01851273487792e-01 2.98412314080386e-03
8.81083333333333e-01 3.96104659510056e-01 2.97225553045148e-03
8.99250000000000e-01 3.90440224123123e-01 2.95980547042990e-03
9.17416666666667e-01 3.84856792150509e-01 2.94680577259641e-03
9.35583333333333e-01 3.79353205208993e-01 2.93328765003350e-03
9.53750000000000e-01 3.73928321486736e-01 2.91928080974683e-03
9.71916666666667e-01 3.68581015505686e-01 2.90481354495420e-03
9.90083333333333e-01 3.63310177871530e-01 2.88991281394503e-03
1.00825000000000e+00 3.58114715060186e-01 2.87460431105415e-03
1.02641666666667e+00 3.52993549204805e-01 2.85891254843807e-03
1.04458333333333e+00 3.47945617798977e-01 2.84286091081448e-03
1.06275000000000e+00 3.42969873565013e-01 2.82647170394725e-03
1.08091666666667e+00 3.38065284246735e-01 2.80976624185200e-03
1.09908333333333e+00 3.33230832259117e-01 2.79276488183858e-03
1.11725000000000e+00 3.28465514614298e-01 2.77548705450820e-03
1.13541666666667e+00 3.23768342708542e-01 2.75795134651421e-03
1.15358333333333e+00 3.19138341993081e-01 2.74017552522394e-03
1.17175000000000e+00 3.14574551896846e-01 2.72217656121974e-03
1.18991666666667e+00 3.10076025622748e-01 2.70397070058966e-03
1.20808333333333e+00 3.05641829837977e-01 2.68557348335209e-03
1.22625000000000e+00 3.01271044594436e-01 2.66699976025630e-03
1.24441666666667e+00 2.96962763133900e-01 2.64826375651735e-03
1.26258333333333e+00 2.92716091596242e-01 2.62937908546952e-03
1.28075000000000e+00 2.88530148938377e-01 2.61035876099237e-03
1.29891666666667e+00 2.84404066747887e-01 2.59121525415593e-03
1.31708333333333e+00 2.80336988967808e-01 2.57196050319491e-03
1.33525000000000e+00 2.76328071814765e-01 2.55260592255299e-03
1.35341666666667e+00 2.72376483600651e-01 2.53316245357801e-03
1.37158333333333e+00 2.68481404472792e-01 2.51364057164080e-03
1.38975000000000e+00 2.64642026331787e-01 2.49405029254963e-03
1.40791666666667e+00 2.60857552660906e-01 2.47440121819421e-03
1.42608333333333e+00 2.57127198280519e-01 2.45470254143711e-03
1.44425000000000e+00 2.53450189266115e-01 2.43496305047330e-03
1.46241666666667e+00 2.49825762785052e-01 2.41519117014250e-03
1.48058333333333e+00 2.46253166864281e-01 2.39539496507679e-03
1.49875000000000e+00 2.42731660308909e-01 2.37558214244831e-03
1.51691666666667e+00 2.39260512545977e-01 2.35576008953287e-03
1.53508333333333e+00 2.35839003404589e-01 2.33593587548873e-03
1.55325000000000e+00 2.32466423035320e-01 2.31611625283827e-03
1.57141666666667e+00 2.29142071760713e-01 2.29630769175995e-03
1.58958333333333e+00 2.25865259867003e-01 2.27651638079211e-03
1.60775000000000e+00 2.22635307524620e-01 2.25674822731875e-03
1.62591666666667e+00 2.19451544645108e-01 2.23700888898561e-03
1.64408333333333e+00 2.16313310683703e-01 2.21730377355987e-03
1.66225000000000e+00 2.13219954561140e-01 2.19763803863391e-03
1.68041666666667e+00 2.10170834526702e-01 2.17801662049643e-03
1.69858333333333e+00 2.07165317970984e-01 2.15844423333069e-03
1.71675000000000e+00 2.04202781349165e-01 2.13892536830611e-03
1.73491666666667e+00 2.01282610049913e-01 2.11946432018358e-03
1.75308333333333e+00 1.98404198217722e-01 2.10006518599804e-03
1.77125000000000e+00 1.95566948677768e-01 2.08073186367323e-03
1.78941666666667e+00 1.92770272810425e-01 2.06146807659873e-03
1.80758333333333e+00 1.90013590382596e-01 2.04227737191368e-03
1.82575000000000e+00 1.87296329474255e-01 2.02316311875286e-03
1.84391666666667e+00 1.84617926358330e-01 2.00412853099978e-03
1.86208333333333e+00 1.81977825340500e-01 1.98517666526502e-03
1.88025000000000e+00 1.79375478687499e-01 1.96631041885053e-03
1.89841666666667e+00 1.76810346512140e-01 1.94753255085535e-03
1.91658333333333e+00 1.74281896621073e-01 1.92884567992374e-03
1.93475000000000e+00 1.71789604444929e-01 1.91025228199824e-03
1.95291666666667e+00 1.69332952928237e-01 1.89175470993130e-03
1.97108333333333e+00 1.66911432384721e-01 1.87335519106413e-03
1.98925000000000e+00 1.64524540429291e-01 1.85505582482516e-03
2.00741666666667e+00 1.62171781872668e-01 1.83685860098189e-03
2.02558333333333e+00 1.59852668583776e-01 1.81876539709986e-03
2.04375000000000e+00 1.57566719423624e-01 1.80077797603221e-03
2.06191666666667e+00 1.55313460144422e-01 1.78289800293050e-03
2.08008333333333e+00 1.53092423258685e-01 1.76512704262308e-03
2.09825000000000e+00 1.50903147975015e-01 1.74746655703301e-03
2.11641666666667e+00 1.48745180101514e-01 1.72991792105280e-03
2.13458333333333e+00 1.46618071921233e-01 1.71248241987456e-03
2.15275000000000e+00 1.44521382129856e-01 1.69516124636607e-03
2.17091666666667e+00 1.42454675743228e-01 1.67795551590255e-03
2.18908333333333e+00 1.40417523978809e-01 1.66086626367462e-03
2.20725000000000e+00 1.38409504195246e-01 1.64389444204713e-03
2.22541666666667e+00 1.36430199803847e-01 1.62704093443106e-03
2.24358333333333e+00 1.34479200155710e-01 1.61030655259024e-03
2.26175000000000e+00 1.32556100483184e-01 1.59369203400269e-03
2.27991666666667e+00 1.30660501815103e-01 1.57719805484733e-03
2.29808333333333e+00 1.28792010869307e-01 1.56082522732619e-03
2.31625000000000e+00 1.26950239995956e-01 1.54457409704392e-03
2.33441666666667e+00 1.25134807096379e-01 1.52844515517703e-03
2.35258333333333e+00 1.23345335520689e-01 1.51243883582495e-03
2.37075000000000e+00 1.21581454012940e-01 1.49655551342012e-03
2.38891666666667e+00 1.19842796633423e-01 1.48079551414041e-03
2.40708333333333e+00 1.18129002661122e-01 1.46515911330016e-03
2.42525000000000e+00 1.16439716540681e-01 1.44964653280075e-03
2.44341666666667e+00 1.14774587807997e-01 1.43425795184149e-03
2.46158333333333e+00 1.13133270997272e-01 1.41899350435861e-03
2.47975000000000e+00 1.11515425589754e-01 1.40385327652452e-03
2.49791666666667e+00 1.09920715942488e-01 1.38883731680709e-03
2.51608333333333e+00 1.08348811199732e-01 1.37394563346339e-03
2.53425000000000e+00 1.06799385243429e-01 1.35917819209351e-03
2.55241666666667e+00 1.05272116624996e-01 1.34453492509413e-03
2.57058333333333e+00 1.03766688480865e-01 1.33001572921202e-03
2.58875000000000e+00 1.02282788484667e-01 1.31562046315692e-03
2.60691666666667e+00 1.00820108781908e-01 1.30134895649122e-03
2.62508333333333e+00 9.93783459094544e-02 1.28720100724685e-03
2.64325000000000e+00 9.79572007493622e-02 1.27317637960077e-03
2.66141666666667e+00 9.65563784663421e-02 1.25927481223907e-03
2.67958333333333e+00 9.51755884309681e-02 1.24549601603988e-03
2.69775000000000e+00 9.38145441751357e-02 1.23183967181383e-03
2.71591666666667e+00 9.24729633321780e-02 1.21830543817776e-03
2.73408333333333e+00 9.11505675636263e-02 1.20489294930549e-03
2.75225000000000e+00 8.98470825162467e-02 1.19160181273488e-03
2.77041666666667e+00 8.85622377646991e-02 1.17843161678335e-03
2.78858333333333e+00 8.72957667416735e-02 1.16538192836758e-03
2.80675000000000e+00 8.60474066964633e-02 1.15245229087820e-03
2.82491666666667e+00 8.48168986400583e-02 1.13964223116696e-03
2.84308333333333e+00 8.36039872784922e-02 1.12695125743587e-03
2.86125000000000e+00 8.24084209729090e-02 1.11437885717968e-03
2.87941666666667e+00 8.12299516869875e-02 1.10192450377239e-03
2.89758333333333e+00 8.00683349233432e-02 1.08958765442566e-03
2.91575000000000e+00 7.89233296850455e-02 1.07736774819919e-03
2.93391666666667e+00 7.77946984252742e-02 1.06526421221192e-03
2.95208333333333e+00 7.66822069866275e-02 1.05327645966935e-03
2.97025000000000e+00 7.55856245640486e-02 1.04140388794135e-03
2.98841666666667e+00 7.45047236566177e-02 1.02964588442159e-03
3.00658333333333e+00 7.34392800096275e-02 1.01800182462304e-03
3.02475000000000e+00 7.23890725788759e-02 1.00647107032240e-03
3.04291666666667e+00 7.13538834845025e-02 9.95052975089766e-04
3.06108333333333e+00 7.03334979557001e-02 9.83746882451251e-04
3.07925000000000e+00 6.93277042963297e-02 9.72552124099014e-04
3.09741666666667e+00 6.83362938407165e-02 9.61468025111375e-04
3.11558333333333e+00 6.73590609008695e-02 9.50493902181526e-04
3.13375000000000e+00 6.63958027333794e-02 9.39629061891868e-04
3.15191666666667e+00 6.54463194970885e-02 9.28872805643491e-04
3.17008333333333e+00 6.45104142027016e-02 9.18224427949545e-04
3.18825000000000e+00 6.35878926809235e-02 9.07683214772605e-04
3.20641666666667e+00 6.26785635419251e-02 8.97248448181003e-04
3.22458333333333e+00 6.17822381272306e-02 8.86919404705439e-04
3.24275000000000e+00 6.08987304790559e-02 8.76695353737893e-04
3.26091666666667e+00 6.00278573014933e-02 8.66575561931240e-04
3.27908333333333e+00 5.91694379145685e-02 8.56559291617337e-04
3.29725000000000e+00 5.83232942247400e-02 8.46645799265971e-04
3.31541666666667e+00 5.74892506877287e-02 8.36834339643104e-04
3.33358333333333e+00 5.66671342646444e-02 8.27124164288775e-04
3.35175000000000e+00 5.58567743936051e-02 8.17514520034460e-04
3.36991666666667e+00 5.50580029541438e-02 8.08004652934077e-04
3.38808333333333e+00 5.42706542253059e-02 7.98593806800117e-04
3.40625000000000e+00 5.34945648583519e-02 7.89281221777706e-04
3.42441666666667e+00 5.27295738426730e-02 7.80066138061701e-04
3.44258333333333e+00 5.19755224657683e-02 7.70947794489276e-04
3.46075000000000e+00 5.12322542869936e-02 7.61925427168954e-04
3.47891666666667e+00 5.04996151049219e-02 7.52998272996309e-04
3.49708333333333e+00 4.97774529191125e-02 7.44165568301244e-04
3.51525000000000e+00 4.90656179048699e-02 7.35426547530305e-04
3.53341666666667e+00 4.83639623819875e-02 7.26780446572536e-04
3.55158333333333e+00 4.76723407782265e-02 7.18226501459754e-04
3.56975000000000e+00 4.69906096050484e-02 7.09763947100414e-04
3.58791666666667e+00 4.63186274276838e-02 7.01392020426561e-04
3.60608333333333e+00 4.56562548302418e-02 6.93109959145303e-04
3.62425000000000e+00 4.50033543923819e-02 6.84917000522516e-04
3.64241666666667e+00 4.43597906606516e-02 6.76812384361134e-04
3.66058333333333e+00 4.37254301151506e-02 6.68795351802078e-04
3.67875000000000e+00 4.31001411471099e-02 6.60865144156150e-04
3.69691666666667e+00 4.24837940314425e-02 6.53021005723166e-04
3.71508333333333e+00 4.18762608948932e-02 6.45262182640618e-04
3.73325000000000e+00 4.12774156944898e-02 6.37587921762094e-04
3.75141666666667e+00 4.06871341912578e-02 6.29997473326296e-04
3.76958333333333e+00 4.01052939197858e-02 6.22490089851797e-04
3.78775000000000e+00 3.95317741675183e-02 6.15065025060253e-04
3.80591666666667e+00 3.89664559495846e-02 6.07721536403701e-04
3.82408333333333e+00 3.84092219797151e-02 6.00458884003776e-04
3.84225000000000e+00 3.78599566503453e-02 5.93276329618155e-04
3.86041666666667e+00 3.73185460085112e-02 5.86173139034068e-04
3.87858333333333e+00 3.67848777280552e-02 5.79148581050307e-04
3.89675000000000e+00 3.62588410905113e-02 5.72201926485308e-04
3.91491666666667e+00 3.57403269620218e-02 5.65332450444392e-04
3.93308333333333e+00 3.52292277667743e-02 5.58539431342921e-04
3.95125000000000e+00 3.47254374686390e-02 5.51822149954531e-04
3.96941666666667e+00 3.42288515490636e-02 5.45179891559013e-04
3.98758333333333e+00 3.37393669816850e-02 5.38611945005144e-04
4.00575000000000e+00 3.32568822146918e-02 5.32117601797556e-04
4.02391666666667e+00 3.27812971496543e-02 5.25696158131837e-04
4.04208333333333e+00 3.23125131172597e-02 5.19346913995521e-04
4.06025000000000e+00 3.18504328603705e-02 5.13069172292146e-04
4.07841666666667e+00 3.13949605137522e-02 5.06862240769805e-04
4.09658333333333e+00 3.09460015808791e-02 5.00725431158822e-04
4.11475000000000e+00 3.05034629176640e-02 4.94658058331512e-04
4.13291666666667e+00 3.00672527130446e-02 4.88659442130029e-04
4.15108333333333e+00 2.96372804668122e-02 4.82728906539350e-04
4.16925000000000e+00 2.92134569739872e-02 4.76865778881414e-04
4.18741666666667e+00 2.87956943062275e-02 4.71069391547697e-04
4.20558333333333e+00 2.83839057906343e-02 4.65339081206120e-04
4.22375000000000e+00 2.79780059947487e-02 4.59674188028222e-04
4.24191666666667e+00 2.75779107087479e-02 4.54074057331672e-04
4.26008333333333e+00 2.71835369251833e-02 4.48538038819764e-04
4.27825000000000e+00 2.67948028245750e-02 4.43065485840341e-04
4.29641666666667e+00 2.64116277583624e-02 4.37655756943113e-04
4.31458333333333e+00 2.60339322295324e-02 4.32308215150459e-04
4.33275000000000e+00 2.56616378787899e-02 4.27022227246838e-04
4.35091666666667e+00 2.52946674682294e-02 4.21797165255496e-04
4.36908333333333e+00 2.49329448628150e-02 4.16632405739371e-04
4.38725000000000e+00 2.45763950171031e-02 4.11527329119778e-04
4.40541666666667e+00 2.42249439596060e-02 4.06481321076820e-04
4.42358333333333e+00 2.38785187750847e-02 4.01493771879211e-04
4.44175000000000e+00 2.35370475918029e-02 3.96564075731071e-04
4.45991666666667e+00 2.32004595665528e-02 3.91691632100160e-04
4.47808333333333e+00 2.28686848677248e-02 3.86875845075394e-04
4.49625000000000e+00 2.25416546630725e-02 3.82116122740664e-04
4.51441666666667e+00 2.22193011053722e-02 3.77411878434741e-04
4.53258333333333e+00 2.19015573162349e-02 3.72762530135396e-04
4.55075000000000e+00 2.15883573743624e-02 3.68167499859148e-04
4.56891666666667e+00 2.12796363018144e-02 3.63626214856468e-04
4.58708333333333e+00 2.09753300485287e-02 3.59138107021441e-04
4.60525000000000e+00 2.06753754810501e-02 3.54702612316383e-04
4.62341666666667e+00 2.03797103693786e-02 3.50319171905781e-04
4.64158333333333e+00 2.00882733721671e-02 3.45987231590489e-04
4.65975000000000e+00 1.98010040259042e-02 3.41706241256214e-04
4.67791666666667e+00 1.95178427323189e-02 3.37475655949410e-04
4.69608333333333e+00 1.92387307442261e-02 3.33294935335008e-04
4.71425000000000e+00 1.89636101551448e-02 3.29163543167799e-04
4.73241666666667e+00 1.86924238872366e-02 3.25080948313371e-04
4.75058333333333e+00 1.84251156777694e-02 3.21046624228419e-04
4.76875000000000e+00 1.81616300691545e-02 3.17060048454089e-04
4.78691666666667e+00 1.79019123973964e-02 3.13120703584852e-04
4.80508333333333e+00 1.76459087791469e-02 3.09228076770439e-04
4.82325000000000e+00 1.73935661021449e-02 3.05381659230283e-04
4.84141666666667e+00 1.71448320141554e-02 3.01580947173065e-04
4.85958333333333e+00 1.68996549105883e-02 2.97825441319403e-04
4.87775000000000e+00 1.66579839253254e-02 2.94114646436497e-04
4.89591666666667e+00 1.64197689201271e-02 2.90448072210943e-04
4.91408333333333e+00 1.61849604727913e-02 2.86825232791328e-04
4.93225000000000e+00 1.59535098683520e-02 2.83245646342262e-04
4.95041666666667e+00 1.57253690889344e-02 2.79708835872896e-04
4.96858333333333e+00 1.55004908024301e-02 2.76214328798591e-04
4.98675000000000e+00 1.52788283540519e-02 2.72761656513556e-04
5.00491666666667e+00 1.50603357566191e-02 2.69350355177361e-04
5.02308333333333e+00 1.48449676797253e-02 2.65979965294935e-04
5.04125000000000e+00 1.46326794416365e-02 2.62650031307039e-04
5.05941666666667e+00 1.44234269999872e-02 2.59360102336945e-04
5.07758333333333e+00 1.42171669414198e-02 2.56109731787973e-04
5.09575000000000e+00 1.40138564738120e-02 2.52898476951066e-04
5.11391666666667e+00 1.38134534173667e-02 2.49725899713755e-04
5.13208333333333e+00 1.36159161947020e-02 2.46591566174523e-04
5.15025000000000e+00 1.34212038233948e-02 2.43495046266741e-04
5.16841666666667e+00 1.32292759074476e-02 2.40435914431872e-04
5.18658333333333e+00 1.30400926278097e-02 2.37413749249941e-04
5.20475000000000e+00 1.28536147352242e-02 2.34428133079212e-04
5.22291666666667e+00 1.26698035420557e-02 2.31478652695426e-04
5.24108333333333e+00 1.24886209132238e-02 2.28564898937763e-04
5.25925000000000e+00 1.23100292593412e-02 2.25686466363571e-04
5.27741666666667e+00 1.21339915288877e-02 2.22842953855422e-04
5.29558333333333e+00 1.19604711995369e-02 2.20033964281876e-04
5.31375000000000e+00 1.17894322715745e-02 2.17259104166672e-04
5.33191666666667e+00 1.16208392604034e-02 2.14517984265252e-04
5.35008333333333e+00 1.14546571882471e-02 2.11810219239742e-04
5.36825000000000e+00 1.12908515778361e-02 2.09135427341978e-04
5.38641666666667e+00 1.11293884452309e-02 2.06493230961058e-04
5.40458333333333e+00 1.09702342918848e-02 2.03883256311953e-04
5.42275000000000e+00 1.08133560985884e-02 2.01305133131786e-04
5.44091666666667e+00 1.06587213185961e-02 1.98758495199945e-04
5.45908333333333e+00 1.05062978700336e-02 1.96242980039709e-04
5.47725000000000e+00 1.03560541300896e-02 1.93758228627259e-04
5.49541666666667e+00 1.02079589284331e-02 1.91303885885719e-04
5.51358333333333e+00 1.00619815399502e-02 1.88879600399305e-04
5.53175000000000e+00 9.91809167917322e-03 1.86485024134516e-04
5.54991666666667e+00 9.77625949397681e-03 1.84119812909430e-04
5.56808333333333e+00 9.63645555862916e-03 1.81783626119851e-04
5.58625000000000e+00 9.49865086844944e-03 1.79476126472171e-04
5.60441666666667e+00 9.36281683377049e-03 1.77196980429213e-04
5.62258333333333e+00 9.22892527329106e-03 1.74945857947861e-04
5.64075000000000e+00 9.09694840895200e-03 1.72722432223100e-04
5.65891666666667e+00 8.96685886015455e-03 1.70526380111611e-04
5.67708333333333e+00 8.83862963740029e-03 1.68357381880386e-04
5.69525000000000e+00 8.71223413737736e-03 1.66215120961509e-04
5.71341666666667e+00 8.58764613742344e-03 1.64099284354596e-04
5.73158333333333e+00 8.46483978944090e-03 1.62009562385975e-04
