Energy (eV)          EEDF (eV^-(3/2))     First Anisotropy
5.55000000000000e-03 6.33722186087650e+01 1.20217281886100e-01
1.66500000000000e-02 5.33053027577382e+01 1.83362067675208e-01
2.77500000000000e-02 4.48375544437880e+01 2.04985008791299e-01
3.88500000000000e-02 3.77149398744913e+01 2.05568357545107e-01
4.99500000000000e-02 3.17237794831062e+01 1.96669389759029e-01
6.10500000000000e-02 2.66843375076790e+01 1.83170500018104e-01
7.21500000000000e-02 2.24454298896799e+01 1.67643843264990e-01
8.32500000000000e-02 1.88798887282683e+01 1.51556394568390e-01
9.43500000000000e-02 1.58807472230988e+01 1.35764298947225e-01
1.05450000000000e-01 1.33580306533455e+01 1.20759748074388e-01
1.16550000000000e-01 1.12360571218071e+01 1.06809187331087e-01
1.27650000000000e-01 9.45116708598758e+00 9.40363916299913e-02
1.38750000000000e-01 7.94981356172465e+00 8.24747338220961e-02
1.49850000000000e-01 6.68695570517229e+00 7.21010413268068e-02
1.60950000000000e-01 5.62470758034175e+00 6.28579118453816e-02
1.72050000000000e-01 4.73120157501309e+00 5.46685444067427e-02
1.83150000000000e-01 3.97963236731434e+00 4.74465978392345e-02
1.94250000000000e-01 3.34745276181392e+00 4.11026904610811e-02
2.05350000000000e-01 2.81569727008167e+00 3.55486071391489e-02
2.16450000000000e-01 2.36841314302797e+00 3.06999332009665e-02
2.27550000000000e-01 1.99218178590092e+00 2.64776085056750e-02
2.38650000000000e-01 1.67571619831553e+00 2.28087437874529e-02
2.49750000000000e-01 1.40952236245207e+00 1.96269383448330e-02
2.60850000000000e-01 1.18561442101569e+00 1.68722668457177e-02
2.71950000000000e-01 9.97275100250960e-01 1.44910530895568e-02
2.83050000000000e-01 8.38854190663900e-01 1.24355132968380e-02
2.94150000000000e-01 7.05599039840972e-01 1.06633264239927e-02
3.05250000000000e-01 5.93511972122914e-01 9.13717111227534e-03
3.16350000000000e-01 4.99230357700915e-01 7.82425609602885e-03
3.27450000000000e-01 4.19925733189033e-01 6.69586176982861e-03
3.38550000000000e-01 3.53218947274014e-01 5.72690412162049e-03
3.49650000000000e-01 2.97108785798558e-01 4.89552764983661e-03
3.60750000000000e-01 2.49911935019199e-01 4.18273067135978e-03
3.71850000000000e-01 2.10212481927027e-01 3.57202421393672e-03
3.82950000000000e-01 1.76819436632852e-01 3.04912419466900e-03
3.94050000000000e-01 1.48731002481635e-01 2.60167561366416e-03
4.05150000000000e-01 1.25104521993947e-01 2.21900689112732e-03
4.16250000000000e-01 1.05231197007945e-01 1.89191213898885e-03
4.27350000000000e-01 8.85148246220920e-02 1.61245900547765e-03
4.38450000000000e-01 7.44539110135579e-02 1.37381970508482e-03
4.49550000000000e-01 6.26266265439931e-02 1.17012290509107e-03
4.60650000000000e-01 5.26781508034759e-02 9.96324252847202e-04
4.71750000000000e-01 4.43100279419396e-02 8.48093473491465e-04
4.82850000000000e-01 3.72712129463344e-02 7.21716130286871e-04
4.93950000000000e-01 3.13505402504198e-02 6.14008308465974e-04
5.05050000000000e-01 2.63703887342861e-02 5.22242651004373e-04
5.16150000000000e-01 2.21813530625856e-02 4.44084336235832e-04
5.27250000000000e-01 1.86577615007765e-02 3.77535739612221e-04
5.38350000000000e-01 1.56939057431549e-02 3.20888663443245e-04
5.49450000000000e-01 1.32008696469178e-02 2.72683148288710e-04
5.60550000000000e-01 1.11038617337766e-02 2.31671997625168e-04
5.71650000000000e-01 9.33997143374685e-03 1.96790253708611e-04
5.82750000000000e-01 7.85628175807061e-03 1.67128957727839e-04
5.93850000000000e-01 6.60828178116095e-03 1.41912612084614e-04
6.04950000000000e-01 5.55853130577490e-03 1.20479837736885e-04
6.16050000000000e-01 4.67553765115802e-03 1.02266785829336e-04
6.27150000000000e-01 3.93281086762697e-03 8.67929211409981e-05
6.38250000000000e-01 3.30806903387763e-03 7.36488460072963e-05
6.49350000000000e-01 2.78256979581202e-03 6.24858780866949e-05
6.60450000000000e-01 2.34054809294278e-03 5.30071343514324e-05
6.71550000000000e-01 1.96874320407817e-03 4.49599076427736e-05
6.82650000000000e-01 1.65600092358312e-03 3.81291516404852e-05
6.93750000000000e-01 1.39293893344115e-03 3.23319156931979e-05
7.04850000000000e-01 1.17166533222576e-03 2.74125931249650e-05
7.15950000000000e-01 9.85541876805962e-04 2.32388658055458e-05
7.27050000000000e-01 8.28984833999570e-04 1.96982443312526e-05
7.38150000000000e-01 6.97297467692077e-04 1.66951174486990e-05
7.49250000000000e-01 5.86529136008338e-04 1.41482366642502e-05
7.60350000000000e-01 4.93356771429726e-04 1.19885725797672e-05
7.71450000000000e-01 4.14985188241532e-04 1.01574886101465e-05
7.82550000000000e-01 3.49063226518195e-04 8.60518557090185e-06
7.93650000000000e-01 2.93613216952639e-04 7.28937734957704e-06
8.04750000000000e-01 2.46971650463398e-04 6.17416364531873e-06
8.15850000000000e-01 2.07739272658333e-04 5.22907070862310e-06
8.26950000000000e-01 1.74739105980948e-04 4.42823525267429e-06
8.38050000000000e-01 1.46981140197018e-04 3.74971033798631e-06
8.49150000000000e-01 1.23632631930548e-04 3.17487513897600e-06
8.60250000000000e-01 1.03993122230415e-04 2.68793315865169e-06
8.71350000000000e-01 8.74734226907443e-05 2.27548572963645e-06
8.82450000000000e-01 7.35779397052833e-05 1.92616958125031e-06
8.93550000000000e-01 6.18898065806123e-05 1.63034891068464e-06
9.04650000000000e-01 5.20583774692262e-05 1.37985381211373e-06
9.15750000000000e-01 4.37887079384959e-05 1.16775812587397e-06
9.26850000000000e-01 3.68327065909109e-05 9.88190800619143e-07
9.37950000000000e-01 3.09816922828057e-05 8.36175740386842e-07
9.49050000000000e-01 2.60601336569528e-05 7.07495857866182e-07
9.60150000000000e-01 2.19203831740059e-05 5.98577693755635e-07
9.71250000000000e-01 1.84382476629027e-05 5.06393506141601e-07
9.82350000000000e-01 1.55092625060353e-05 4.28378197173033e-07
9.93450000000000e-01 1.30455576841538e-05 3.62358838811504e-07
1.00455000000000e+00 1.09732216618526e-05 3.06494895234523e-07
1.01565000000000e+00 9.23008402978533e-06 2.59227525223245e-07
1.02675000000000e+00 7.76385038252428e-06 2.19236590970832e-07
1.03785000000000e+00 6.53053347810360e-06 1.85404206519699e-07
1.04895000000000e+00 5.49313361378375e-06 1.56783834863939e-07
1.06005000000000e+00 4.62052862910110e-06 1.32574092234862e-07
1.07115000000000e+00 3.88654023611801e-06 1.12096545143277e-07
1.08225000000000e+00 3.26914866663274e-06 9.47768937241663e-08
1.09335000000000e+00 2.74983207564099e-06 8.01290266657722e-08
1.10445000000000e+00 2.31301088304820e-06 6.77415109323856e-08
1.11555000000000e+00 1.94558038379573e-06 5.72661456747123e-08
1.12665000000000e+00 1.63651760463069e-06 4.84082659231521e-08
1.13775000000000e+00 1.37655061316004e-06 4.09185293752738e-08
1.14885000000000e+00 1.15788035840830e-06 3.45859600937053e-08
1.15995000000000e+00 9.73946698051322e-07 2.92320573088365e-08
1.17105000000000e+00 8.19231593106080e-07 2.47058066943829e-08
1.18215000000000e+00 6.89093565886046e-07 2.08794562371978e-08
1.19325000000000e+00 5.79628454934428e-07 1.76449398224781e-08
1.20435000000000e+00 4.87552289561256e-07 1.49108494683714e-08
1.21545000000000e+00 4.10102770201842e-07 1.25998722515712e-08
1.22655000000000e+00 3.44956398991733e-07 1.06466207769425e-08
1.23765000000000e+00 2.90158774462257e-07 8.99579690716029e-09
1.24875000000000e+00 2.44065959186502e-07 7.60063767797913e-09
1.25985000000000e+00 2.05295161395768e-07 6.42160013177683e-09
1.27095000000000e+00 1.72683251007195e-07 5.42524841927926e-09
1.28205000000000e+00 1.45251865536800e-07 4.58331212755611e-09
1.29315000000000e+00 1.22178059069792e-07 3.87188954483673e-09
1.30425000000000e+00 1.02769613752600e-07 3.27077359957221e-09
1.31535000000000e+00 8.64442731474841e-08 2.76288162289077e-09
1.32645000000000e+00 7.27122744470548e-08 2.33377297383929e-09
1.33755000000000e+00 6.11616555123720e-08 1.97124101504117e-09
1.34865000000000e+00 5.14458959434405e-08 1.66496800003011e-09
1.35975000000000e+00 4.32735214122503e-08 1.40623318969532e-09
1.37085000000000e+00 3.63993593867082e-08 1.18766600246250e-09
1.38195000000000e+00 3.06171839157900e-08 1.00303726212419e-09
1.39305000000000e+00 2.57535288183016e-08 8.47082673456528e-10
1.40415000000000e+00 2.16624836699316e-08 7.15353558439493e-10
1.41525000000000e+00 1.82213164673796e-08 6.04090650058605e-10
1.42635000000000e+00 1.53267916487919e-08 5.10117387511795e-10
1.43745000000000e+00 1.28920730105325e-08 4.30749704143700e-10
1.44855000000000e+00 1.08441186073018e-08 3.63719762804600e-10
1.45965000000000e+00 9.12148948219236e-09 3.07111485478962e-10
1.47075000000000e+00 7.67250648823806e-09 2.59306055873871e-10
1.48185000000000e+00 6.45369990580817e-09 2.18935854453599e-10
1.49295000000000e+00 5.42850534412427e-09 1.84845522990066e-10
1.50405000000000e+00 4.56616680373759e-09 1.56059056706395e-10
1.51515000000000e+00 3.84081399166767e-09 1.31751992141968e-10
1.52625000000000e+00 3.23068620850975e-09 1.11227902720408e-10
1.53735000000000e+00 2.71747952400144e-09 9.38985356852698e-11
1.54845000000000e+00 2.28579765621172e-09 7.92670269921306e-11
1.55955000000000e+00 1.92269008064114e-09 6.69137177971181e-11
1.57065000000000e+00 1.61726351243289e-09 5.64841698041253e-11
1.58175000000000e+00 1.36035510609937e-09 4.76790389941087e-11
1.59285000000000e+00 1.14425756870429e-09 4.02455199101764e-11
1.60395000000000e+00 9.62487939852235e-10 3.39701171927220e-11
1.61505000000000e+00 8.09593101848563e-10 2.86725387029366e-11
1.62615000000000e+00 6.80986185303686e-10 2.42005364010471e-11
1.63725000000000e+00 5.72808962323905e-10 2.04255480547698e-11
1.64835000000000e+00 4.81816099062667e-10 1.72390156027693e-11
1.65945000000000e+00 4.05277795190456e-10 1.45492752294620e-11
1.67055000000000e+00 3.40897889451956e-10 1.22789304644659e-11
1.68165000000000e+00 2.86744974464208e-10 1.03626333617911e-11
1.69275000000000e+00 2.41194454188803e-10 8.74521042907173e-12
1.70385000000000e+00 2.02879805793060e-10 7.38007979440551e-12
1.71495000000000e+00 1.70651583748315e-10 6.22791439560950e-12
1.72605000000000e+00 1.43542936281756e-10 5.25551298896916e-12
1.73715000000000e+00 1.20740599669892e-10 4.43484670057995e-12
1.74825000000000e+00 1.01560500197863e-10 3.74225385121655e-12
1.75935000000000e+00 8.54272318394994e-11 3.15776001739642e-12
1.77045000000000e+00 7.18567939852778e-11 2.66450386706364e-12
1.78155000000000e+00 6.04420713472684e-11 2.24825232966642e-12
1.79265000000000e+00 5.08406204359293e-11 1.89699121319564e-12
1.80375000000000e+00 4.27643962011082e-11 1.60057953757003e-12
1.81485000000000e+00 3.59711106348526e-11 1.35045767594885e-12
1.82595000000000e+00 3.02569640927439e-11 1.13940093498046e-12
1.83705000000000e+00 2.54505312722420e-11 9.61311505488123e-13
1.84815000000000e+00 2.14076184264205e-11 8.11042813695572e-13
1.85925000000000e+00 1.80069375286895e-11 6.84251231114430e-13
1.87035000000000e+00 1.51464676127611e-11 5.77270885111407e-13
1.88145000000000e+00 1.27403941274803e-11 4.87007974305007e-13
1.89255000000000e+00 1.07165344866799e-11 4.10851552204099e-13
1.90365000000000e+00 9.01417258014710e-12 3.46598214859830e-13
1.91475000000000e+00 7.58223728068732e-12 2.92388527248602e-13
1.92585000000000e+00 6.37777030220854e-12 2.46653360035923e-13
1.93695000000000e+00 5.36463744432513e-12 2.08068592919337e-13
1.94805000000000e+00 4.51244456061539e-12 1.75516881050098e-13
1.95915000000000e+00 3.79562572940826e-12 1.48055383961660e-13
1.97025000000000e+00 3.19267627207839e-12 1.24888527795718e-13
1.98135000000000e+00 2.68550760927671e-12 1.05345016319093e-13
1.99245000000000e+00 2.25890460068106e-12 8.88584284112851e-14
2.00355000000000e+00 1.90006908837334e-12 7.49508428735624e-14
2.01465000000000e+00 1.59823595007217e-12 6.32190185227716e-14
2.02575000000000e+00 1.34435014375708e-12 5.33227310841364e-14
2.03685000000000e+00 1.13079505497175e-12 4.49749304965708e-14
2.04795000000000e+00 9.51163997182288e-13 3.79334346730365e-14
2.05905000000000e+00 8.00068010165101e-13 3.19939200219095e-14
2.07015000000000e+00 6.72974190345506e-13 2.69840064039262e-14
2.08125000000000e+00 5.66069702971539e-13 2.27582657462143e-14
2.09235000000000e+00 4.76147396466683e-13 1.91940101664489e-14
2.10345000000000e+00 4.00509587373905e-13 1.61877379416027e-14
2.11455000000000e+00 3.36887129424092e-13 1.36521346333380e-14
2.12565000000000e+00 2.83371338788080e-13 1.15135427015030e-14
2.13675000000000e+00 2.38356733259060e-13 9.70982645922615e-15
2.14785000000000e+00 2.00492867531742e-13 8.18857063680668e-15
2.15895000000000e+00 1.68643819629008e-13 6.90556045546868e-15
2.17005000000000e+00 1.41854113062444e-13 5.82349924343911e-15
2.18115000000000e+00 1.19320052386145e-13 4.91092648988241e-15
2.19225000000000e+00 1.00365612205866e-13 4.14130502467876e-15
2.20335000000000e+00 8.44221563099807e-14 3.49225090076732e-15
2.21445000000000e+00 7.10113784929445e-14 3.19896772348529e-15
