Energy (eV)          EEDF (eV^-(3/2))     First Anisotropy
2.60000000000000e-03 1.97712771522072e+02 1.82701912521956e-01
7.80000000000000e-03 1.66297988478339e+02 2.78661455533811e-01
1.30000000000000e-02 1.39874732214021e+02 3.11508767019398e-01
1.82000000000000e-02 1.17649893970261e+02 3.12381429716854e-01
2.34000000000000e-02 9.89563828442925e+01 2.98845335707552e-01
2.86000000000000e-02 8.32331026843210e+01 2.78321022945896e-01
3.38000000000000e-02 7.00081104759005e+01 2.54717544185855e-01
3.90000000000000e-02 5.88844507094067e+01 2.30264127328194e-01
4.42000000000000e-02 4.95282405392465e+01 2.06261594349828e-01
4.94000000000000e-02 4.16586481042201e+01 1.83457620690704e-01
5.46000000000000e-02 3.50394632027371e+01 1.62256811879133e-01
5.98000000000000e-02 2.94720073120085e+01 1.42846976680532e-01
6.50000000000000e-02 2.47891701414888e+01 1.25278570448783e-01
7.02000000000000e-02 2.08503937243968e+01 1.09516151250104e-01
7.54000000000000e-02 1.75374534920295e+01 9.54722932973916e-02
8.06000000000000e-02 1.47509096974616e+01 8.30301237271098e-02
8.58000000000000e-02 1.24071226761375e+01 7.20583014211661e-02
9.10000000000000e-02 1.04357423547387e+01 6.24208910132090e-02
9.62000000000000e-02 8.77759665453642e+00 5.39837527049359e-02
1.01400000000000e-01 7.38291540848010e+00 4.66185415260794e-02
1.06600000000000e-01 6.20983648190333e+00 4.02050658414074e-02
1.11800000000000e-01 5.22314925722766e+00 3.46325250742587e-02
1.17000000000000e-01 4.39323776765795e+00 2.97999899840735e-02
1.22200000000000e-01 3.69519175743803e+00 2.56163804497557e-02
1.27400000000000e-01 3.10805898664510e+00 2.20001198199067e-02
1.32600000000000e-01 2.61421633803462e+00 1.88785912815119e-02
1.37800000000000e-01 2.19884084935725e+00 1.61874835935653e-02
1.43000000000000e-01 1.84946479388810e+00 1.38700863451350e-02
1.48200000000000e-01 1.55560145466254e+00 1.18765754723037e-02
1.53400000000000e-01 1.30843035982367e+00 1.01633159022142e-02
1.58600000000000e-01 1.10053253124508e+00 8.69219832891046e-03
1.63800000000000e-01 9.25667799768826e-01 7.43002015464323e-03
1.69000000000000e-01 7.78587503051321e-01 6.34791575341087e-03
1.74200000000000e-01 6.54876944038758e-01 5.42083785285919e-03
1.79400000000000e-01 5.50822881375318e-01 4.62708956593669e-03
1.84600000000000e-01 4.63302074394989e-01 3.94790512807745e-03
1.89800000000000e-01 3.89687537312821e-01 3.36707648472421e-03
1.95000000000000e-01 3.27769688782930e-01 2.87062236339927e-03
2.00200000000000e-01 2.75690030083300e-01 2.44649623405676e-03
2.05400000000000e-01 2.31885361241156e-01 2.08432952333017e-03
2.10600000000000e-01 1.95040860714819e-01 1.77520653867036e-03
2.15800000000000e-01 1.64050620292567e-01 1.51146773107408e-03
2.21000000000000e-01 1.37984450641481e-01 1.28653814700676e-03
2.26200000000000e-01 1.16059961156356e-01 1.09477816773436e-03
2.31400000000000e-01 9.76190760697597e-02 9.31353891203420e-04
2.36600000000000e-01 8.21082819412239e-02 7.92124766655290e-04
2.41800000000000e-01 6.90620136429253e-02 6.73546337941820e-04
2.47000000000000e-01 5.80886801629808e-02 5.72586183389446e-04
2.52200000000000e-01 4.88589107830443e-02 4.86651355378706e-04
2.57400000000000e-01 4.10956688326827e-02 4.13525820306379e-04
2.62600000000000e-01 3.45659362793576e-02 3.51316578990559e-04
2.67800000000000e-01 2.90737195623496e-02 2.98407309236183e-04
2.73000000000000e-01 2.44541667368329e-02 2.53418516999547e-04
2.78200000000000e-01 2.05686193509014e-02 2.15173311437282e-04
2.83400000000000e-01 1.73004505348796e-02 1.82668033303003e-04
2.88600000000000e-01 1.45515643808489e-02 1.55047066926904e-04
2.93800000000000e-01 1.22394515393158e-02 1.31581254643828e-04
2.99000000000000e-01 1.02947126551161e-02 1.11649410248933e-04
3.04200000000000e-01 8.65897530710192e-03 9.47224960183710e-05
3.09400000000000e-01 7.28314192739901e-03 8.03500871182872e-05
3.14600000000000e-01 6.12591611055081e-03 6.81487988353717e-05
3.19800000000000e-01 5.15256307890018e-03 5.77923969043623e-05
3.25000000000000e-01 4.33386709888492e-03 4.90033501024548e-05
3.30200000000000e-01 3.64525455451704e-03 4.15456179638736e-05
3.35400000000000e-01 3.06605635660727e-03 3.52184955966465e-05
3.40600000000000e-01 2.57888754853702e-03 2.98513627411394e-05
3.45800000000000e-01 2.16912548709918e-03 2.52992059117502e-05
3.51000000000000e-01 1.82447093571506e-03 2.14388011635960e-05
3.56200000000000e-01 1.53457889599579e-03 1.81654611239318e-05
3.61400000000000e-01 1.29074809685181e-03 1.53902637727161e-05
3.66600000000000e-01 1.08565982099309e-03 1.30376923533121e-05
3.71800000000000e-01 9.13158229551954e-04 1.10436260087010e-05
3.77000000000000e-01 7.68065591149630e-04 9.35362950211039e-06
3.82200000000000e-01 6.46026869404090e-04 7.92149789446596e-06
3.87400000000000e-01 5.43379004086571e-04 6.70801848865793e-06
3.92600000000000e-01 4.57040962327881e-04 5.67991786298391e-06
3.97800000000000e-01 3.84421259700193e-04 4.80896653354332e-06
4.03000000000000e-01 3.23340175368058e-04 4.07121782028587e-06
4.08200000000000e-01 2.71964326553071e-04 3.44636094083951e-06
4.13400000000000e-01 2.28751638528283e-04 2.91717130370918e-06
4.18600000000000e-01 1.92405058386079e-04 2.46904348985009e-06
4.23800000000000e-01 1.61833623272488e-04 2.08959456080281e-06
4.29000000000000e-01 1.36119714529274e-04 1.76832716564822e-06
4.34200000000000e-01 1.14491514858650e-04 1.49634348359659e-06
4.39400000000000e-01 9.62998417970479e-05 1.26610237318231e-06
4.44600000000000e-01 8.09986621417808e-05 1.07121323632667e-06
4.49800000000000e-01 6.81287024602306e-05 9.06261074682948e-07
4.55000000000000e-01 5.73036637418784e-05 7.66658041287612e-07
4.60200000000000e-01 4.81986264182721e-05 6.48517493657013e-07
4.65400000000000e-01 4.05402977211455e-05 5.48547153091166e-07
4.70600000000000e-01 3.40988086477099e-05 4.63958484464847e-07
4.75800000000000e-01 2.86808143144608e-05 3.92389844348949e-07
4.81000000000000e-01 2.41236906027750e-05 3.31841314142063e-07
4.86200000000000e-01 2.02906529053812e-05 2.80619448590201e-07
4.91400000000000e-01 1.70666504601620e-05 2.37290436812456e-07
4.96600000000000e-01 1.43549130374263e-05 2.00640399710828e-07
5.01800000000000e-01 1.20740463275484e-05 1.69641740374292e-07
5.07000000000000e-01 1.01555888454147e-05 1.43424627863184e-07
5.12200000000000e-01 8.54195702080374e-06 1.21252833902708e-07
5.17400000000000e-01 7.18471679544238e-06 1.02503260206424e-07
5.22600000000000e-01 6.04312984776114e-06 8.66485945279062e-08
5.27800000000000e-01 5.08293080947430e-06 7.32426187714610e-08
5.33000000000000e-01 4.27529877145943e-06 6.19077648534200e-08
5.38200000000000e-01 3.59599220811211e-06 5.23245754278842e-08
5.43400000000000e-01 3.02462135444835e-06 4.42227787200740e-08
5.48600000000000e-01 2.54403619594822e-06 3.73737309457871e-08
5.53800000000000e-01 2.13981170131463e-06 3.15840173266847e-08
5.59000000000000e-01 1.79981484712186e-06 2.66900345496703e-08
5.64200000000000e-01 1.51384043835733e-06 2.25534045241629e-08
5.69400000000000e-01 1.27330479380735e-06 1.90570921941492e-08
5.74600000000000e-01 1.07098810208298e-06 1.61021195831849e-08
5.79800000000000e-01 9.00817714958548e-07 1.36047847172226e-08
5.85000000000000e-01 7.57685873451717e-07 1.14943080300402e-08
5.90200000000000e-01 6.37296395591763e-07 9.71084068933513e-09
5.95400000000000e-01 5.36035724124049e-07 8.20377931103102e-09
6.00600000000000e-01 4.50864463575678e-07 6.93034002902516e-09
6.05800000000000e-01 3.79226151106938e-07 5.85435209003239e-09
6.11000000000000e-01 3.18970522854799e-07 4.94523724570479e-09
6.16200000000000e-01 2.68288972565010e-07 4.17714638425340e-09
6.21400000000000e-01 2.25660265267694e-07 3.52822922341749e-09
6.26600000000000e-01 1.89804876562143e-07 2.98001659629715e-09
6.31800000000000e-01 1.59646586979032e-07 2.51689800347084e-09
6.37000000000000e-01 1.34280178653413e-07 2.12567976560910e-09
6.42200000000000e-01 1.12944264706146e-07 1.79521136393879e-09
6.47400000000000e-01 9.49984357925022e-08 1.51606946369457e-09
6.52600000000000e-01 7.99040378588704e-08 1.28029073091317e-09
6.57800000000000e-01 6.72080041412188e-08 1.08114592033396e-09
6.63000000000000e-01 5.65292561137402e-08 9.12948869689855e-10
6.68200000000000e-01 4.75472652045769e-08 7.70895015445816e-10
6.73400000000000e-01 3.99924319521492e-08 6.50924874296789e-10
6.78600000000000e-01 3.36379938271051e-08 5.49608636544600e-10
6.83800000000000e-01 2.82932188286577e-08 4.64048611376232e-10
6.89000000000000e-01 2.37976805573129e-08 3.91796766619119e-10
6.94200000000000e-01 2.00164429271046e-08 3.30785030772928e-10
6.99400000000000e-01 1.68360099837930e-08 2.79266384885971e-10
7.04600000000000e-01 1.41609192605621e-08 2.35765076212984e-10
7.09800000000000e-01 1.19108764188901e-08 1.99034543073505e-10
7.15000000000000e-01 1.00183451692416e-08 1.68021858134936e-10
7.20200000000000e-01 8.42652013170822e-09 1.41837681574248e-10
7.25400000000000e-01 7.08762179088099e-09 1.19730871393237e-10
7.30600000000000e-01 5.96146236707412e-09 1.01067029947057e-10
7.35800000000000e-01 5.01423955772667e-09 8.53103771955424e-11
7.41000000000000e-01 4.21752194245770e-09 7.20084354339418e-11
7.46200000000000e-01 3.54739559814262e-09 6.07790899549383e-11
7.51400000000000e-01 2.98374630918659e-09 5.12996574802298e-11
7.56600000000000e-01 2.50965582813656e-09 4.32976511755827e-11
7.61800000000000e-01 2.11089406505771e-09 3.65429792339105e-11
7.67000000000000e-01 1.77549196345555e-09 3.08413547352031e-11
7.72200000000000e-01 1.49338224237656e-09 2.60287289193560e-11
7.77400000000000e-01 1.25609722136119e-09 2.19665891103467e-11
7.82600000000000e-01 1.05651465829701e-09 1.85379871301667e-11
7.87800000000000e-01 8.88643971353461e-10 1.56441848340047e-11
7.93000000000000e-01 7.47446428330434e-10 1.32018209726813e-11
7.98200000000000e-01 6.28683906303920e-10 1.11405184417755e-11
8.03400000000000e-01 5.28791682005102e-10 9.40086352998839e-12
8.08600000000000e-01 4.44771434665309e-10 7.93269938784261e-12
8.13800000000000e-01 3.74101249747586e-10 6.69368490263744e-12
8.19000000000000e-01 3.14659922276753e-10 5.64807774103884e-12
8.24200000000000e-01 2.64663287690209e-10 4.76570672182690e-12
8.29400000000000e-01 2.22610669144519e-10 4.02110408996539e-12
8.34600000000000e-01 1.87239833863833e-10 3.39277283300149e-12
8.39800000000000e-01 1.57489106519848e-10 2.86256804177742e-12
8.45000000000000e-01 1.32465502455302e-10 2.41517457937133e-12
8.50200000000000e-01 1.11417924251950e-10 2.03766607791744e-12
8.55400000000000e-01 9.37146171230664e-11 1.71913261095221e-12
8.60600000000000e-01 7.88242064415343e-11 1.45036635551132e-12
8.65800000000000e-01 6.62997482343479e-11 1.22359621941201e-12
8.71000000000000e-01 5.57653139102426e-11 1.03226381236186e-12
8.76200000000000e-01 4.69047065535735e-11 8.70834324767785e-13
8.81400000000000e-01 3.94519700977197e-11 7.34636879202858e-13
8.86600000000000e-01 3.31834065055629e-11 6.19729765005195e-13
8.91800000000000e-01 2.79108613482671e-11 5.22786680583798e-13
8.97000000000000e-01 2.34760762452642e-11 4.41000711096159e-13
9.02200000000000e-01 1.97459386507853e-11 3.72003278482324e-13
9.07400000000000e-01 1.66084864066341e-11 3.13795730955604e-13
9.12600000000000e-01 1.39695471356274e-11 2.64691602266882e-13
9.17800000000000e-01 1.17499116052239e-11 2.23267877773077e-13
9.23000000000000e-01 9.88295621827800e-12 1.88323863332639e-13
9.28200000000000e-01 8.31264326865022e-12 1.58846471740327e-13
9.33400000000000e-01 6.99183893823580e-12 1.33980926066026e-13
9.38600000000000e-01 5.88089854915286e-12 1.13006035171153e-13
9.43800000000000e-01 4.94647660664717e-12 9.53133283115894e-14
9.49000000000000e-01 4.16052591548825e-12 8.03894468742148e-14
9.54200000000000e-01 3.49945572777760e-12 6.78012851239218e-14
9.59400000000000e-01 2.94342365350663e-12 5.71834510528737e-14
9.64600000000000e-01 2.47574008016510e-12 4.82276852983320e-14
9.69800000000000e-01 2.08236722472275e-12 4.06739325504870e-14
9.75000000000000e-01 1.75149778175031e-12 3.43028075295585e-14
9.80200000000000e-01 1.47320052056847e-12 2.89292378417884e-14
9.85400000000000e-01 1.23912219382565e-12 2.43970999835256e-14
9.90600000000000e-01 1.04223681012467e-12 2.05746934281196e-14
9.95800000000000e-01 8.76634744976328e-13 1.73509219264925e-14
1.00100000000000e+00 7.37345360127688e-13 1.46320715753844e-14
1.00620000000000e+00 6.20187807085506e-13 1.23390924452928e-14
1.01140000000000e+00 5.21645536619259e-13 1.04053051094393e-14
1.01660000000000e+00 4.38760747576706e-13 8.77446569477507e-15
1.02180000000000e+00 3.69045606834323e-13 7.39913343990066e-15
1.02700000000000e+00 3.10407575599964e-13 6.23929349151016e-15
1.03220000000000e+00 2.61086600695138e-13 5.26119505274616e-15
1.03740000000000e+00 2.19602285578207e-13 4.81923803953950e-15
