Energy (eV)          EEDF (eV^-(3/2))     First Anisotropy
5.13793103448276e-03 1.39726953252243e+00 9.57146936426642e-04
1.54137931034483e-02 1.38074424552174e+00 1.57647514692404e-03
2.56896551724138e-02 1.36441440059111e+00 2.07043347729431e-03
3.59655172413793e-02 1.34827768614859e+00 2.43925383489084e-03
4.62413793103448e-02 1.33233181807490e+00 2.74156817821190e-03
5.65172413793103e-02 1.31657453929678e+00 2.99971062290975e-03
6.67931034482759e-02 1.30100361936702e+00 3.22532132980150e-03
7.70689655172414e-02 1.28561685425043e+00 3.42547809950020e-03
8.73448275862069e-02 1.27041206597846e+00 3.60490696782031e-03
9.76206896551724e-02 1.25538710235765e+00 3.76697058067637e-03
1.07896551724138e-01 1.24053983656784e+00 3.91417456922293e-03
1.18172413793103e-01 1.22586816706887e+00 4.04845285275659e-03
1.28448275862069e-01 1.21137001710827e+00 4.17134011784009e-03
1.38724137931034e-01 1.19704333449568e+00 4.28408191782294e-03
1.49000000000000e-01 1.18288609131217e+00 4.38770811167453e-03
1.59275862068966e-01 1.16889628362268e+00 4.48308362135727e-03
1.69551724137931e-01 1.15507193119279e+00 4.57094457904929e-03
1.79827586206897e-01 1.14141107720847e+00 4.65192473129540e-03
1.90103448275862e-01 1.12791178799874e+00 4.72657515188001e-03
2.00379310344828e-01 1.11457215276195e+00 4.79537924139440e-03
2.10655172413793e-01 1.10139028329525e+00 4.85876433262137e-03
2.20931034482759e-01 1.08836431372735e+00 4.91711080862554e-03
2.31206896551724e-01 1.07549240019943e+00 4.97075933837250e-03
2.41482758620690e-01 1.06277272077285e+00 5.02001672555861e-03
2.51758620689655e-01 1.05020347499830e+00 5.06516067049812e-03
2.62034482758621e-01 1.03778288372018e+00 5.10644365881252e-03
2.72310344827586e-01 1.02550918882472e+00 5.14409620439708e-03
2.82586206896552e-01 1.01338065299117e+00 5.17832955565248e-03
2.92862068965517e-01 1.00139555944582e+00 5.20933797460342e-03
3.03137931034483e-01 9.89552211718993e-01 5.23730066962517e-03
3.13413793103448e-01 9.77848933404820e-01 5.26238344488550e-03
3.23689655172414e-01 9.66284067924184e-01 5.28474011646831e-03
3.33965517241379e-01 9.54855978290088e-01 5.30451373492958e-03
3.44241379310345e-01 9.43563046875941e-01 5.32183764613890e-03
3.54517241379310e-01 9.32403675186584e-01 5.33683641630712e-03
3.64793103448276e-01 9.21376283632021e-01 5.34962664223785e-03
3.75068965517241e-01 9.10479311303833e-01 5.36031766732209e-03
3.85344827586207e-01 8.99711215726963e-01 5.36901220114115e-03
3.95620689655172e-01 8.89070472724608e-01 5.37580688422633e-03
4.05896551724138e-01 8.78555576117741e-01 5.38079279130890e-03
4.16172413793103e-01 8.68165037540691e-01 5.38405586430896e-03
4.26448275862069e-01 8.57897386230463e-01 5.38567731277387e-03
4.36724137931034e-01 8.47751168818558e-01 5.38573397048024e-03
4.47000000000000e-01 8.37724949125247e-01 5.38429861670443e-03
4.57275862068966e-01 8.27817307956256e-01 5.38144026644826e-03
4.67551724137931e-01 8.18026842901911e-01 5.37722443330869e-03
4.77827586206897e-01 8.08352168138650e-01 5.37171336818247e-03
4.88103448275862e-01 7.98791914232835e-01 5.36496627652808e-03
4.98379310344828e-01 7.89344727946909e-01 5.35703951655726e-03
5.08655172413793e-01 7.80009272047847e-01 5.34798678043409e-03
5.18931034482759e-01 7.70784225117875e-01 5.33785926262887e-03
5.29206896551724e-01 7.61668281350653e-01 5.32670580518016e-03
5.39482758620690e-01 7.52660150417501e-01 5.31457304266227e-03
5.49758620689655e-01 7.43758557232912e-01 5.30150553619733e-03
5.60034482758621e-01 7.34962241791620e-01 5.28754588527294e-03
5.70310344827586e-01 7.26269958990247e-01 5.27273484045645e-03
5.80586206896552e-01 7.17680478451063e-01 5.25711140547238e-03
5.90862068965517e-01 7.09192584347825e-01 5.24071293188564e-03
6.01137931034483e-01 7.00805075233677e-01 5.22357520706216e-03
6.11413793103448e-01 6.92516763871070e-01 5.20573253598960e-03
6.21689655172414e-01 6.84326477063754e-01 5.18721781750925e-03
6.31965517241379e-01 6.76233055490687e-01 5.16806261543736e-03
6.42241379310345e-01 6.68235353541939e-01 5.14829722498706e-03
6.52517241379310e-01 6.60332239156532e-01 5.12795073489310e-03
6.62793103448276e-01 6.52522593662194e-01 5.10705108558448e-03
6.73068965517241e-01 6.44805311617020e-01 5.08562512544416e-03
6.83344827586207e-01 6.37179300642161e-01 5.06369865676051e-03
6.93620689655172e-01 6.29643481300129e-01 5.04129648733954e-03
7.03896551724138e-01 6.22196786908630e-01 5.01844247931176e-03
7.14172413793103e-01 6.14838163400855e-01 4.99515958629615e-03
7.24448275862069e-01 6.07566569176280e-01 4.97146989536006e-03
7.34724137931035e-01 6.00380974953227e-01 4.94739466487768e-03
7.45000000000000e-01 5.93280363623175e-01 4.92295436027759e-03
7.55275862068966e-01 5.86263730106777e-01 4.89816868782284e-03
7.65551724137931e-01 5.79330081211607e-01 4.87305662656198e-03
7.75827586206897e-01 5.72478435491576e-01 4.84763645858042e-03
7.86103448275862e-01 5.65707823108006e-01 4.82192579765933e-03
7.96379310344828e-01 5.59017285692349e-01 4.79594161644747e-03
8.06655172413793e-01 5.52405876210533e-01 4.76970027224607e-03
8.16931034482759e-01 5.45872658828908e-01 4.74321753282116e-03
8.27206896551724e-01 5.39416708774215e-01 4.71650859564739e-03
8.37482758620690e-01 5.33037112225674e-01 4.68958811274071e-03
8.47758620689655e-01 5.26732966162353e-01 4.66247021446708e-03
8.58034482758621e-01 5.20503378243210e-01 4.63516852542422e-03
8.68310344827586e-01 5.14347466680779e-01 4.60769618494878e-03
8.78586206896552e-01 5.08264360116356e-01 4.58006586532920e-03
8.88862068965517e-01 5.02253197496662e-01 4.55228978918100e-03
8.99137931034483e-01 4.96313127951960e-01 4.52437974603329e-03
9.09413793103448e-01 4.90443310675610e-01 4.49634710816552e-03
9.19689655172414e-01 4.84642914805066e-01 4.46820284574485e-03
9.29965517241379e-01 4.78911119304268e-01 4.43995754130137e-03
9.40241379310345e-01 4.73247112847416e-01 4.41162140357091e-03
9.50517241379310e-01 4.67650093704136e-01 4.38320428074610e-03
9.60793103448276e-01 4.62119269625995e-01 4.35471567316452e-03
9.71068965517241e-01 4.56653857734354e-01 4.32616474648227e-03
9.81344827586207e-01 4.51253084404231e-01 4.29756034023916e-03
9.91620689655172e-01 4.45916185170968e-01 4.26891098110419e-03
1.00189655172414e+00 4.40642404605653e-01 4.24022489281974e-03
1.01217241379310e+00 4.35430996228591e-01 4.21151001014589e-03
1.02244827586207e+00 4.30281222368194e-01 4.18277399713881e-03
1.03272413793103e+00 4.25192354034681e-01 4.15402422230792e-03
1.04300000000000e+00 4.20163670956354e-01 4.12526779187002e-03
1.05327586206897e+00 4.15194461331170e-01 4.09651157684267e-03
1.06355172413793e+00 4.10284021775481e-01 4.06776220087324e-03
1.07382758620690e+00 4.05431657180757e-01 4.03902603172818e-03
1.08410344827586e+00 4.00636680748031e-01 4.01030920694624e-03
1.09437931034483e+00 3.95898413756150e-01 3.98161765950251e-03
1.10465517241379e+00 3.91216185511024e-01 3.95295709753328e-03
1.11493103448276e+00 3.86589333250818e-01 3.92433302859214e-03
1.12520689655172e+00 3.82017202012790e-01 3.89575074199646e-03
1.13548275862069e+00 3.77499144659958e-01 3.86721533169963e-03
1.14575862068966e+00 3.73034521668646e-01 3.83873171923828e-03
1.15603448275862e+00 3.68622701078652e-01 3.81030463444015e-03
1.16631034482759e+00 3.64263058403952e-01 3.78193863714592e-03
1.17658620689655e+00 3.59954976508826e-01 3.75363810037849e-03
1.18686206896552e+00 3.55697845627999e-01 3.72540723083839e-03
1.19713793103448e+00 3.51491063171537e-01 3.69725008951838e-03
1.20741379310345e+00 3.47334033676168e-01 3.66917057343271e-03
1.21768965517241e+00 3.43226168721172e-01 3.64117243515682e-03
1.22796551724138e+00 3.39166886813035e-01 3.61325926685978e-03
1.23824137931034e+00 3.35155613400133e-01 3.58543451875036e-03
1.24851724137931e+00 3.31191780693268e-01 3.55770151765952e-03
1.25879310344828e+00 3.27274827618352e-01 3.53006344981057e-03
1.26906896551724e+00 3.23404199737108e-01 3.50252337846253e-03
1.27934482758621e+00 3.19579349139629e-01 3.47508422880222e-03
1.28962068965517e+00 3.15799734454488e-01 3.44774880461772e-03
1.29989655172414e+00 3.12064820683406e-01 3.42051980510284e-03
1.31017241379310e+00 3.08374079155434e-01 3.39339980864983e-03
1.32044827586207e+00 3.04726987452184e-01 3.36639128883198e-03
1.33072413793103e+00 3.01123029307675e-01 3.33949660014874e-03
1.34100000000000e+00 2.97561694614621e-01 3.31271799314387e-03
1.35127586206897e+00 2.94042479271926e-01 3.28605762964771e-03
1.36155172413793e+00 2.90564885140430e-01 3.25951757303749e-03
1.37182758620690e+00 2.87128419948177e-01 3.23309978077376e-03
1.38210344827586e+00 2.83732597294251e-01 3.20680611843736e-03
1.39237931034483e+00 2.80376936505550e-01 3.18063837389162e-03
1.40265517241379e+00 2.77060962593790e-01 3.15459824278357e-03
1.41293103448276e+00 2.73784206188324e-01 3.12868734201269e-03
1.42320689655172e+00 2.70546203447694e-01 3.10290719693986e-03
1.43348275862069e+00 2.67346496060708e-01 3.07725925416162e-03
1.44375862068966e+00 2.64184631114069e-01 3.05174489442120e-03
1.45403448275862e+00 2.61060161050982e-01 3.02636541901733e-03
1.46431034482759e+00 2.57972643607876e-01 3.00112206209011e-03
1.47458620689655e+00 2.54921641731766e-01 2.97601597862046e-03
1.48486206896552e+00 2.51906723579057e-01 2.95104825607958e-03
1.49513793103448e+00 2.48927462393074e-01 2.92621992622270e-03
1.50541379310345e+00 2.45983436464291e-01 2.90153195236004e-03
1.51568965517241e+00 2.43074229070719e-01 2.87698524058489e-03
1.52596551724138e+00 2.40199428400675e-01 2.85258062852504e-03
1.53624137931034e+00 2.37358627549697e-01 2.82831889598817e-03
1.54651724137931e+00 2.34551424407129e-01 2.80420077574763e-03
1.55679310344828e+00 2.31777421617995e-01 2.78022694163592e-03
1.56706896551724e+00 2.29036226526808e-01 2.75639801882383e-03
1.57734482758621e+00 2.26327451105372e-01 2.73271457327639e-03
1.58762068965517e+00 2.23650711948155e-01 2.70917712150267e-03
1.59789655172414e+00 2.21005630167166e-01 2.68578614043424e-03
1.60817241379310e+00 2.18391831355454e-01 2.66254205629254e-03
1.61844827586207e+00 2.15808945534147e-01 2.63944525401332e-03
1.62872413793103e+00 2.13256607084924e-01 2.61649606736890e-03
1.63900000000000e+00 2.10734454744148e-01 2.59369478791052e-03
1.64927586206897e+00 2.08242131505336e-01 2.57104167402881e-03
1.65955172413793e+00 2.05779284584268e-01 2.54853694406388e-03
1.66982758620690e+00 2.03345565354970e-01 2.52618077085130e-03
1.68010344827586e+00 2.00940629343089e-01 2.50397329009163e-03
1.69037931034483e+00 1.98564136133934e-01 2.48191460883315e-03
1.70065517241379e+00 1.96215749338834e-01 2.46000479559232e-03
1.71093103448276e+00 1.93895136547545e-01 2.43824388844119e-03
1.72120689655172e+00 1.91601969268319e-01 2.41663188622484e-03
1.73148275862069e+00 1.89335922920442e-01 2.39516875624896e-03
1.74175862068966e+00 1.87096676748831e-01 2.37385444208180e-03
1.75203448275862e+00 1.84883913791906e-01 2.35268885431885e-03
1.76231034482759e+00 1.82697320836763e-01 2.33167187802266e-03
1.77258620689655e+00 1.80536588363041e-01 2.31080336450907e-03
1.78286206896552e+00 1.78401410534820e-01 2.29008313841639e-03
1.79313793103448e+00 1.76291485121240e-01 2.26951100488840e-03
1.80341379310345e+00 1.74206513465866e-01 2.24908674094214e-03
1.81368965517241e+00 1.72146200444443e-01 2.22881010231905e-03
1.82396551724138e+00 1.70110254412326e-01 2.20868081580424e-03
1.83424137931034e+00 1.68098387195881e-01 2.18869858573426e-03
1.84451724137931e+00 1.66110314018661e-01 2.16886310061331e-03
1.85479310344828e+00 1.64145753472219e-01 2.14917402504920e-03
1.86506896551724e+00 1.62204427476297e-01 2.12963100606822e-03
1.87534482758621e+00 1.60286061229571e-01 2.11023366592936e-03
1.88562068965517e+00 1.58390383200697e-01 2.09098160812399e-03
1.89589655172414e+00 1.56517125059617e-01 2.07187442347446e-03
1.90617241379310e+00 1.54666021649765e-01 2.05291168260079e-03
1.91644827586207e+00 1.52836810950555e-01 2.03409294174628e-03
1.92672413793103e+00 1.51029234031222e-01 2.01541773605514e-03
1.93700000000000e+00 1.49243035041619e-01 1.99688558510829e-03
1.94727586206897e+00 1.47477961148263e-01 1.97849599854921e-03
1.95755172413793e+00 1.45733762507895e-01 1.96024847133949e-03
1.96782758620690e+00 1.44010192223656e-01 1.94214247993694e-03
1.97810344827586e+00 1.42307006335789e-01 1.92417748749792e-03
1.98837931034483e+00 1.40623963761186e-01 1.90635294916559e-03
1.99865517241379e+00 1.38960826267983e-01 1.88866830539283e-03
2.00893103448276e+00 1.37317358441854e-01 1.87112298698971e-03
2.01920689655172e+00 1.35693327644913e-01 1.85371640915686e-03
2.02948275862069e+00 1.34088504006337e-01 1.83644797628866e-03
2.03975862068966e+00 1.32502660366031e-01 1.81931708686063e-03
2.05003448275862e+00 1.30935572250480e-01 1.80232312718822e-03
2.06031034482759e+00 1.29387017840990e-01 1.78546547609257e-03
2.07058620689655e+00 1.27856777935146e-01 1.76874349932214e-03
2.08086206896552e+00 1.26344635937416e-01 1.75215655398974e-03
2.09113793103448e+00 1.24850377806638e-01 1.73570399309226e-03
2.10141379310345e+00 1.23373792033075e-01 1.71938515967724e-03
2.11168965517241e+00 1.21914669608490e-01 1.70319939115766e-03
2.12196551724138e+00 1.20472803989995e-01 1.68714601409624e-03
2.13224137931034e+00 1.19047991090697e-01 1.67122434830765e-03
2.14251724137931e+00 1.17640029230721e-01 1.65543371103885e-03
2.15279310344828e+00 1.16248719115426e-01 1.63977341151808e-03
2.16306896551724e+00 1.14873863807204e-01 1.62424275494753e-03
2.17334482758621e+00 1.13515268691564e-01 1.60884103762432e-03
2.18362068965517e+00 1.12172741467870e-01 1.59356755073717e-03
2.19389655172414e+00 1.10846092103649e-01 1.57842158423407e-03
2.20417241379310e+00 1.09535132813908e-01 1.56340242172818e-03
2.21444827586207e+00 1.08239678034566e-01 1.54850934419475e-03
2.22472413793103e+00 1.06959544390627e-01 1.53374162540658e-03
2.23500000000000e+00 1.05694550687050e-01 1.51909853544925e-03
2.24527586206897e+00 1.04444517866099e-01 1.50457934430175e-03
2.25555172413793e+00 1.03209268987729e-01 1.49018331858884e-03
2.26582758620690e+00 1.01988629199337e-01 1.47590971893421e-03
2.27610344827586e+00 1.00782425726777e-01 1.46175780327239e-03
2.28637931034483e+00 9.95904878339773e-02 1.44772683022246e-03
2.29665517241379e+00 9.84126468041324e-02 1.43381605457040e-03
2.30693103448276e+00 9.72487359158261e-02 1.42002473049097e-03
2.31720689655172e+00 9.60985904146382e-02 1.40635210749550e-03
2.32748275862069e+00 9.49620475043492e-02 1.39279743349924e-03
2.33775862068966e+00 9.38389463092243e-02 1.37935995794851e-03
2.34803448275862e+00 9.27291278561764e-02 1.36603892759618e-03
2.35831034482759e+00 9.16324350522735e-02 1.35283358948852e-03
2.36858620689655e+00 9.05487126580790e-02 1.33974318717500e-03
2.37886206896552e+00 8.94778072790656e-02 1.32676696355038e-03
2.38913793103448e+00 8.84195673303819e-02 1.31390416375479e-03
2.39941379310345e+00 8.73738430199414e-02 1.30115403122277e-03
2.40968965517241e+00 8.63404863272321e-02 1.28851581045308e-03
2.41996551724138e+00 8.53193509782832e-02 1.27598874346364e-03
2.43024137931035e+00 8.43102924373034e-02 1.26357207242602e-03
2.44051724137931e+00 8.33131678737571e-02 1.25126504235475e-03
2.45079310344828e+00 8.23278361463402e-02 1.23906689741328e-03
2.46106896551724e+00 8.13541577830098e-02 1.22697688348354e-03
2.47134482758621e+00 8.03919949574789e-02 1.21499424484831e-03
2.48162068965517e+00 7.94412114810925e-02 1.20311822663543e-03
2.49189655172414e+00 7.85016727720525e-02 1.19134807731233e-03
2.50217241379310e+00 7.75732458402373e-02 1.17968304523158e-03
2.51244827586207e+00 7.66557992683827e-02 1.16812238101569e-03
2.52272413793103e+00 7.57492031900076e-02 1.15666533445191e-03
2.53300000000000e+00 7.48533292815383e-02 1.14531115676077e-03
2.54327586206897e+00 7.39680507335336e-02 1.13405910291064e-03
2.55355172413793e+00 7.30932422363080e-02 1.12290842939441e-03
2.56382758620690e+00 7.22287799589391e-02 1.11185839240206e-03
2.57410344827586e+00 7.13745415416047e-02 1.10090824996150e-03
2.58437931034483e+00 7.05304060682993e-02 1.09005726412271e-03
2.59465517241379e+00 6.96962540530700e-02 1.07930469789129e-03
2.60493103448276e+00 6.88719674231074e-02 1.06864981731506e-03
2.61520689655172e+00 6.80574294990238e-02 1.05809188872502e-03
2.62548275862069e+00 6.72525249874489e-02 1.04763018072240e-03
2.63575862068966e+00 6.64571399555088e-02 1.03726396620749e-03
2.64603448275862e+00 6.56711618177937e-02 1.02699251951013e-03
2.65631034482759e+00 6.48944793204265e-02 1.01681511832795e-03
2.66658620689655e+00 6.41269825225336e-02 1.00673104114446e-03
2.67686206896552e+00 6.33685627891012e-02 9.96739569073693e-04
2.68713793103448e+00 6.26191127670980e-02 9.86839987745305e-04
2.69741379310345e+00 6.18785263731375e-02 9.77031584619284e-04
2.70768965517241e+00 6.11466987784683e-02 9.67313650786709e-04
2.71796551724138e+00 6.04235263915637e-02 9.57685478553209e-04
2.72824137931035e+00 5.97089068512389e-02 9.48146363152389e-04
2.73851724137931e+00 5.90027390043059e-02 9.38695604497052e-04
2.74879310344828e+00 5.83049228938983e-02 9.29332504666670e-04
2.75906896551724e+00 5.76153597453264e-02 9.20056369581001e-04
2.76934482758621e+00 5.69339519497188e-02 9.10866506737425e-04
2.77962068965517e+00 5.62606030573987e-02 9.01762226803305e-04
2.78989655172414e+00 5.55952177569688e-02 8.92742845243261e-04
2.80017241379310e+00 5.49377018642642e-02 8.83807679967950e-04
2.81044827586207e+00 5.42879623090234e-02 8.74956052889967e-04
2.82072413793103e+00 5.36459071195160e-02 8.66187287805014e-04
2.83100000000000e+00 5.30114454161767e-02 8.57500711872059e-04
2.84127586206897e+00 5.23844873920243e-02 8.48895657125835e-04
2.85155172413793e+00 5.17649443022106e-02 8.40371458951642e-04
2.86182758620690e+00 5.11527284493942e-02 8.31927454823329e-04
2.87210344827586e+00 5.05477531775835e-02 8.23562985701762e-04
2.88237931034483e+00 4.99499328535529e-02 8.15277397463778e-04
2.89265517241379e+00 4.93591828568464e-02 8.07070038812786e-04
2.90293103448276e+00 4.87754195678019e-02 7.98940262643890e-04
2.91320689655172e+00 4.81985603538025e-02 7.90887424159601e-04
2.92348275862069e+00 4.76285235633708e-02 7.82910882169770e-04
2.93375862068966e+00 4.70652285087644e-02 7.75010000420855e-04
2.94403448275862e+00 4.65085954565210e-02 7.67184145639534e-04
2.95431034482759e+00 4.59585456161748e-02 7.59432688802582e-04
2.96458620689655e+00 4.54150011273331e-02 7.51755003372511e-04
2.97486206896552e+00 4.48778850540152e-02 7.44150466506170e-04
2.98513793103448e+00 4.43471213683509e-02 7.36618460291425e-04
2.99541379310345e+00 4.38226349416383e-02 7.29158369915280e-04
3.00568965517241e+00 4.33043515337127e-02 7.21769584845412e-04
3.01596551724138e+00 4.27921977807971e-02 7.14451497177742e-04
3.02624137931035e+00 4.22861011900820e-02 7.07203502760577e-04
3.03651724137931e+00 4.17859901244525e-02 7.00025002345099e-04
3.04679310344828e+00 4.12917937940337e-02 6.92915399870316e-04
3.05706896551724e+00 4.08034422461729e-02 6.85874103562483e-04
3.06734482758621e+00 4.03208663540185e-02 6.78900524386990e-04
3.07762068965517e+00 3.98439978113329e-02 6.71994077094611e-04
3.08789655172414e+00 3.93727691181818e-02 6.65154181291843e-04
3.09817241379310e+00 3.89071135729418e-02 6.58380259834912e-04
3.10844827586207e+00 3.84469652628605e-02 6.51671739853224e-04
3.11872413793103e+00 3.79922590533183e-02 6.45028051298874e-04
3.12900000000000e+00 3.75429305828693e-02 6.38448627920330e-04
3.13927586206897e+00 3.70989162498300e-02 6.31932908258508e-04
3.14955172413793e+00 3.66601532047241e-02 6.25480334597915e-04
3.15982758620690e+00 3.62265793400618e-02 6.19090352093894e-04
3.17010344827586e+00 3.57981332855608e-02 6.12762409693287e-04
3.18037931034483e+00 3.53747543954089e-02 6.06495961076358e-04
3.19065517241379e+00 3.49563827410417e-02 6.00290463228147e-04
3.20093103448276e+00 3.45429591026609e-02 5.94145377338286e-04
3.21120689655172e+00 3.41344249596238e-02 5.88060167510027e-04
3.22148275862069e+00 3.37307224858790e-02 5.82034301617072e-04
3.23175862068966e+00 3.33317945380262e-02 5.76067252180636e-04
3.24203448275862e+00 3.29375846484905e-02 5.70158495031100e-04
