Energy (eV)          EEDF (eV^-(3/2))     First Anisotropy
6.31481481481481e-02 3.61270084769417e-02 2.60057728821867e-05
1.89444444444444e-01 3.56679023013210e-02 4.28139931782785e-05
3.15740740740741e-01 3.52146304979482e-02 5.61787929252979e-05
4.42037037037037e-01 3.47671189257833e-02 6.61272760029673e-05
5.68333333333333e-01 3.43252943824284e-02 7.42566242310267e-05
6.94629629629630e-01 3.38890845963072e-02 8.11760710468034e-05
8.20925925925926e-01 3.34584182138568e-02 8.72035509454753e-05
9.47222222222222e-01 3.30332247894718e-02 9.25326268117230e-05
1.07351851851852e+00 3.26134347721041e-02 9.72927037153484e-05
1.19981481481481e+00 3.21989794930738e-02 1.01575964279456e-04
1.32611111111111e+00 3.17897911615683e-02 1.05451176796003e-04
1.45240740740741e+00 3.13858028412977e-02 1.08971477974981e-04
1.57870370370370e+00 3.09869484500283e-02 1.12179079586948e-04
1.70500000000000e+00 3.05931627478614e-02 1.15108276514769e-04
1.83129629629630e+00 3.02043813188172e-02 1.17787452349006e-04
1.95759259259259e+00 2.98205405701370e-02 1.20240466923823e-04
2.08388888888889e+00 2.94415777130916e-02 1.22487645153401e-04
2.21018518518519e+00 2.90674307589252e-02 1.24546498878657e-04
2.33648148148148e+00 2.86980385083081e-02 1.26432267446035e-04
2.46277777777778e+00 2.83333405362968e-02 1.28158328146572e-04
2.58907407407407e+00 2.79732771874927e-02 1.29736513863950e-04
2.71537037037037e+00 2.76177895659945e-02 1.31177363770054e-04
2.84166666666667e+00 2.72668195215735e-02 1.32490321772850e-04
2.96796296296296e+00 2.69203096455612e-02 1.33683896868842e-04
3.09425925925926e+00 2.65782032564509e-02 1.34765793818301e-04
3.22055555555556e+00 2.62404443942516e-02 1.35743019999005e-04
3.34685185185185e+00 2.59069778111413e-02 1.36621975095176e-04
3.47314814814815e+00 2.55777489593360e-02 1.37408525245939e-04
3.59944444444444e+00 2.52527039852747e-02 1.38108065487256e-04
3.72574074074074e+00 2.49317897206710e-02 1.38725573600786e-04
3.85203703703704e+00 2.46149536711143e-02 1.39265655293665e-04
3.97833333333333e+00 2.43021440101967e-02 1.39732582977319e-04
4.10462962962963e+00 2.39933095709051e-02 1.40130330066361e-04
4.23092592592593e+00 2.36883998348913e-02 1.40462599927719e-04
4.35722222222222e+00 2.33873649272914e-02 1.40732851508251e-04
4.48351851851852e+00 2.30901556056457e-02 1.40944321852338e-04
4.60981481481481e+00 2.27967232539793e-02 1.41100045492894e-04
4.73611111111111e+00 2.25070198747615e-02 1.41202872358710e-04
4.86240740740741e+00 2.22209980791626e-02 1.41255483006642e-04
4.98870370370370e+00 2.19386110812051e-02 1.41260402163269e-04
5.11500000000000e+00 2.16598126900324e-02 1.41220011466268e-04
5.24129629629630e+00 2.13845573006614e-02 1.41136560204692e-04
5.36759259259259e+00 2.11127998887378e-02 1.41012175278410e-04
5.49388888888889e+00 2.08444960010550e-02 1.40848870216391e-04
5.62018518518518e+00 2.05796017498381e-02 1.40648552982121e-04
5.74648148148148e+00 2.03180738055048e-02 1.40413033678443e-04
5.87277777777778e+00 2.00598693881824e-02 1.40144031007992e-04
5.99907407407407e+00 1.98049462621140e-02 1.39843178145157e-04
6.12537037037037e+00 1.95532627286991e-02 1.39512028626488e-04
6.25166666666667e+00 1.93047776184058e-02 1.39152061177318e-04
6.37796296296296e+00 1.90594502856979e-02 1.38764684391743e-04
6.50425925925926e+00 1.88172406007903e-02 1.38351241061484e-04
6.63055555555556e+00 1.85781089442628e-02 1.37913011873826e-04
6.75685185185185e+00 1.83420162005351e-02 1.37451219345443e-04
6.88314814814815e+00 1.81089237504038e-02 1.36967031003301e-04
7.00944444444444e+00 1.78787934657975e-02 1.36461562319787e-04
7.13574074074074e+00 1.76515877035042e-02 1.35935879875148e-04
7.26203703703704e+00 1.74272692980371e-02 1.35391003865946e-04
7.38833333333333e+00 1.72058015565388e-02 1.34827910429938e-04
7.51462962962963e+00 1.69871482527440e-02 1.34247534227127e-04
7.64092592592593e+00 1.67712736201600e-02 1.33650770399984e-04
7.76722222222222e+00 1.65581423473936e-02 1.33038476607810e-04
7.89351851851852e+00 1.63477195712386e-02 1.32411474949557e-04
8.01981481481481e+00 1.61399708718122e-02 1.31770553537150e-04
8.14611111111111e+00 1.59348622668979e-02 1.31116468386401e-04
8.27240740740741e+00 1.57323602056183e-02 1.30449944829004e-04
8.39870370370370e+00 1.55324315637208e-02 1.29771678833903e-04
8.52500000000000e+00 1.53350436381338e-02 1.29082338602034e-04
8.65129629629630e+00 1.51401641409087e-02 1.28382565688715e-04
8.77759259259259e+00 1.49477611948724e-02 1.27672976235388e-04
8.90388888888889e+00 1.47578033275087e-02 1.26954162148262e-04
9.03018518518519e+00 1.45702594664799e-02 1.26226692019375e-04
9.15648148148148e+00 1.43850989345221e-02 1.25491112351221e-04
9.28277777777778e+00 1.42022914438132e-02 1.24747948405923e-04
9.40907407407407e+00 1.40218070916368e-02 1.23997705005704e-04
9.53537037037037e+00 1.38436163554729e-02 1.23240867591449e-04
9.66166666666667e+00 1.36676900875973e-02 1.22477902902837e-04
9.78796296296296e+00 1.34939995110667e-02 1.21709259773001e-04
9.91425925925926e+00 1.33225162142815e-02 1.20935369896986e-04
1.00405555555556e+01 1.31532121468793e-02 1.20156648398643e-04
1.01668518518519e+01 1.29860596151299e-02 1.19373494672932e-04
1.02931481481481e+01 1.28210312769065e-02 1.18586292922305e-04
1.04194444444444e+01 1.26581001377155e-02 1.17795412692594e-04
1.05457407407407e+01 1.24972395461135e-02 1.17001209531817e-04
1.06720370370370e+01 1.23384231893465e-02 1.16204025501506e-04
1.07983333333333e+01 1.21816250890457e-02 1.15404189692750e-04
1.09246296296296e+01 1.20268195969787e-02 1.14602018718746e-04
1.10509259259259e+01 1.18739813908532e-02 1.13797817184994e-04
1.11772222222222e+01 1.17230854701758e-02 1.12991878138406e-04
1.13035185185185e+01 1.15741071521619e-02 1.12184483496492e-04
1.14298148148148e+01 1.14270220676984e-02 1.11375904457699e-04
1.15561111111111e+01 1.12818061573579e-02 1.10566401893959e-04
1.16824074074074e+01 1.11384356674627e-02 1.09756226726407e-04
1.18087037037037e+01 1.09968871461994e-02 1.08945620285116e-04
1.19350000000000e+01 1.08571374397830e-02 1.08134814434606e-04
1.20612962962963e+01 1.07191636898094e-02 1.07324032568039e-04
1.21875925925926e+01 1.05829433260560e-02 1.06513489478027e-04
1.23138888888889e+01 1.04484540662912e-02 1.05703391205049e-04
1.24401851851852e+01 1.03156739114489e-02 1.04893936016999e-04
1.25664814814815e+01 1.01845811420292e-02 1.04085314457285e-04
1.26927777777778e+01 1.00551543145462e-02 1.03277709613524e-04
1.28190740740741e+01 9.92737225802019e-03 1.02471297375666e-04
1.29453703703704e+01 9.80121407051451e-03 1.01666246684075e-04
1.30716666666667e+01 9.67665911571679e-03 1.00862719768033e-04
1.31979629629630e+01 9.55368701956317e-03 1.00060872375082e-04
1.33242592592593e+01 9.43227766690567e-03 9.92608539916736e-05
1.34505555555556e+01 9.31241119822185e-03 9.84628080554989e-05
1.35768518518519e+01 9.19406800636632e-03 9.76668721598821e-05
1.37031481481481e+01 9.07722873336349e-03 9.68731782506845e-05
1.38294444444444e+01 8.96187426724067e-03 9.60818528156901e-05
1.39557407407407e+01 8.84798573890270e-03 9.52930170672592e-05
1.40820370370370e+01 8.73554451904501e-03 9.45067871185342e-05
1.42083333333333e+01 8.62453221510634e-03 9.37232741530319e-05
1.43346296296296e+01 8.51493066826012e-03 9.29425845882664e-05
1.44609259259259e+01 8.40672195044424e-03 9.21648202335588e-05
1.45872222222222e+01 8.29988836142840e-03 9.13900784422848e-05
1.47135185185185e+01 8.19441242591880e-03 9.06184522587869e-05
1.48398148148148e+01 8.09027689069968e-03 8.98500305601833e-05
1.49661111111111e+01 7.98746472181106e-03 8.90848981932590e-05
1.50924074074074e+01 7.88595910176246e-03 8.83231361066540e-05
1.52187037037037e+01 7.78574342678197e-03 8.75648214785452e-05
1.53450000000000e+01 7.68680130410025e-03 8.68100277031074e-05
1.54712962962963e+01 7.58911654989765e-03 8.60588249242839e-05
1.55975925925926e+01 7.49267318475060e-03 8.53112798727304e-05
1.57238888888889e+01 7.39745543294537e-03 8.45674556926928e-05
1.58501851851852e+01 7.30344771924779e-03 8.38274124791825e-05
1.59764814814815e+01 7.21063466635550e-03 8.30912072374388e-05
1.61027777777778e+01 7.11900109238267e-03 8.23588939835806e-05
1.62290740740741e+01 7.02853200837653e-03 8.16305238419618e-05
1.63553703703704e+01 6.93921261586567e-03 8.09061451393516e-05
1.64816666666667e+01 6.85102830443929e-03 8.01858034960732e-05
1.66079629629630e+01 6.76396464935736e-03 7.94695419141891e-05
1.67342592592593e+01 6.67800740919104e-03 7.87574008628643e-05
1.68605555555556e+01 6.59314252349322e-03 7.80494183609926e-05
1.69868518518519e+01 6.50935611049851e-03 7.73456300571988e-05
1.71131481481481e+01 6.42663446485259e-03 7.66460693073507e-05
1.72394444444444e+01 6.34496405537012e-03 7.59507672494779e-05
1.73657407407407e+01 6.26433152282181e-03 7.52597528764290e-05
1.74920370370370e+01 6.18472367774896e-03 7.45730531063430e-05
1.76183333333333e+01 6.10612749830600e-03 7.38906928507849e-05
1.77446296296296e+01 6.02853012813047e-03 7.32126950808044e-05
1.78709259259259e+01 5.95191887423998e-03 7.25390808909394e-05
1.79972222222222e+01 5.87628120495605e-03 7.18698695612501e-05
1.81235185185185e+01 5.80160474785415e-03 7.12050786174432e-05
1.82498148148148e+01 5.72787728773995e-03 7.05447238891408e-05
1.83761111111111e+01 5.65508676465117e-03 6.98888195663662e-05
1.85024074074074e+01 5.58322127188492e-03 6.92373782543098e-05
1.86287037037037e+01 5.51226905405003e-03 6.85904110264262e-05
1.87550000000000e+01 5.44221850514419e-03 6.79479273882356e-05
1.88812962962963e+01 5.37305816701978e-03 6.73099355927744e-05
1.90075925925926e+01 5.30477672640510e-03 6.66764425109014e-05
1.91338888888889e+01 5.23736301417017e-03 6.60474534960332e-05
1.92601851851852e+01 5.17080600312354e-03 6.54229727047322e-05
1.93864814814815e+01 5.10509480620860e-03 6.48030030483101e-05
1.95127777777778e+01 5.04021867472267e-03 6.41875462356833e-05
1.96390740740741e+01 4.97616699655880e-03 6.35766028149447e-05
1.97653703703704e+01 4.91292929446989e-03 6.29701722136880e-05
1.98916666666667e+01 4.85049522435492e-03 6.23682527781370e-05
2.00179629629630e+01 4.78885457356685e-03 6.17708418111122e-05
2.01442592592593e+01 4.72799725924212e-03 6.11779356088696e-05
2.02705555555556e+01 4.66791332665137e-03 6.05895294968405e-05
2.03968518518519e+01 4.60859294757103e-03 6.00056178643188e-05
2.05231481481481e+01 4.55002641867574e-03 5.94261941981500e-05
2.06494444444444e+01 4.49220415995101e-03 5.88512511153405e-05
2.07757407407407e+01 4.43511671312635e-03 5.82807803947654e-05
2.09020370370370e+01 4.37875474012805e-03 5.77147730079872e-05
2.10283333333333e+01 4.32310902155170e-03 5.71532191490884e-05
2.11546296296296e+01 4.26817045515413e-03 5.65961082636555e-05
2.12809259259259e+01 4.21393005436453e-03 5.60434290769092e-05
2.14072222222222e+01 4.16037894681442e-03 5.54951696210065e-05
2.15335185185185e+01 4.10750837288641e-03 5.49513172615382e-05
2.16598148148148e+01 4.05530968428132e-03 5.44118587232573e-05
2.17861111111111e+01 4.00377434260354e-03 5.38767801150441e-05
2.19124074074074e+01 3.95289391796437e-03 5.33460669541396e-05
2.20387037037037e+01 3.90266008760309e-03 5.28197041896718e-05
2.21650000000000e+01 3.85306463452556e-03 5.22976761683712e-05
2.22912962962963e+01 3.80409944637851e-03 5.17799668296736e-05
2.24175925925926e+01 3.75575651346074e-03 5.12665596112635e-05
2.25438888888889e+01 3.70802792808160e-03 5.07574373512574e-05
2.26701851851852e+01 3.66090588304227e-03 5.02525824875835e-05
2.27964814814815e+01 3.61438267035870e-03 4.97519770173761e-05
2.29227777777778e+01 3.56845068000078e-03 4.92556025160711e-05
2.30490740740741e+01 3.52310239864754e-03 4.87634401559373e-05
2.31753703703704e+01 3.47833040845813e-03 4.82754707240573e-05
2.33016666666667e+01 3.43412738585848e-03 4.77916746397844e-05
2.34279629629630e+01 3.39048610034332e-03 4.73120319716823e-05
2.35542592592593e+01 3.34739941329348e-03 4.68365224539619e-05
2.36805555555556e+01 3.30486027680816e-03 4.63651255024335e-05
2.38068518518519e+01 3.26286173255209e-03 4.58978202299891e-05
2.39331481481481e+01 3.22139691061733e-03 4.54345854616348e-05
2.40594444444444e+01 3.18045902839945e-03 4.49753997490373e-05
2.41857407407407e+01 3.14004138948819e-03 4.45202413846695e-05
2.43120370370370e+01 3.10013738257202e-03 4.40690884155548e-05
2.44383333333333e+01 3.06074048035673e-03 4.36219186565606e-05
2.45646296296296e+01 3.02184423849769e-03 4.31787097033137e-05
2.46909259259259e+01 2.98344229454576e-03 4.27394389447238e-05
2.48172222222222e+01 2.94552836690651e-03 4.23040835751324e-05
2.49435185185185e+01 2.90809625381273e-03 4.18726206060941e-05
2.50698148148148e+01 2.87113983230998e-03 4.14450268778002e-05
2.51961111111111e+01 2.83465305725503e-03 4.10212790701629e-05
2.53224074074074e+01 2.79862996032699e-03 4.06013537135619e-05
2.54487037037037e+01 2.76306464905112e-03 4.01852271992574e-05
2.55750000000000e+01 2.72795130583488e-03 3.97728757518416e-05
2.57012962962963e+01 2.69328418715042e-03 3.93642755530209e-05
2.58275925925926e+01 2.65905762218889e-03 3.89594026746816e-05
2.59538888888889e+01 2.62526601234314e-03 3.85582330098397e-05
2.60801851851852e+01 2.59190383015376e-03 3.81607423996012e-05
2.62064814814815e+01 2.55896561840490e-03 3.77669066020793e-05
2.63327777777778e+01 2.52644598923166e-03 3.73767013007615e-05
2.64590740740741e+01 2.49433962323872e-03 3.69901021126143e-05
2.65853703703704e+01 2.46264126863026e-03 3.66070845959330e-05
2.67116666666667e+01 2.43134574035085e-03 3.62276242579474e-05
2.68379629629630e+01 2.40044791923738e-03 3.58516965621814e-05
2.69642592592593e+01 2.36994275118161e-03 3.54792769355805e-05
2.70905555555556e+01 2.33982524630350e-03 3.51103407754157e-05
2.72168518518519e+01 2.31009047813498e-03 3.47448634559592e-05
2.73431481481481e+01 2.28073358281410e-03 3.43828203349553e-05
2.74694444444444e+01 2.25174975828937e-03 3.40241867598583e-05
2.75957407407407e+01 2.22313426353438e-03 3.36689380738805e-05
2.77220370370370e+01 2.19488241777221e-03 3.33170496218592e-05
2.78483333333333e+01 2.16698959970979e-03 3.29684967559078e-05
2.79746296296296e+01 2.13945124678196e-03 3.26232548408836e-05
2.81009259259259e+01 2.11226285440517e-03 3.22812992596742e-05
2.82272222222222e+01 2.08541997524063e-03 3.19426054183071e-05
2.83535185185185e+01 2.05891821846684e-03 3.16071487508866e-05
2.84798148148148e+01 2.03275324906135e-03 3.12749047243608e-05
2.86061111111111e+01 2.00692078709170e-03 3.09458488431262e-05
2.87324074074074e+01 1.98141660701527e-03 3.06199566534718e-05
2.88587037037037e+01 1.95623653698812e-03 3.02972037478695e-05
2.89850000000000e+01 1.93137645818260e-03 2.99775657440724e-05
2.91112962962963e+01 1.90683230419733e-03 2.96610183649184e-05
2.92375925925926e+01 1.88260006013832e-03 2.93475373913642e-05
2.93638888888889e+01 1.85867576221849e-03 2.90370986141530e-05
2.94901851851852e+01 1.83505549702302e-03 2.87296779158912e-05
2.96164814814815e+01 1.81173540086922e-03 2.84252512480855e-05
2.97427777777778e+01 1.78871165917450e-03 2.81237946344593e-05
2.98690740740741e+01 1.76598050583244e-03 2.78252841741460e-05
2.99953703703704e+01 1.74353822259673e-03 2.75296960447630e-05
3.01216666666667e+01 1.72138113847294e-03 2.72370065053657e-05
3.02479629629630e+01 1.69950562911809e-03 2.69471918992899e-05
3.03742592592593e+01 1.67790811624773e-03 2.66602286568818e-05
3.05005555555556e+01 1.65658506705068e-03 2.63760932981207e-05
3.06268518518519e+01 1.63553299361112e-03 2.60947624351331e-05
3.07531481481481e+01 1.61474845233806e-03 2.58162127746135e-05
3.08794444444444e+01 1.59422804340205e-03 2.55404211201325e-05
3.10057407407407e+01 1.57396841017906e-03 2.52673643743532e-05
3.11320370370370e+01 1.55396623870146e-03 2.49970195411665e-05
3.12583333333333e+01 1.53421825711585e-03 2.47293637277201e-05
3.13846296296296e+01 1.51472123514796e-03 2.44643741463627e-05
3.15109259259259e+01 1.49547198357418e-03 2.42020281165033e-05
3.16372222222222e+01 1.47646735369995e-03 2.39423030663851e-05
3.17635185185185e+01 1.45770423684465e-03 2.36851765347780e-05
3.18898148148148e+01 1.43917956383316e-03 2.34306261725926e-05
3.20161111111111e+01 1.42089030449375e-03 2.31786297444181e-05
3.21424074074074e+01 1.40283346716251e-03 2.29291651299822e-05
3.22687037037037e+01 1.38500609819388e-03 2.26822103255412e-05
3.23950000000000e+01 1.36740528147761e-03 2.24377434284248e-05
3.25212962962963e+01 1.35002813801475e-03 2.21957426890592e-05
3.26475925925926e+01 1.33287182528603e-03 2.19561864781211e-05
3.27738888888889e+01 1.31593353694915e-03 2.17190532527973e-05
3.29001851851852e+01 1.29921050232516e-03 2.14843216104131e-05
3.30264814814815e+01 1.28269998594519e-03 2.12519702717375e-05
3.31527777777778e+01 1.26639928710305e-03 2.10219780819172e-05
3.32790740740741e+01 1.25030573941341e-03 2.07943240113549e-05
3.34053703703704e+01 1.23441671037567e-03 2.05689871565285e-05
3.35316666666667e+01 1.21872960094336e-03 2.03459467407572e-05
3.36579629629630e+01 1.20324184509898e-03 2.01251821149140e-05
3.37842592592593e+01 1.18795090943429e-03 1.99066727580880e-05
3.39105555555556e+01 1.17285429273587e-03 1.96903982781959e-05
3.40368518518518e+01 1.15794952557602e-03 1.94763384125460e-05
3.41631481481481e+01 1.14323416990880e-03 1.92644730283562e-05
3.42894444444444e+01 1.12870581867124e-03 1.90547821232206e-05
3.44157407407407e+01 1.11436209538961e-03 1.88472458255366e-05
3.45420370370370e+01 1.10020065379066e-03 1.86418443948932e-05
3.46683333333333e+01 1.08621917741787e-03 1.84385582224123e-05
3.47946296296296e+01 1.07241537925251e-03 1.82373678310497e-05
3.49209259259259e+01 1.05878700133955e-03 1.80382538758585e-05
3.50472222222222e+01 1.04533181441829e-03 1.78411971442144e-05
3.51735185185185e+01 1.03204761755775e-03 1.76461785560041e-05
3.52998148148148e+01 1.01893223779662e-03 1.74531791637772e-05
3.54261111111111e+01 1.00598352978785e-03 1.72621801528660e-05
3.55524074074074e+01 9.93199375447696e-04 1.70731628414695e-05
3.56787037037037e+01 9.80577683609252e-04 1.68861086807063e-05
3.58050000000000e+01 9.68116389680415e-04 1.67009992433395e-05
3.59312962962963e+01 9.55813455340146e-04 1.65178162579597e-05
3.60575925925926e+01 9.43666868102090e-04 1.63365415860342e-05
3.61838888888889e+01 9.31674641089343e-04 1.61571571983633e-05
3.63101851851852e+01 9.19834812674465e-04 1.59796452103867e-05
3.64364814814815e+01 9.08145446158599e-04 1.58039878701535e-05
3.65627777777778e+01 8.96604629454678e-04 1.56301675581758e-05
3.66890740740741e+01 8.85210474774659e-04 1.54581667872570e-05
3.68153703703704e+01 8.73961118320723e-04 1.52879682022940e-05
3.69416666666667e+01 8.62854719980408e-04 1.51195545800592e-05
3.70679629629630e+01 8.51889463025612e-04 1.49529088289586e-05
3.71942592592593e+01 8.41063553815421e-04 1.47880139887679e-05
3.73205555555556e+01 8.30375221502715e-04 1.46248532303481e-05
3.74468518518519e+01 8.19822717744503e-04 1.44634098553396e-05
3.75731481481481e+01 8.09404316415934e-04 1.43036672958413e-05
3.76994444444444e+01 7.99118313327948e-04 1.41456091140625e-05
3.78257407407407e+01 7.88963025948517e-04 1.39892190019612e-05
3.79520370370370e+01 7.78936793127423e-04 1.38344807808697e-05
3.80783333333333e+01 7.69037974824537e-04 1.36813784010958e-05
3.82046296296296e+01 7.59264951841545e-04 1.35298959415111e-05
3.83309259259259e+01 7.49616125557092e-04 1.33800176091224e-05
3.84572222222222e+01 7.40089917665286e-04 1.32317277386295e-05
3.85835185185185e+01 7.30684769917528e-04 1.30850107919668e-05
3.87098148148148e+01 7.21399143867618e-04 1.29398513578318e-05
3.88361111111111e+01 7.12231520620109e-04 1.27962341512008e-05
3.89624074074074e+01 7.03180400581850e-04 1.26541440128295e-05
3.90887037037037e+01 6.94244303216693e-04 1.25135659087444e-05
3.92150000000000e+01 6.85421766803309e-04 1.23744849220772e-05
3.93412962962963e+01 6.76711348218076e-04 1.22368862756631e-05
3.94675925925926e+01 6.68111622632444e-04 1.21007553159974e-05
3.95938888888889e+01 6.59621183347080e-04 1.19660774967967e-05
3.97201851851852e+01 6.51238641539144e-04 1.18328384023823e-05
3.98464814814815e+01 6.42962626035120e-04 1.17010237390502e-05
