Energy (eV)          EEDF (eV^-(3/2))     First Anisotropy
7.16666666666667e-03 9.45566582670799e-01 6.73793156092441e-04
2.15000000000000e-02 9.33544782286901e-01 1.10928032511169e-03
3.58333333333333e-02 9.21675825342354e-01 1.45554437867694e-03
5.01666666666667e-02 9.09957768667488e-01 1.71329108120064e-03
6.45000000000000e-02 8.98388693720842e-01 1.92390310847310e-03
7.88333333333333e-02 8.86966706352582e-01 2.10316572250986e-03
9.31666666666667e-02 8.75689936529635e-01 2.25931668784569e-03
1.07500000000000e-01 8.64556538002955e-01 2.39737131700284e-03
1.21833333333333e-01 8.53564687870871e-01 2.52068257611484e-03
1.36166666666667e-01 8.42712586608021e-01 2.63163899901197e-03
1.50500000000000e-01 8.31998457455202e-01 2.73202245277736e-03
1.64833333333333e-01 8.21420546186101e-01 2.82320976578622e-03
1.79166666666667e-01 8.10977121014854e-01 2.90629471196012e-03
1.93500000000000e-01 8.00666472097773e-01 2.98216593030102e-03
2.07833333333333e-01 7.90486911285040e-01 3.05155888504972e-03
2.22166666666667e-01 7.80436771992585e-01 3.11509182768386e-03
2.36500000000000e-01 7.70514408769448e-01 3.17329142142692e-03
2.50833333333333e-01 7.60718197048309e-01 3.22661144082672e-03
2.65166666666667e-01 7.51046532997336e-01 3.27544676611395e-03
2.79500000000000e-01 7.41497833132287e-01 3.32014403774965e-03
2.93833333333333e-01 7.32070534070928e-01 3.36100987961859e-03
3.08166666666667e-01 7.22763092373563e-01 3.39831738340211e-03
3.22500000000000e-01 7.13573984188605e-01 3.43231127126089e-03
3.36833333333333e-01 7.04501705012993e-01 3.46321203261636e-03
3.51166666666667e-01 6.95544769526682e-01 3.49121931421071e-03
3.65500000000000e-01 6.86701711264794e-01 3.51651470791121e-03
3.79833333333333e-01 6.77971082385018e-01 3.53926404316123e-03
3.94166666666667e-01 6.69351453499387e-01 3.55961932395968e-03
4.08500000000000e-01 6.60841413368478e-01 3.57772036128836e-03
4.22833333333333e-01 6.52439568676214e-01 3.59369613966874e-03
4.37166666666667e-01 6.44144543861133e-01 3.60766600213627e-03
4.51500000000000e-01 6.35954980829466e-01 3.61974066832915e-03
4.65833333333333e-01 6.27869538737460e-01 3.63002309686385e-03
4.80166666666667e-01 6.19886893823652e-01 3.63860925069842e-03
4.94500000000000e-01 6.12005739138471e-01 3.64558876500674e-03
5.08833333333333e-01 6.04224784334072e-01 3.65104551680621e-03
5.23166666666667e-01 5.96542755498655e-01 3.65505814166290e-03
5.37500000000000e-01 5.88958394900786e-01 3.65770049039079e-03
5.51833333333333e-01 5.81470460786635e-01 3.65904201962127e-03
5.66166666666667e-01 5.74077727217076e-01 3.65914815371278e-03
5.80500000000000e-01 5.66778983825294e-01 3.65808060807974e-03
5.94833333333333e-01 5.59573035621274e-01 3.65589766542724e-03
6.09166666666667e-01 5.52458702832192e-01 3.65265443724807e-03
6.23500000000000e-01 5.45434820672143e-01 3.64840309957955e-03
6.37833333333333e-01 5.38500239153696e-01 3.64319309354284e-03
6.52166666666667e-01 5.31653822931931e-01 3.63707131938855e-03
6.66500000000000e-01 5.24894451085323e-01 3.63008231281367e-03
6.80833333333333e-01 5.18221016934158e-01 3.62226839381877e-03
6.95166666666667e-01 5.11632427888452e-01 3.61366981406058e-03
7.09500000000000e-01 5.05127605239177e-01 3.60432489165075e-03
7.23833333333333e-01 4.98705483983315e-01 3.59427012377683e-03
7.38166666666667e-01 4.92365012675832e-01 3.58354030087519e-03
7.52500000000000e-01 4.86105153230517e-01 3.57216861169472e-03
7.66833333333333e-01 4.79924880751475e-01 3.56018672991725e-03
7.81166666666667e-01 4.73823183389243e-01 3.54762490420480e-03
7.95500000000000e-01 4.67799062150617e-01 3.53451204149229e-03
8.09833333333333e-01 4.61851530736375e-01 3.52087577457015e-03
8.24166666666667e-01 4.55979615401574e-01 3.50674253422762e-03
8.38500000000000e-01 4.50182354773823e-01 3.49213761628964e-03
8.52833333333333e-01 4.44458799697015e-01 3.47708523500862e-03
8.67166666666667e-01 4.38808013095816e-01 3.46160858167682e-03
8.81500000000000e-01 4.33229069801895e-01 3.44572987931053e-03
8.95833333333333e-01 4.27721056403449e-01 3.42947042529446e-03
9.10166666666667e-01 4.22283071113873e-01 3.41285063959916e-03
9.24500000000000e-01 4.16914223605492e-01 3.39589010992919e-03
9.38833333333333e-01 4.11613634864685e-01 3.37860762611151e-03
9.53166666666667e-01 4.06380437064687e-01 3.36102122020884e-03
9.67500000000000e-01 4.01213773406426e-01 3.34314820420000e-03
9.81833333333333e-01 3.96112797979034e-01 3.32500519794462e-03
9.96166666666667e-01 3.91076675636741e-01 3.30660816061213e-03
1.01050000000000e+00 3.86104581860705e-01 3.28797243387419e-03
1.02483333333333e+00 3.81195702553245e-01 3.26911274421505e-03
1.03916666666667e+00 3.76349234061923e-01 3.25004324063610e-03
1.05350000000000e+00 3.71564382903282e-01 3.23077754444675e-03
1.06783333333333e+00 3.66840365639376e-01 3.21132872743709e-03
1.08216666666667e+00 3.62176408880399e-01 3.19170935675097e-03
1.09650000000000e+00 3.57571749024531e-01 3.17193153714387e-03
1.11083333333333e+00 3.53025632138749e-01 3.15200688825617e-03
1.12516666666667e+00 3.48537313956436e-01 3.13194658492415e-03
1.13950000000000e+00 3.44106059632097e-01 3.11176139520318e-03
1.15383333333333e+00 3.39731143626328e-01 3.09146165719386e-03
1.16816666666667e+00 3.35411849699147e-01 3.07105731546662e-03
1.18250000000000e+00 3.31147470678449e-01 3.05055795546834e-03
1.19683333333333e+00 3.26937308349022e-01 3.02997278023539e-03
1.21116666666667e+00 3.22780673442232e-01 3.00931064347534e-03
1.22550000000000e+00 3.18676885417212e-01 2.98858008085691e-03
1.23983333333333e+00 3.14625272353811e-01 2.96778928685513e-03
1.25416666666667e+00 3.10625170939174e-01 2.94694614493322e-03
1.26850000000000e+00 3.06675926260770e-01 2.92605825612342e-03
1.28283333333333e+00 3.02776891703148e-01 2.90513291618473e-03
1.29716666666667e+00 2.98927428931897e-01 2.88417714324948e-03
1.31150000000000e+00 2.95126907697680e-01 2.86319770403096e-03
1.32583333333333e+00 2.91374705736702e-01 2.84220109142438e-03
1.34016666666667e+00 2.87670208752442e-01 2.82119354992097e-03
1.35450000000000e+00 2.84012810229975e-01 2.80018109972306e-03
1.36883333333333e+00 2.80401911340011e-01 2.77916951488137e-03
1.38316666666667e+00 2.76836920918782e-01 2.75816434673051e-03
1.39750000000000e+00 2.73317255291959e-01 2.73717094614669e-03
1.41183333333333e+00 2.69842338182166e-01 2.71619444228670e-03
1.42616666666667e+00 2.66411600687317e-01 2.69523976425960e-03
1.44050000000000e+00 2.63024481113532e-01 2.67431166172633e-03
1.45483333333333e+00 2.59680424885994e-01 2.65341468428382e-03
1.46916666666667e+00 2.56378884526033e-01 2.63255320155601e-03
1.48350000000000e+00 2.53119319492456e-01 2.61173142230571e-03
1.49783333333333e+00 2.49901196095653e-01 2.59095337449108e-03
1.51216666666667e+00 2.46723987473653e-01 2.57022292393311e-03
1.52650000000000e+00 2.43587173441368e-01 2.54954379208623e-03
1.54083333333333e+00 2.40490240407823e-01 2.52891953678129e-03
1.55516666666667e+00 2.37432681351411e-01 2.50835356960612e-03
1.56950000000000e+00 2.34413995676558e-01 2.48784917246123e-03
1.58383333333333e+00 2.31433689133988e-01 2.46740947899464e-03
1.59816666666667e+00 2.28491273795342e-01 2.44703749081347e-03
1.61250000000000e+00 2.25586267916848e-01 2.42673609293545e-03
1.62683333333333e+00 2.22718195862494e-01 2.40650803591376e-03
1.64116666666667e+00 2.19886588078193e-01 2.38635595098270e-03
1.65550000000000e+00 2.17090980962034e-01 2.36628236450232e-03
1.66983333333333e+00 2.14330916790280e-01 2.34628968076495e-03
1.68416666666667e+00 2.11605943691206e-01 2.32638019616680e-03
1.69850000000000e+00 2.08915615521562e-01 2.30655611273080e-03
1.71283333333333e+00 2.06259491795293e-01 2.28681952158316e-03
1.72716666666667e+00 2.03637137657178e-01 2.26717241623161e-03
1.74150000000000e+00 2.01048123765158e-01 2.24761670524187e-03
1.75583333333333e+00 1.98492026221678e-01 2.22815419636992e-03
1.77016666666667e+00 1.95968426547236e-01 2.20878660901815e-03
1.78450000000000e+00 1.93476911568250e-01 2.18951558613302e-03
1.79883333333333e+00 1.91017073350933e-01 2.17034267897608e-03
1.81316666666667e+00 1.88588509174843e-01 2.15126935882238e-03
1.82750000000000e+00 1.86190821425993e-01 2.13229702813925e-03
1.84183333333333e+00 1.83823617533160e-01 2.11342700597750e-03
1.85616666666667e+00 1.81486509941526e-01 2.09466053896958e-03
1.87050000000000e+00 1.79179116010740e-01 2.07599881184371e-03
1.88483333333333e+00 1.76901057953586e-01 2.05744293341579e-03
1.89916666666667e+00 1.74651962809776e-01 2.03899394693915e-03
1.91350000000000e+00 1.72431462348708e-01 2.02065284000251e-03
1.92783333333333e+00 1.70239193010402e-01 2.00242053110252e-03
1.94216666666667e+00 1.68074795879514e-01 1.98429787939189e-03
1.95650000000000e+00 1.65937916592537e-01 1.96628569400543e-03
1.97083333333333e+00 1.63828205280926e-01 1.94838472119268e-03
1.98516666666667e+00 1.61745316545388e-01 1.93059565350659e-03
1.99950000000000e+00 1.59688909367291e-01 1.91291913859787e-03
2.01383333333333e+00 1.57658647053910e-01 1.89535576688734e-03
2.02816666666667e+00 1.55654197213019e-01 1.87790608023373e-03
2.04250000000000e+00 1.53675231668315e-01 1.86057058023241e-03
2.05683333333333e+00 1.51721426406685e-01 1.84334971640707e-03
2.07116666666667e+00 1.49792461553164e-01 1.82624389439218e-03
2.08550000000000e+00 1.47888021290149e-01 1.80925348376912e-03
2.09983333333333e+00 1.46007793806628e-01 1.79237880675733e-03
2.11416666666667e+00 1.44151471273526e-01 1.77562014594322e-03
2.12850000000000e+00 1.42318749766528e-01 1.75897775168434e-03
2.14283333333333e+00 1.40509329217192e-01 1.74245183128021e-03
2.15716666666667e+00 1.38722913388717e-01 1.72604255627711e-03
2.17150000000000e+00 1.36959209802188e-01 1.70975006946828e-03
2.18583333333333e+00 1.35217929689512e-01 1.69357447452501e-03
2.20016666666667e+00 1.33498787969622e-01 1.67751584290464e-03
2.21450000000000e+00 1.31801503177986e-01 1.66157422047231e-03
2.22883333333333e+00 1.30125797421291e-01 1.64574961757357e-03
2.24316666666667e+00 1.28471396354106e-01 1.63004201557047e-03
2.25750000000000e+00 1.26838029111493e-01 1.61445137310852e-03
2.27183333333333e+00 1.25225428265378e-01 1.59897761661266e-03
2.28616666666667e+00 1.23633329801687e-01 1.58362064647435e-03
2.30050000000000e+00 1.22061473055910e-01 1.56838034298585e-03
2.31483333333333e+00 1.20509600671093e-01 1.55325655724163e-03
2.32916666666667e+00 1.18977458575466e-01 1.53824911699801e-03
2.34350000000000e+00 1.17464795920807e-01 1.52335783229447e-03
2.35783333333333e+00 1.15971365042012e-01 1.50858248674390e-03
2.37216666666667e+00 1.14496921435206e-01 1.49392284308431e-03
2.38650000000000e+00 1.13041223698791e-01 1.47937864850606e-03
2.40083333333333e+00 1.11604033494517e-01 1.46494962631444e-03
2.41516666666667e+00 1.10185115526102e-01 1.45063548119164e-03
2.42950000000000e+00 1.08784237482821e-01 1.43643590424731e-03
2.44383333333333e+00 1.07401170002036e-01 1.42235056503756e-03
2.45816666666667e+00 1.06035686648317e-01 1.40837911655436e-03
2.47250000000000e+00 1.04687563859463e-01 1.39452120001548e-03
2.48683333333333e+00 1.03356580910429e-01 1.38077643722473e-03
2.50116666666667e+00 1.02042519892957e-01 1.36714443530458e-03
2.51550000000000e+00 1.00745165663912e-01 1.35362479124047e-03
2.52983333333333e+00 9.94643058105569e-02 1.34021708456759e-03
2.54416666666667e+00 9.81997306306866e-02 1.32692088186150e-03
2.55850000000000e+00 9.69512330831823e-02 1.31373574105087e-03
2.57283333333333e+00 9.57186087545754e-02 1.30066120441680e-03
2.58716666666667e+00 9.45016558396944e-02 1.28769680285500e-03
2.60150000000000e+00 9.33001750943232e-02 1.27484205997024e-03
2.61583333333333e+00 9.21139698030147e-02 1.26209648537455e-03
2.63016666666667e+00 9.09428457602441e-02 1.24945957873393e-03
2.64450000000000e+00 8.97866112250762e-02 1.23693083365654e-03
2.65883333333333e+00 8.86450768901833e-02 1.22450973127700e-03
2.67316666666667e+00 8.75180558634992e-02 1.21219574409964e-03
2.68750000000000e+00 8.64053636248058e-02 1.19998833969175e-03
2.70183333333333e+00 8.53068179959098e-02 1.18788697454161e-03
2.71616666666667e+00 8.42222391227930e-02 1.17589109770955e-03
2.73050000000000e+00 8.31514494340315e-02 1.16400015433695e-03
2.74483333333333e+00 8.20942736120881e-02 1.15221357976631e-03
2.75916666666667e+00 8.10505385759529e-02 1.14053080301027e-03
2.77350000000000e+00 8.00200734413137e-02 1.12895125008658e-03
2.78783333333333e+00 7.90027094929216e-02 1.11747433838871e-03
2.80216666666667e+00 7.79982801677167e-02 1.10609947998299e-03
2.81650000000000e+00 7.70066210166704e-02 1.09482608477877e-03
2.83083333333333e+00 7.60275696781845e-02 1.08365355513866e-03
2.84516666666667e+00 7.50609658616956e-02 1.07258128901306e-03
2.85950000000000e+00 7.41066513111138e-02 1.06160868295439e-03
2.87383333333333e+00 7.31644697792182e-02 1.05073512695659e-03
2.88816666666667e+00 7.22342670117309e-02 1.03996000743561e-03
2.90250000000000e+00 7.13158907122830e-02 1.02928271009598e-03
2.91683333333333e+00 7.04091905177676e-02 1.01870261498966e-03
2.93116666666667e+00 6.95140179828774e-02 1.00821909935080e-03
2.94550000000000e+00 6.86302265465285e-02 9.97831540322334e-04
2.95983333333333e+00 6.77576715081373e-02 9.87539310224713e-04
2.97416666666667e+00 6.68962100126115e-02 9.77341779252399e-04
2.98850000000000e+00 6.60457010181690e-02 9.67238318068040e-04
3.00283333333333e+00 6.52060052735033e-02 9.57228293271931e-04
3.01716666666667e+00 6.43769853032194e-02 9.47311069967511e-04
3.03150000000000e+00 6.35585053769874e-02 9.37486014229939e-04
3.04583333333333e+00 6.27504314875625e-02 9.27752488767608e-04
3.06016666666667e+00 6.19526313366574e-02 9.18109855363435e-04
3.07450000000000e+00 6.11649743053716e-02 9.08557477224403e-04
3.08883333333333e+00 6.03873314330350e-02 8.99094714826717e-04
3.10316666666667e+00 5.96195754035074e-02 8.89720928239421e-04
3.11750000000000e+00 5.88615805168279e-02 8.80435479361009e-04
3.13183333333333e+00 5.81132226688513e-02 8.71237727940170e-04
3.14616666666667e+00 5.73743793379655e-02 8.62127033787863e-04
3.16050000000000e+00 5.66449295579081e-02 8.53102758906678e-04
3.17483333333333e+00 5.59247538981664e-02 8.44164263679699e-04
3.18916666666667e+00 5.52137344511029e-02 8.35310908976732e-04
3.20350000000000e+00 5.45117548058886e-02 8.26542058181849e-04
3.21783333333333e+00 5.38187000296383e-02 8.17857073543041e-04
3.23216666666667e+00 5.31344566549346e-02 8.09255318177949e-04
3.24650000000000e+00 5.24589126548306e-02 8.00736158004886e-04
3.26083333333333e+00 5.17919574246917e-02 7.92298958246364e-04
3.27516666666667e+00 5.11334817701095e-02 7.83943085339290e-04
3.28950000000000e+00 5.04833778829275e-02 7.75667908774293e-04
3.30383333333333e+00 4.98415393237641e-02 7.67472797746521e-04
3.31816666666667e+00 4.92078610103055e-02 7.59357122975157e-04
3.33250000000000e+00 4.85822391943114e-02 7.51320258455674e-04
3.34683333333333e+00 4.79645714447935e-02 7.43361578251517e-04
3.36116666666667e+00 4.73547566366779e-02 7.35480458227523e-04
3.37550000000000e+00 4.67526949287497e-02 7.27676277719381e-04
3.38983333333333e+00 4.61582877474610e-02 7.19948416460117e-04
3.40416666666667e+00 4.55714377759553e-02 7.12296256231728e-04
3.41850000000000e+00 4.49920489329089e-02 7.04719182456036e-04
3.43283333333333e+00 4.44200263569474e-02 6.97216581250146e-04
3.44716666666667e+00 4.38552763960199e-02 6.89787841000315e-04
3.46150000000000e+00 4.32977065871017e-02 6.82432353878096e-04
3.47583333333333e+00 4.27472256411945e-02 6.75149513019286e-04
3.49016666666667e+00 4.22037434330430e-02 6.67938714023866e-04
3.50450000000000e+00 4.16671709816606e-02 6.60799356401042e-04
3.51883333333333e+00 4.11374204358931e-02 6.53730840866397e-04
3.53316666666667e+00 4.06144050644672e-02 6.46732570771588e-04
3.54750000000000e+00 4.00980392373055e-02 6.39803953481806e-04
3.56183333333333e+00 3.95882384116320e-02 6.32944397786034e-04
3.57616666666667e+00 3.90849191223435e-02 6.26153315259911e-04
3.59050000000000e+00 3.85879989640809e-02 6.19430121578936e-04
3.60483333333333e+00 3.80973965778560e-02 6.12774234036989e-04
3.61916666666667e+00 3.76130316417372e-02 6.06185072845630e-04
3.63350000000000e+00 3.71348248536448e-02 5.99662062386202e-04
3.64783333333333e+00 3.66626979184801e-02 5.93204628831933e-04
3.66216666666667e+00 3.61965735391164e-02 5.86812201386875e-04
3.67650000000000e+00 3.57363753998878e-02 5.80484213479758e-04
3.69083333333333e+00 3.52820281542024e-02 5.74220100485312e-04
3.70516666666667e+00 3.48334574158284e-02 5.68019300905676e-04
3.71950000000000e+00 3.43905897430500e-02 5.61881257508935e-04
3.73383333333333e+00 3.39533526267434e-02 5.55805415145426e-04
3.74816666666667e+00 3.35216744819530e-02 5.49791221874366e-04
3.76250000000000e+00 3.30954846326829e-02 5.43838130049748e-04
3.77683333333333e+00 3.26747133004221e-02 5.37945594227535e-04
3.79116666666667e+00 3.22592915959989e-02 5.32113072240222e-04
3.80550000000000e+00 3.18491515049843e-02 5.26340026232593e-04
3.81983333333333e+00 3.14442258766476e-02 5.20625920655940e-04
3.83416666666667e+00 3.10444484160821e-02 5.14970223293022e-04
3.84850000000000e+00 3.06497536701947e-02 5.09372406246125e-04
3.86283333333333e+00 3.02600770170754e-02 5.03831944014644e-04
3.87716666666667e+00 2.98753546583868e-02 4.98348314472761e-04
3.89150000000000e+00 2.94955236059147e-02 4.92920999812098e-04
3.90583333333333e+00 2.91205216713372e-02 4.87549484699090e-04
3.92016666666667e+00 2.87502874588692e-02 4.82233257207737e-04
3.93450000000000e+00 2.83847603523512e-02 4.76971809718940e-04
3.94883333333333e+00 2.80238805054033e-02 4.71764637154282e-04
3.96316666666667e+00 2.76675888343159e-02 4.66611237865972e-04
3.97750000000000e+00 2.73158270056562e-02 4.61511114495025e-04
3.99183333333333e+00 2.69685374267905e-02 4.56463772278158e-04
4.00616666666667e+00 2.66256632390163e-02 4.51468719896942e-04
4.02050000000000e+00 2.62871483056622e-02 4.46525470296726e-04
4.03483333333333e+00 2.59529372029677e-02 4.41633539063625e-04
4.04916666666667e+00 2.56229752134465e-02 4.36792445234877e-04
4.06350000000000e+00 2.52972083144617e-02 4.32001712080269e-04
4.07783333333333e+00 2.49755831694483e-02 4.27260865546283e-04
4.09216666666667e+00 2.46580471215014e-02 4.22569435029446e-04
4.10650000000000e+00 2.43445481824069e-02 4.17926954122120e-04
4.12083333333333e+00 2.40350350241938e-02 4.13332959120908e-04
4.13516666666667e+00 2.37294569729399e-02 4.08786989764735e-04
4.14950000000000e+00 2.34277639982404e-02 4.04288589946717e-04
4.16383333333333e+00 2.31299067050766e-02 3.99837306284129e-04
4.17816666666667e+00 2.28358363278332e-02 3.95432688822828e-04
4.19250000000000e+00 2.25455047201860e-02 3.91074291716802e-04
4.20683333333333e+00 2.22588643472756e-02 3.86761671857085e-04
4.22116666666667e+00 2.19758682799298e-02 3.82494389544200e-04
4.23550000000000e+00 2.16964701849527e-02 3.78272009136824e-04
4.24983333333333e+00 2.14206243175928e-02 3.74094097737178e-04
4.26416666666667e+00 2.11482855159633e-02 3.69960225832975e-04
4.27850000000000e+00 2.08794091917166e-02 3.65869967916667e-04
4.29283333333333e+00 2.06139513227955e-02 3.61822901224944e-04
4.30716666666667e+00 2.03518684480453e-02 3.57818606351590e-04
4.32150000000000e+00 2.00931176582580e-02 3.53856667838710e-04
4.33583333333333e+00 1.98376565891959e-02 3.49936672968062e-04
4.35016666666667e+00 1.95854434163893e-02 3.46058212346155e-04
4.36450000000000e+00 1.93364368465355e-02 3.42220880468758e-04
4.37883333333333e+00 1.90905961107848e-02 3.38424274561890e-04
4.39316666666667e+00 1.88478809597173e-02 3.34667995140492e-04
4.40750000000000e+00 1.86082516550829e-02 3.30951646547436e-04
4.42183333333333e+00 1.83716689633392e-02 3.27274835842097e-04
4.43616666666667e+00 1.81380941508021e-02 3.23637173333811e-04
4.45050000000000e+00 1.79074889757126e-02 3.20038273096565e-04
4.46483333333333e+00 1.76798156820178e-02 3.16477751903187e-04
4.47916666666667e+00 1.74550369946890e-02 3.12955229734736e-04
4.49350000000000e+00 1.72331161121026e-02 3.09470330272012e-04
4.50783333333333e+00 1.70140167000543e-02 3.06022679873423e-04
4.52216666666667e+00 1.67977028872402e-02 3.02611908061474e-04
