Energy (eV)          EEDF (eV^-(3/2))     First Anisotropy
7.38461538461539e-02 8.47778572757387e-02 8.72174759373578e-05
2.21538461538462e-01 8.25577740719486e-02 1.42614542889582e-04
3.69230769230769e-01 8.03958283392240e-02 1.84578220112195e-04
5.16923076923077e-01 7.82904976165841e-02 2.14298265323081e-04
6.64615384615385e-01 7.62402993236026e-02 2.37357629689998e-04
8.12307692307692e-01 7.42437897071054e-02 2.55932826845730e-04
9.60000000000000e-01 7.22995628154574e-02 2.71182779333693e-04
1.10769230769231e+00 7.04062495243173e-02 2.83826407718737e-04
1.25538461538462e+00 6.85625165458976e-02 2.94352788099246e-04
1.40307692307692e+00 6.67670655181890e-02 3.03115962628648e-04
1.55076923076923e+00 6.50186320791614e-02 3.10383950381361e-04
1.69846153846154e+00 6.33159849872768e-02 3.16366607728407e-04
1.84615384615385e+00 6.16579252217453e-02 3.21232621005357e-04
1.99384615384615e+00 6.00432851718435e-02 3.25120453894362e-04
2.14153846153846e+00 5.84709278028626e-02 3.28145718252038e-04
2.28923076923077e+00 5.69397458558649e-02 3.30406314887019e-04
2.43692307692308e+00 5.54486610740283e-02 3.31986131435450e-04
2.58461538461538e+00 5.39966234237867e-02 3.32957768398193e-04
2.73230769230769e+00 5.25826103755418e-02 3.33384594380027e-04
2.88000000000000e+00 5.12056261767639e-02 3.33322327145561e-04
3.02769230769231e+00 4.98647011552678e-02 3.32820269228423e-04
3.17538461538462e+00 4.85588910224381e-02 3.31922287328002e-04
3.32307692307692e+00 4.72872762225472e-02 3.30667599628548e-04
3.47076923076923e+00 4.60489612803017e-02 3.29091417579200e-04
3.61846153846154e+00 4.48430741736575e-02 3.27225473590040e-04
3.76615384615385e+00 4.36687657093691e-02 3.25098458563696e-04
3.91384615384615e+00 4.25252089355957e-02 3.22736388451005e-04
4.06153846153846e+00 4.14115985558906e-02 3.20162915061773e-04
4.20923076923077e+00 4.03271503621885e-02 3.17399589575350e-04
4.35692307692308e+00 3.92711006849695e-02 3.14466089283183e-04
4.50461538461539e+00 3.82427058479538e-02 3.11380412296930e-04
4.65230769230769e+00 3.72412416521095e-02 3.08159046384475e-04
4.80000000000000e+00 3.62660028630560e-02 3.04817116991785e-04
4.94769230769231e+00 3.53163027163583e-02 3.01368516866828e-04
5.09538461538462e+00 3.43914724279820e-02 2.97826019671221e-04
5.24307692307692e+00 3.34908607293899e-02 2.94201380407906e-04
5.39076923076923e+00 3.26138334068472e-02 2.90505425247014e-04
5.53846153846154e+00 3.17597728563611e-02 2.86748131485919e-04
5.68615384615385e+00 3.09280776440273e-02 2.82938698613638e-04
5.83384615384615e+00 3.01181620873339e-02 2.79085612040722e-04
5.98153846153846e+00 2.93294558410600e-02 2.75196701121095e-04
6.12923076923077e+00 2.85614034956621e-02 2.71279190912282e-04
6.27692307692308e+00 2.78134641873317e-02 2.67339749566782e-04
6.42461538461539e+00 2.70851112134581e-02 2.63384530830086e-04
6.57230769230769e+00 2.63758316654621e-02 2.59419212664758e-04
6.72000000000000e+00 2.56851260663360e-02 2.55449032917984e-04
6.86769230769231e+00 2.50125080198861e-02 2.51478821830281e-04
7.01538461538462e+00 2.43575038652132e-02 2.47513031462614e-04
7.16307692307692e+00 2.37196523462197e-02 2.43555762654999e-04
7.31076923076923e+00 2.30985042857478e-02 2.39610790182498e-04
7.45846153846154e+00 2.24936222700796e-02 2.35681585837415e-04
7.60615384615385e+00 2.19045803384340e-02 2.31771339417054e-04
7.75384615384615e+00 2.13309636855295e-02 2.27882978070459e-04
7.90153846153846e+00 2.07723683686108e-02 2.24019184580308e-04
8.04923076923077e+00 2.02284010230020e-02 2.20182413896400e-04
8.19692307692308e+00 1.96986785857359e-02 2.16374908787860e-04
8.34461538461539e+00 1.91828280238264e-02 2.12598714043715e-04
8.49230769230769e+00 1.86804860735921e-02 2.08855689640408e-04
8.64000000000000e+00 1.81912989841617e-02 2.05147523263934e-04
8.78769230769231e+00 1.77149222688998e-02 2.01475741912952e-04
8.93538461538462e+00 1.72510204611665e-02 1.97841722495366e-04
9.08307692307692e+00 1.67992668797660e-02 1.94246701688633e-04
9.23076923076923e+00 1.63593433983225e-02 1.90691785381914e-04
9.37846153846154e+00 1.59309402217102e-02 1.87177957448866e-04
9.52615384615385e+00 1.55137556665056e-02 1.83706087761296e-04
9.67384615384615e+00 1.51074959499574e-02 1.80276939666068e-04
9.82153846153846e+00 1.47118749826195e-02 1.76891177232841e-04
9.96923076923077e+00 1.43266141668903e-02 1.73549371711814e-04
1.01169230769231e+01 1.39514422019154e-02 1.70252008075912e-04
1.02646153846154e+01 1.35860948895302e-02 1.66999490666906e-04
1.04123076923077e+01 1.32303149509060e-02 1.63792148379917e-04
1.05600000000000e+01 1.28838518445927e-02 1.60630240440460e-04
1.07076923076923e+01 1.25464615869721e-02 1.57513960015594e-04
1.08553846153846e+01 1.22179065899988e-02 1.54443439443377e-04
1.10030769230769e+01 1.18979554841135e-02 1.51418755219583e-04
1.11507692307692e+01 1.15863829586477e-02 1.48439930784148e-04
1.12984615384615e+01 1.12829696031594e-02 1.45506940636718e-04
1.14461538461538e+01 1.09875017529229e-02 1.42619713827167e-04
1.15938461538462e+01 1.06997713384654e-02 1.39778137234868e-04
1.17415384615385e+01 1.04195757390405e-02 1.36982058648423e-04
1.18892307692308e+01 1.01467176399491e-02 1.34231289660482e-04
1.20369230769231e+01 9.88100489358550e-03 1.31525608389207e-04
1.21846153846154e+01 9.62225038412659e-03 1.28864762034824e-04
1.23323076923077e+01 9.37027189576410e-03 1.26248469283168e-04
1.24800000000000e+01 9.12489198438757e-03 1.23676422796844e-04
1.26276923076923e+01 8.88593785075882e-03 1.21148290630058e-04
1.27753846153846e+01 8.65324122455494e-03 1.18663718704243e-04
1.29230769230769e+01 8.42663824001507e-03 1.16222333186779e-04
1.30707692307692e+01 8.20596932254227e-03 1.13823741491896e-04
1.32184615384615e+01 7.99107907633048e-03 1.11467534198518e-04
1.33661538461538e+01 7.78181617493422e-03 1.09153286608548e-04
1.35138461538462e+01 7.57803325470396e-03 1.06880560211368e-04
1.36615384615385e+01 7.37958681101028e-03 1.04648904059023e-04
1.38092307692308e+01 7.18633709719116e-03 1.02457856058439e-04
1.39569230769231e+01 6.99814802613993e-03 1.00306944185448e-04
1.41046153846154e+01 6.81488707447213e-03 9.81956876238413e-05
1.42523076923077e+01 6.63642518920213e-03 9.61235978347226e-05
1.44000000000000e+01 6.46263669686350e-03 9.40901797127407e-05
1.45476923076923e+01 6.29339921386136e-03 9.20949320595908e-05
1.46953846153846e+01 6.12859356380686e-03 9.01373487820261e-05
1.48430769230769e+01 5.96810368999887e-03 8.82169200498118e-05
1.49907692307692e+01 5.81181657492097e-03 8.63331325671248e-05
1.51384615384615e+01 5.65962216065405e-03 8.44854704688489e-05
1.52861538461538e+01 5.51141327137316e-03 8.26734159990745e-05
1.54338461538462e+01 5.36708553787389e-03 8.08964501456830e-05
1.55815384615385e+01 5.22653732407422e-03 7.91540532329239e-05
1.57292307692308e+01 5.08966965544411e-03 7.74457054750128e-05
1.58769230769231e+01 4.95638614930616e-03 7.57708874929196e-05
1.60246153846154e+01 4.82659294696259e-03 7.41290807956772e-05
1.61723076923077e+01 4.70019864759962e-03 7.25197682287673e-05
1.63200000000000e+01 4.57711424392269e-03 7.09424344929933e-05
1.64676923076923e+01 4.45725305875931e-03 6.93965662210047e-05
1.66153846153846e+01 4.34053068621939e-03 6.78816525469898e-05
1.67630769230769e+01 4.22686493001088e-03 6.63971856604653e-05
1.69107692307692e+01 4.11617574632155e-03 6.49426607802034e-05
1.70584615384615e+01 4.00838518745183e-03 6.35175765532019e-05
1.72061538461538e+01 3.90341734692375e-03 6.21214353177035e-05
1.73538461538462e+01 3.80119830602739e-03 6.07537433453930e-05
1.75015384615385e+01 3.70165608176644e-03 5.94140110636141e-05
1.76492307692308e+01 3.60472057616870e-03 5.81017532591467e-05
1.77969230769231e+01 3.51032352692226e-03 5.68164892646003e-05
1.79446153846154e+01 3.41839845930489e-03 5.55577431279653e-05
1.80923076923077e+01 3.32888063937233e-03 5.43250437666396e-05
1.82400000000000e+01 3.24170702837243e-03 5.31179251749022e-05
1.83876923076923e+01 3.15681623789785e-03 5.19359263408908e-05
1.85353846153846e+01 3.07414848804972e-03 5.07785914995270e-05
1.86830769230769e+01 2.99364556391773e-03 4.96454703801789e-05
1.88307692307692e+01 2.91525077506931e-03 4.85361180708844e-05
1.89784615384615e+01 2.83890891562801e-03 4.74500951720713e-05
1.91261538461538e+01 2.76456622539734e-03 4.63869678637804e-05
1.92738461538462e+01 2.69217035200264e-03 4.53463079632738e-05
1.94215384615385e+01 2.62167031402404e-03 4.43276929734090e-05
1.95692307692308e+01 2.55301646509583e-03 4.33307061225878e-05
1.97169230769231e+01 2.48616045894499e-03 4.23549363967947e-05
1.98646153846154e+01 2.42105521534553e-03 4.13999785639543e-05
2.00123076923077e+01 2.35765488696445e-03 4.04654331912913e-05
2.01600000000000e+01 2.29591482707589e-03 3.95509067020169e-05
2.03076923076923e+01 2.23579155782897e-03 3.86560112394640e-05
2.04553846153846e+01 2.17724274052366e-03 3.77803647605420e-05
2.06030769230769e+01 2.12022714488418e-03 3.69235911285786e-05
2.07507692307692e+01 2.06470462033472e-03 3.60853199505968e-05
2.08984615384615e+01 2.01063606772524e-03 3.52651866122267e-05
2.10461538461538e+01 1.95798341179776e-03 3.44628322568807e-05
2.11938461538462e+01 1.90670957437357e-03 3.36779037608613e-05
2.13415384615385e+01 1.85677844824249e-03 3.29100537045674e-05
2.14892307692308e+01 1.80815487173646e-03 3.21589403402251e-05
2.16369230769231e+01 1.76080460396832e-03 3.14242275564038e-05
2.17846153846154e+01 1.71469430071927e-03 3.07055848393968e-05
2.19323076923077e+01 1.66979149095780e-03 3.00026872318258e-05
2.20800000000000e+01 1.62606455397341e-03 2.93152153197558e-05
2.22276923076923e+01 1.58348269692049e-03 2.86428550912936e-05
2.23753846153846e+01 1.54201593371150e-03 2.79852979521033e-05
2.25230769230769e+01 1.50163506331126e-03 2.73422407422005e-05
2.26707692307692e+01 1.46231164937405e-03 2.67133855813799e-05
2.28184615384615e+01 1.42401800021861e-03 2.60984398499141e-05
2.29661538461538e+01 1.38672714932753e-03 2.54971161330099e-05
2.31138461538462e+01 1.35041283635741e-03 2.49091321639251e-05
2.32615384615385e+01 1.31504948864605e-03 2.43342107658076e-05
2.34092307692308e+01 1.28061220320437e-03 2.37720797924873e-05
2.35569230769231e+01 1.24707672917951e-03 2.32224720683425e-05
2.37046153846154e+01 1.21441945077728e-03 2.26851253272573e-05
2.38523076923077e+01 1.18261737063183e-03 2.21597821508613e-05
2.40000000000000e+01 1.15164809361086e-03 2.16461899272617e-05
2.41476923076923e+01 1.12148981092184e-03 2.11441007235505e-05
2.42953846153846e+01 1.09212128513060e-03 2.06532712659411e-05
2.44430769230769e+01 1.06352183482186e-03 2.01734629217928e-05
2.45907692307692e+01 1.03567132016591e-03 1.97044415661832e-05
2.47384615384615e+01 1.00855012873609e-03 1.92459775412939e-05
2.48861538461538e+01 9.82139161697662e-04 1.87978455920735e-05
2.50338461538462e+01 9.56419820358309e-04 1.83598248018544e-05
2.51815384615385e+01 9.31373993070832e-04 1.79316985279338e-05
2.53292307692308e+01 9.06984042478995e-04 1.75132543372410e-05
2.54769230769231e+01 8.83232793097170e-04 1.71042839421482e-05
2.56246153846154e+01 8.60103519215294e-04 1.67045831364093e-05
2.57723076923077e+01 8.37579933120573e-04 1.63139517313293e-05
2.59200000000000e+01 8.15646173627612e-04 1.59321935065948e-05
2.60676923076923e+01 7.94286794828226e-04 1.55591161030066e-05
2.62153846153846e+01 7.73486755461230e-04 1.51945309892066e-05
2.63630769230769e+01 7.53231408068546e-04 1.48382534303214e-05
2.65107692307692e+01 7.33506488766039e-04 1.44901023785262e-05
2.66584615384615e+01 7.14298107198843e-04 1.41499004274344e-05
2.68061538461538e+01 6.95592736759729e-04 1.38174737508856e-05
2.69538461538462e+01 6.77377205063614e-04 1.34926520422407e-05
2.71015384615385e+01 6.59638684671490e-04 1.31752684541768e-05
2.72492307692308e+01 6.42364684057374e-04 1.28651595390458e-05
2.73969230769231e+01 6.25543038811695e-04 1.25621651898149e-05
2.75446153846154e+01 6.09161903075070e-04 1.22661285815692e-05
2.76923076923077e+01 5.93209741196411e-04 1.19768961136253e-05
2.78400000000000e+01 5.77675319609480e-04 1.16943173621043e-05
2.79876923076923e+01 5.62547698868949e-04 1.14182449932243e-05
2.81353846153846e+01 5.47816226109603e-04 1.11485347275681e-05
2.82830769230769e+01 5.33470527378527e-04 1.08850453060633e-05
2.84307692307692e+01 5.19500500386192e-04 1.06276384029851e-05
2.85784615384615e+01 5.05896307392386e-04 1.03761785829470e-05
2.87261538461538e+01 4.92648368278444e-04 1.01305332475871e-05
2.88738461538462e+01 4.79747353800894e-04 9.89057258294846e-06
2.90215384615385e+01 4.67184179021751e-04 9.65616950753841e-06
2.91692307692308e+01 4.54949996910918e-04 9.42719962109611e-06
2.93169230769231e+01 4.43036192116057e-04 9.20354115407161e-06
2.94646153846154e+01 4.31434374895623e-04 8.98507491779338e-06
2.96123076923077e+01 4.20136375210780e-04 8.77168425534773e-06
2.97600000000000e+01 4.09134236972033e-04 8.56325499990752e-06
2.99076923076923e+01 3.98420212401256e-04 8.35967540642589e-06
3.00553846153846e+01 3.87986756683540e-04 8.16083611851420e-06
3.02030769230769e+01 3.77826522544121e-04 7.96663013675245e-06
3.03507692307692e+01 3.67932355111799e-04 7.77695275095855e-06
3.04984615384615e+01 3.58297286880457e-04 7.59170150282880e-06
3.06461538461538e+01 3.48914532802511e-04 7.41077614175449e-06
3.07938461538462e+01 3.39777485510864e-04 7.23407858133949e-06
3.09415384615385e+01 3.30879710665959e-04 7.06151285660288e-06
3.10892307692308e+01 3.22214942424722e-04 6.89298508187773e-06
3.12369230769231e+01 3.13777079028123e-04 6.72840340940271e-06
3.13846153846154e+01 3.05560178504294e-04 6.56767798858513e-06
3.15323076923077e+01 2.97558454484169e-04 6.41072092594438e-06
3.16800000000000e+01 2.89766272126711e-04 6.25744625035443e-06
3.18276923076923e+01 2.82178144127360e-04 6.10776986018230e-06
3.19753846153846e+01 2.74788726925629e-04 5.96160949475333e-06
3.21230769230769e+01 2.67592816868973e-04 5.81888470696964e-06
3.22707692307692e+01 2.60585346573238e-04 5.67951681135206e-06
3.24184615384615e+01 2.53761381354186e-04 5.54342885308811e-06
3.25661538461539e+01 2.47116115752481e-04 5.41054557255031e-06
3.27138461538462e+01 2.40644870149660e-04 5.28079337044437e-06
3.28615384615385e+01 2.34343087472729e-04 5.15410027357269e-06
3.30092307692308e+01 2.28206329985069e-04 5.03039590121595e-06
3.31569230769231e+01 2.22230276161358e-04 4.90961143212579e-06
3.33046153846154e+01 2.16410717644344e-04 4.79167957211072e-06
3.34523076923077e+01 2.10743556281295e-04 4.67653452221621e-06
3.36000000000000e+01 2.05224801238076e-04 4.56411195067318e-06
3.37476923076923e+01 1.99850566173108e-04 4.45434895251497e-06
3.38953846153846e+01 1.94617066548528e-04 4.34718402603856e-06
3.40430769230769e+01 1.89520616916236e-04 4.24255705017335e-06
3.41907692307692e+01 1.84557628339203e-04 4.14040924505680e-06
3.43384615384615e+01 1.79724605864126e-04 4.04068314716071e-06
3.44861538461538e+01 1.75018146060274e-04 3.94332258140557e-06
3.46338461538462e+01 1.70434934622779e-04 3.84827263380738e-06
3.47815384615385e+01 1.65971744038681e-04 3.75547962464413e-06
3.49292307692308e+01 1.61625431314122e-04 3.66489108214082e-06
3.50769230769231e+01 1.57392935761029e-04 3.57645571666542e-06
3.52246153846154e+01 1.53271276841763e-04 3.49012339542087e-06
3.53723076923077e+01 1.49257552070223e-04 3.40584511763139e-06
3.55200000000000e+01 1.45348934967897e-04 3.32357299240683e-06
3.56676923076923e+01 1.41542673062949e-04 3.24326020819233e-06
3.58153846153846e+01 1.37836085984028e-04 3.16486101389808e-06
3.59630769230769e+01 1.34226563540008e-04 3.08833070072999e-06
3.61107692307692e+01 1.30711563893008e-04 3.01362557252566e-06
3.62584615384615e+01 1.27288611768421e-04 2.94070292618386e-06
3.64061538461538e+01 1.23955296711816e-04 2.86952103008800e-06
3.65538461538462e+01 1.20709271391493e-04 2.80003910296319e-06
3.67015384615385e+01 1.17548249945471e-04 2.73221729315605e-06
3.68492307692308e+01 1.14470006371793e-04 2.66601665833478e-06
3.69969230769231e+01 1.11472372960961e-04 2.60139914560182e-06
3.71446153846154e+01 1.08553238769423e-04 2.53832757200773e-06
3.72923076923077e+01 1.05710548133045e-04 2.47676560546316e-06
3.74400000000000e+01 1.02942299219505e-04 2.41667774755353e-06
3.75876923076923e+01 1.00246542611534e-04 2.35802931060254e-06
3.77353846153846e+01 9.76213799557102e-05 2.30078640284531e-06
3.78830769230769e+01 9.50649626036387e-05 2.24491591413607e-06
3.80307692307692e+01 9.25754903175990e-05 2.19038549377537e-06
3.81784615384615e+01 9.01512100028135e-05 2.13716353534785e-06
3.83261538461539e+01 8.77904144729114e-05 2.08521916022277e-06
3.84738461538462e+01 8.54914412477226e-05 2.03452220139848e-06
3.86215384615385e+01 8.32526713825508e-05 1.98504318768274e-06
3.87692307692308e+01 8.10725283281124e-05 1.93675332820500e-06
3.89169230769231e+01 7.89494768203224e-05 1.88962449725477e-06
3.90646153846154e+01 7.68820217991563e-05 1.84362921943692e-06
3.92123076923077e+01 7.48687073558233e-05 1.79874065514051e-06
3.93600000000000e+01 7.29081157075112e-05 1.75493258735950e-06
3.95076923076923e+01 7.09988661942229e-05 1.71217940457702e-06
3.96553846153846e+01 6.91396143210486e-05 1.67045608928675e-06
3.98030769230769e+01 6.73290507965504e-05 1.62973820691819e-06
3.99507692307692e+01 6.55659006157907e-05 1.59000188935168e-06
4.00984615384615e+01 6.38489221624692e-05 1.55122382330833e-06
4.02461538461539e+01 6.21769063345720e-05 1.51338123784776e-06
4.03938461538462e+01 6.05486756929186e-05 1.47645189213406e-06
4.05415384615385e+01 5.89630836320031e-05 1.44041406346337e-06
4.06892307692308e+01 5.74190135725541e-05 1.40524653554979e-06
4.08369230769231e+01 5.59153781752344e-05 1.37092858706447e-06
4.09846153846154e+01 5.44511185749324e-05 1.33743998042089e-06
4.11323076923077e+01 5.30252036351062e-05 1.30476095080328e-06
4.12800000000000e+01 5.16366292216531e-05 1.27287219615535e-06
4.14276923076923e+01 5.02844174925844e-05 1.24175486447156e-06
4.15753846153846e+01 4.89676162192420e-05 1.21139054501073e-06
4.17230769230769e+01 4.76852981057308e-05 1.18176125981257e-06
4.18707692307692e+01 4.64365601393135e-05 1.15284945149533e-06
4.20184615384615e+01 4.52205229545061e-05 1.12463797444673e-06
4.21661538461538e+01 4.40363302138256e-05 1.09711008541940e-06
4.23138461538462e+01 4.28831480047544e-05 1.07024943433273e-06
4.24615384615385e+01 4.17601642524949e-05 1.04404005527587e-06
4.26092307692308e+01 4.06665881481063e-05 1.01846635770907e-06
4.27569230769231e+01 3.96016495916128e-05 9.93513117859169e-07
4.29046153846154e+01 3.85645986496967e-05 9.69165470304134e-07
4.30523076923077e+01 3.75547050275927e-05 9.45408899743633e-07
4.32000000000000e+01 3.65712575548119e-05 9.22229233452032e-07
4.33476923076923e+01 3.56135636821597e-05 8.99612631880645e-07
4.34953846153846e+01 3.46809490006841e-05 8.77545581991913e-07
4.36430769230769e+01 3.37727567599838e-05 8.56014890819421e-07
4.37907692307692e+01 3.28883474080228e-05 8.35007676468718e-07
4.39384615384615e+01 3.20270981407557e-05 8.14511361482423e-07
4.40861538461538e+01 3.11884024635473e-05 7.94513665807799e-07
4.42338461538462e+01 3.03716697640767e-05 7.75002599921399e-07
4.43815384615385e+01 2.95763248964254e-05 7.55966458106914e-07
4.45292307692308e+01 2.88018077760593e-05 7.37393811883755e-07
4.46769230769231e+01 2.80475729854142e-05 7.19273503583186e-07
4.48246153846154e+01 2.73130893898111e-05 7.01594640068026e-07
4.49723076923077e+01 2.65978397634293e-05 6.84346586593609e-07
4.51200000000000e+01 2.59013204250742e-05 6.67518961153507e-07
4.52676923076923e+01 2.52230408820093e-05 6.51101627554237e-07
4.54153846153846e+01 2.45625234890551e-05 6.35084690394536e-07
4.55630769230769e+01 2.39193031076381e-05 6.19458490212039e-07
4.57107692307692e+01 2.32929267797990e-05 6.04213596867081e-07
4.58584615384615e+01 2.26829534092178e-05 5.89340804575312e-07
4.60061538461539e+01 2.20889534505927e-05 5.74831126674842e-07
4.61538461538462e+01 2.15105086071522e-05 5.60675790512048e-07
4.63015384615385e+01 2.09472115360895e-05 5.46866232443051e-07
4.64492307692308e+01 2.03986655617105e-05 5.33394092948893e-07
4.65969230769231e+01 1.98644843960933e-05 5.20251211861946e-07
