Energy (eV)          EEDF (eV^-(3/2))     First Anisotropy
1.70500000000000e-01 9.67966098450544e-01 3.07014439956940e-03
5.11500000000000e-01 6.82973204008202e-01 4.33794530707738e-03
8.52500000000000e-01 4.81889188205968e-01 4.06788522080727e-03
1.19350000000000e+00 3.40009224881710e-01 3.42195954168834e-03
1.53450000000000e+00 2.39902192939944e-01 2.74616981870610e-03
1.87550000000000e+00 1.69269119675847e-01 2.14544885321791e-03
2.21650000000000e+00 1.19432150764078e-01 1.64710868882157e-03
2.55750000000000e+00 8.42684044405101e-02 1.24905318112624e-03
2.89850000000000e+00 5.94577250892583e-02 9.38564797149601e-04
3.23950000000000e+00 4.19519165725456e-02 7.00281886536687e-04
3.58050000000000e+00 2.96002462500501e-02 5.19554750899243e-04
3.92150000000000e+00 2.08852097745874e-02 3.83699011861375e-04
4.26250000000000e+00 1.47360931947579e-02 2.82284909691717e-04
4.60350000000000e+00 1.03974269345772e-02 2.07004740890344e-04
4.94450000000000e+00 7.33617013892994e-03 1.51380773293791e-04
5.28550000000000e+00 5.17622221785930e-03 1.10438448164103e-04
5.62650000000000e+00 3.65221579397127e-03 8.04007086576895e-05
5.96750000000000e+00 2.57691413628095e-03 5.84247772620566e-05
6.30850000000000e+00 1.81820758694655e-03 4.23859009474226e-05
6.64950000000000e+00 1.28288280260712e-03 3.07049415848140e-05
6.99050000000000e+00 9.05170728051459e-04 2.22137365263245e-05
7.33150000000000e+00 6.38666326539049e-04 1.60515228665376e-05
7.67250000000000e+00 4.50627339146228e-04 1.15861580426284e-05
8.01350000000000e+00 3.17951628805020e-04 8.35472848338641e-06
8.35450000000000e+00 2.24338892645306e-04 6.01909042298909e-06
8.69550000000000e+00 1.58288035643890e-04 4.33278013339084e-06
9.03650000000000e+00 1.11684166452650e-04 3.11650375231796e-06
9.37750000000000e+00 7.88016162149187e-05 2.24005521430924e-06
9.71850000000000e+00 5.56004930270579e-05 1.60902220352228e-06
1.00595000000000e+01 3.92303479718053e-05 1.15504119740862e-06
1.04005000000000e+01 2.76799740110212e-05 8.28672492061065e-07
1.07415000000000e+01 1.95303126498256e-05 5.94202579911280e-07
1.10825000000000e+01 1.37801109223608e-05 4.25860089774591e-07
1.14235000000000e+01 9.72290922512518e-06 3.05065748457376e-07
1.17645000000000e+01 6.86024694087357e-06 2.18436990510144e-07
1.21055000000000e+01 4.84042244970762e-06 1.56342204561722e-07
1.24465000000000e+01 3.41528369074277e-06 1.11854574833008e-07
1.27875000000000e+01 2.40974063926138e-06 7.99959645400972e-08
1.31285000000000e+01 1.70025405627283e-06 5.71910160961990e-08
1.34695000000000e+01 1.19965767633744e-06 4.08734114231059e-08
1.38105000000000e+01 8.46449114522456e-07 2.92021374814081e-08
1.41515000000000e+01 5.97233792279189e-07 2.08571938590034e-08
1.44925000000000e+01 4.21393556352664e-07 1.48926132618652e-08
1.48335000000000e+01 2.97324986682161e-07 1.06307919155712e-08
1.51745000000000e+01 2.09785238461414e-07 7.58656998515149e-09
1.55155000000000e+01 1.48019333213184e-07 5.41272014154318e-09
1.58565000000000e+01 1.04438821175235e-07 3.86083023546327e-09
1.61975000000000e+01 7.36894777978990e-08 2.75324802487710e-09
1.65385000000000e+01 5.19934931955614e-08 1.96296996720274e-09
1.68795000000000e+01 3.66853371127291e-08 1.39923157006244e-09
1.72205000000000e+01 2.58842765961620e-08 9.97187565162431e-10
1.75615000000000e+01 1.82633124740769e-08 7.10524260787384e-10
1.79025000000000e+01 1.28861465873544e-08 5.06173081695104e-10
1.82435000000000e+01 9.09214985542648e-09 3.60529121032914e-10
1.85845000000000e+01 6.41519855708110e-09 2.56747217045392e-10
1.89255000000000e+01 4.52640719534698e-09 1.82809176604799e-10
1.92665000000000e+01 3.19372220762737e-09 1.30142668181891e-10
1.96075000000000e+01 2.25341227585034e-09 9.26346281073033e-11
1.99485000000000e+01 1.58995258661692e-09 6.59266955594964e-11
2.02895000000000e+01 1.12183165716353e-09 4.69121969879922e-11
2.06305000000000e+01 7.91536978905830e-10 3.33771208727576e-11
2.09715000000000e+01 5.58489132459952e-10 2.37439308385846e-11
2.13125000000000e+01 3.94056272022861e-10 1.68888052915291e-11
2.16535000000000e+01 2.78036467489706e-10 1.20112892677576e-11
2.19945000000000e+01 1.96175731088654e-10 8.54134864087362e-12
2.23355000000000e+01 1.38416797679940e-10 6.07310872469398e-12
2.26765000000000e+01 9.76635069671853e-11 4.31762609487519e-12
2.30175000000000e+01 6.89089818071393e-11 3.06923316308716e-12
2.33585000000000e+01 4.86204921485373e-11 2.18155947837980e-12
2.36995000000000e+01 3.43054300727030e-11 1.55045062460397e-12
2.40405000000000e+01 2.42050723978227e-11 1.10180274915459e-12
2.43815000000000e+01 1.70785070626481e-11 7.82899578627355e-13
2.47225000000000e+01 1.20501768676865e-11 5.56244561197795e-13
2.50635000000000e+01 8.50231006784573e-12 3.95170185570959e-13
2.54045000000000e+01 5.99902202959693e-12 2.80712890674867e-13
2.57455000000000e+01 4.23276321663341e-12 1.99389097037742e-13
2.60865000000000e+01 2.98653419835643e-12 1.41612748399415e-13
2.64275000000000e+01 2.10722548402947e-12 1.00569474619287e-13
2.67685000000000e+01 1.48680676182677e-12 7.14157247293338e-14
2.71095000000000e+01 1.04905448599012e-12 5.07091425005229e-14
2.74505000000000e+01 7.40187186950800e-13 3.60034666281700e-14
2.77915000000000e+01 5.22257975198536e-13 2.55604711242122e-14
2.81325000000000e+01 3.68492453621201e-13 1.81451553042370e-14
2.84735000000000e+01 2.59999262479722e-13 1.28801408802357e-14
2.88145000000000e+01 1.83449120397700e-13 9.14217194310113e-15
2.91555000000000e+01 1.29437212450995e-13 6.48855123552342e-15
2.94965000000000e+01 9.13277312573811e-14 4.60485946327449e-15
2.98375000000000e+01 6.44386134302623e-14 3.26780395871607e-15
3.01785000000000e+01 4.54663095605935e-14 2.31882108417781e-15
3.05195000000000e+01 3.20799159854191e-14 1.64532143673060e-15
3.08605000000000e+01 2.26348040907087e-14 1.16736631534926e-15
3.12015000000000e+01 1.59705641516526e-14 8.28203460278773e-16
3.15425000000000e+01 1.12684394483781e-14 5.87544793706968e-16
3.18835000000000e+01 7.95073526495460e-15 4.16792159194593e-16
3.22245000000000e+01 5.60984433940328e-15 2.95646849145970e-16
3.25655000000000e+01 3.95816895715930e-15 2.09702036981507e-16
3.29065000000000e+01 2.79278720505212e-15 1.48733305417410e-16
3.32475000000000e+01 1.97052234432673e-15 1.05484946711989e-16
3.35885000000000e+01 1.39035237001469e-15 7.48083196060339e-17
3.39295000000000e+01 9.80998626263199e-16 6.22079603937086e-17
